0.671459169023172,1.78090194233684,34.8065298575055,-0.830729510750548,5.25279072770734,0.35428032716954,527.763969771306,13.5555689258952,914.539555057853,-39.4828281411361,3.52372670041524,1.12729927073687,106.784354000198,-22.0655097122354,105.849796088847,-19.277973691945,24.3761583654732,-7.8497085668384,622.588511306181,224.928649995054,253.068148435361,-23.9269578279555,1841.23546022671,-302.084888785172,179.828187218971,3.39682895659916,799.475427491481,-33.2645411358642,559.53757019598,-58.9116343708632
-0.685663508432085,5.59611267353593,39.1157580385515,-0.0763572708912066,0.569787243852705,0.478381890618894,522.851827629987,8.81026076027464,890.083402298473,-33.8853690727147,-0.470077342820035,1.89354842090498,89.7462797410648,-6.17301059046805,104.615251050108,-23.1270992732164,18.7937255302913,-3.92965100954335,625.89632048472,221.534206435244,252.618636430479,-24.0468634486497,1836.40302441492,-302.694558564628,181.639606163058,1.61411177134072,801.040315628776,-34.1747717431127,564.424016952651,-57.7972380363027
3.45933012484293,0.387514970422276,34.3042820950822,3.12970624517853,6.84026023431952,-1.23354940836713,527.664273804739,13.7716772760042,899.006808550563,-34.3269526174636,3.09321569663071,0.0414421315520423,108.63736767535,-17.5320118309828,101.733536226981,-20.7101507035373,19.7287967766478,-3.17946356905317,633.49150895849,228.203534747207,255.524125085915,-24.1607872474085,1867.79963964223,-305.698989137452,181.562544341961,3.82791420558817,812.916148648209,-37.7502306434434,584.246717958711,-63.2149215143954
1.54677904331261,2.22343090043039,34.7286574669714,3.51389330268252,7.18402939229524,0.875833398000258,532.531423170439,16.9332379123563,921.084420612886,-39.3004108782897,1.67521094924957,0.335840101668611,101.902473235286,-15.7484657753358,120.65810676779,-27.8145881679944,21.5804069602985,-3.22018710035992,637.774605246247,224.036126733906,257.37118282097,-25.9491725514214,1848.0608474157,-306.220353425044,182.529181423881,2.20214998210564,801.590137454929,-32.2063817020943,562.733002734498,-56.6392679257314
1.3583887837067,3.15611430650063,38.0427898772879,4.84338111446519,1.09890321854651,3.23003690217834,520.079672018725,15.5970847271946,891.411144868125,-34.5899836302913,7.43697344112772,-1.85784098015312,98.5909115431677,-14.8383750844728,113.587313179347,-28.8018442349135,21.7927796778964,-3.22044152889068,621.473923828951,226.126625239634,253.464850687855,-24.1685387297187,1835.89435368033,-308.517031289352,182.005858868811,2.46400971685733,802.194673963807,-34.0390363831757,565.588107874218,-57.6180144656811
6.58591155147964,-0.480470358157094,22.9371890649039,11.6603738607061,9.49251239899192,0.437631846168585,517.039573317003,20.6375680694807,896.495045741464,-33.5229012652685,4.06109470239693,1.58698384949157,113.19560216307,-20.6333422438618,121.479963906585,-28.880723573055,24.6666891459293,-4.53735932802644,636.701704506185,226.517616637233,256.574408098143,-24.6008797046865,1873.22143495668,-312.033519193882,182.975945183416,2.72274931502242,810.64105489361,-34.9111438051772,587.399641757957,-64.8230524714701
2.38240280596712,0.80209050661484,32.1420850662256,1.93633367734147,11.1142328185532,-1.57472514560623,527.107771021556,11.9795321387301,923.264889220202,-40.2300035456373,1.36657621902655,1.37074119269464,103.801279238466,-13.5980969325377,113.75042516508,-27.4646102525681,21.2086823997623,-1.97164322727151,647.048750400932,227.92827996183,263.514836291155,-26.132451465872,1901.81760381465,-317.347961666627,185.07850892635,2.47629048861611,817.355080363304,-35.5000848279689,586.34420313347,-62.4469741754782
4.36927095789114,4.0344830533309,29.9921531702532,4.61782549145524,10.8515357405362,0.323628621525353,510.500900474768,21.3896542434798,884.824048023504,-31.2222681721935,3.71040388533464,2.34127165163135,98.7950435277281,-15.8978814971352,110.082293827316,-23.8188329394681,22.634312545531,-5.50111193918684,625.058826612973,221.660482032913,254.000316423646,-24.2538949907738,1850.28545192856,-311.339982229715,180.717179854904,3.00095403574172,802.82866560092,-33.6836561543862,568.785567146957,-59.431023793308
0.193960399230565,1.98190289286818,30.6223292449968,1.23020894650197,3.82623914056072,4.85078696841616,519.419116393618,17.6639921090861,893.90829045451,-34.952149599362,2.5322840763573,2.0570621544363,91.4224143067876,-8.65694846573208,120.948043778834,-31.972659641409,30.7898497567407,-9.22564202581006,629.234596001895,226.25142900031,256.711324198477,-25.0209810043822,1857.08839905406,-310.735224515434,181.671979249118,3.83413963836343,808.223487809518,-34.4164082682588,580.507343905092,-61.6814090581927
1.80712568436396,1.87188760786658,38.5577408981193,3.28694394745565,2.5660940362734,1.96231149919631,526.934426905701,16.529579505919,917.473215616464,-37.9370947338085,1.8928472629114,0.105174126648591,105.016276106088,-18.9924056864108,116.313398620063,-26.3175543512098,23.6008580122594,-3.93846407176031,649.622114272532,225.201111343975,260.564691408003,-25.6088842816828,1912.74217794647,-324.678124927908,188.928772282631,0.552776512025054,823.534450735095,-39.0360751794907,603.027986368844,-67.3951619305583
0.452361805902596,3.88681212755022,33.6660429525252,0.909466338024041,7.07713671977988,1.89642642160072,527.098772965049,8.80399160863173,889.064561564012,-35.0871468809663,3.99578620398211,0.732669929244186,105.473546117592,-19.9276291254769,107.09131860016,-17.7807855476803,20.981750661598,-6.10808220112522,618.144369155908,225.91903705571,256.974850674302,-26.0512920693519,1830.15021576069,-296.549299616989,183.218995891889,1.00879317291091,804.614194902442,-33.899634381893,568.95381593583,-59.7533074486524
6.35263482172822,0.501503691818714,29.9043675956886,0.542858002873398,12.4079640386825,1.37250728202366,528.470476149377,3.18509576229247,889.577116750446,-32.5772154591689,0.502023979246176,0.665381707465089,99.0811187853313,-14.6863295242529,108.945974815948,-25.8031525028712,23.1078858133337,-5.7649494080651,627.62861255191,223.884932974125,256.075745932773,-24.9789249148418,1859.45761755088,-303.264448507582,183.504583651218,1.69093548852675,808.489961733891,-34.4788670515115,576.842036562378,-61.0968566906444
3.85879226718213,1.52211915012906,32.9606131734644,4.03427935605811,6.98277004829322,1.86924280484592,537.303454366373,4.28016221147088,914.353158114649,-38.6904991335112,-0.115825736466074,0.62769357267203,102.486481957778,-15.619105536708,113.085284899372,-29.0102171440818,19.5145007589539,1.35304814714297,645.527903466778,223.803042341476,259.510003742838,-25.8798831901081,1885.93976599679,-312.134740394389,187.073523561172,0.784648368834002,820.001355238967,-34.8759838603149,595.296186622581,-64.257300191321
4.64435822309516,0.0779427143981621,31.1146907686937,1.71708031720097,3.14728568162859,3.66791688983503,531.663875166651,4.63904783995744,891.542533569702,-33.7946828643515,1.3530924946773,5.29328787348144,96.1616478805164,-10.2013310986134,107.108323612548,-25.0562743014678,30.0594691796925,-7.29071433216652,621.933993891725,222.678294668238,256.247982116256,-25.8693211647436,1844.48837165086,-303.157345608045,182.687768500687,1.75702891306708,804.211235382026,-33.2578571883767,568.984961386541,-60.5088248814323
7.04952038506022,-0.799477202833318,36.4266590509122,-1.84867518310789,7.94587043402283,-1.4442179059522,524.265676219221,13.0087417495192,891.062700357086,-33.3716357950144,2.7091988813123,1.19170838781403,93.6222903909105,-11.7974777859063,112.016249124726,-25.6579164382153,24.7697281553849,-4.79421476488731,623.73512794136,225.16126867841,255.231975108104,-25.4780193695871,1858.69066480982,-307.535998569515,182.016764547563,2.79798830602318,809.046198500353,-34.1910499049528,578.416357242705,-60.6868185056342
-0.916101544882283,2.9298588976512,29.4038834039705,5.35630601204193,6.63611227865373,-1.76619882267392,521.972117727998,8.70995516872512,912.037350278567,-37.1067861695794,3.42458495022393,3.7638463502077,104.004976363088,-19.7100884550628,112.919770171104,-22.971738398807,17.9219946215862,0.158729835736447,639.479346809853,226.231054228306,261.099471736592,-25.6742530381764,1893.76694693244,-314.825465607018,183.68329080985,2.49225487545527,820.56754807261,-36.9953115691556,599.065430231118,-66.3993023675316
4.46387775328978,0.471180575359683,36.5533244287079,-0.289408536578726,6.02913409164599,0.361518806998659,537.012572942269,3.95747188378391,910.735153934793,-36.490879920117,2.16813406271134,0.529437122588933,106.154502250648,-17.5367970735211,120.949489281996,-28.2152869276924,21.5162601055852,-5.50309562650486,620.473637173051,223.69627417356,258.001750890706,-26.7282738078225,1833.72583657977,-304.930415182782,180.0088563878,3.04335579239699,808.396029039799,-35.6142383937407,568.948739875681,-61.2649559167537
3.32400794322155,1.22422767310413,30.4739965705928,5.12352379427501,10.2094646681836,-2.48093128836314,527.929352462466,6.30290728626095,890.97559749648,-33.3307480106662,1.81519450794361,0.527036514569233,96.5405468366155,-17.7166968352647,107.558412379219,-22.7160720242107,19.1497858241714,-3.74189857544406,616.877321697368,228.230468437117,255.945720530573,-25.3100091697834,1845.1792602558,-302.218303140385,177.997034760308,4.01559934834147,802.646294385896,-32.1643958188672,576.2021524463,-62.2969606901011
3.35664387431761,0.412477777511888,36.230263789515,3.25310427391673,4.50803962309645,1.22219540564726,528.763351225474,8.31289897391539,904.546685511277,-35.6148440689863,0.472067320295514,1.5192231175839,107.980415905767,-17.6358314169723,106.422317093618,-17.2710606945131,23.1015526339353,-3.26662308669608,634.102959615456,227.355561412432,258.769373674658,-25.6186104501731,1886.78983207661,-320.486712605684,183.793683050529,1.38534247095466,815.414252608366,-37.9751299939328,593.331200336271,-65.0803006538697
7.42989771400897,-0.688324999251077,32.0899468433978,2.85173527228686,15.3470210903372,0.318945432490584,524.423249090585,15.8449751246209,924.318947660138,-37.5621408516298,4.9447070600195,-0.257879351343083,104.826283796123,-16.6064968446698,100.956037648483,-18.3125454202485,23.5037469438324,-5.88086939854252,633.061676327982,227.285678602926,260.346320810978,-25.6438886707539,1866.17242445645,-317.942755717215,181.524790986072,2.13112680568639,807.547746600225,-34.4818799887032,573.499429859741,-61.8861942232955
-2.87787063624533,6.10437057270881,40.0134439809183,-3.65472926149982,0.117450193179475,4.80825868994108,524.448182072342,10.4132061230503,892.084738593337,-34.7613964712802,4.45821194013786,1.05189007510559,95.3617217454918,-11.967471959264,110.818203729308,-25.6746650597627,18.8448392599976,-3.37475200518937,618.617671905769,224.636067996412,256.090973139969,-25.8721803386404,1839.78704301183,-295.629229041947,179.327662684119,4.08708029395843,803.053618410975,-33.7332292655277,575.215108542512,-63.0434008715832
3.15860481310446,2.0420947662578,29.6175540721911,4.80445566782571,10.9487222511032,0.502334002697617,516.734881016661,14.3519915887423,900.104265944706,-36.6234987589484,4.32020649271472,1.1229299417833,100.598512732096,-18.245215285423,97.6291766225478,-19.5301194368175,26.9612653368842,-8.13080184904529,626.518418080022,225.575468911314,258.20722540111,-26.1790943799422,1868.21011680957,-315.174152331241,182.824957641511,2.02603601177623,814.616759846847,-35.7663152652938,588.458799640815,-64.3744324846623
12.7126530605759,-3.02954039269952,35.805168423743,0.660259004166771,7.71431020431976,-0.895393972272691,529.745367911462,9.56576267727529,912.548244056058,-34.1013514718407,2.3263524329593,-0.36928099044178,90.3749432617232,-9.93529288122998,112.386828340902,-26.0599220735536,19.4039934682117,-1.76835803827169,639.428707279259,226.382241989493,261.700303566738,-26.2752759121897,1876.25144670425,-306.803223518655,183.583120105578,2.51461593043042,815.561199305834,-34.5146140740394,582.77787763868,-64.0914118532967
4.78327471717568,-0.028136752004979,31.3153187300024,1.41624256430325,10.4477039285675,2.47860261079993,522.143319692183,10.6562177621034,885.623825213424,-31.9214321885541,3.02695238139129,1.76685242002492,94.032675986608,-12.9644591099979,111.159351457128,-24.0473829396809,18.6711583400191,-0.930584538189965,617.603887773908,225.20091802563,257.203722378,-25.1980440752377,1837.08335362798,-298.102418496368,180.040236938914,3.03320792829163,809.135500948395,-36.6326794293696,574.480646010569,-61.5807309533307
0.662871071434668,1.63598459392776,24.7761968104964,4.54306868926273,7.64620205545893,1.52578144655754,521.218678824054,9.33266993741731,895.720732318559,-33.483832691075,8.29978559501092,-1.63267066139764,104.209705485931,-17.0048438826076,119.315633056657,-28.0901308859134,22.5578649736143,-6.18238602238334,622.703208029303,226.048385569812,257.53210164393,-25.4264976176186,1855.86788114563,-299.838925420211,181.650639724943,3.24691650791568,813.57821571551,-35.8559576558789,581.205670359935,-60.9986355088404
2.07166903476226,2.97001974770054,27.9396736408311,3.39179662862159,9.72145958325255,0.0407613751118675,523.912643676165,20.2723637616343,918.074801622726,-38.6510477399146,3.36281252091025,0.730332393843457,97.0440758340899,-12.0416028644251,117.520984191294,-23.3150826865573,23.6908101588366,-1.59874464797212,638.205936871022,224.839088523185,262.9417112465,-26.3350388796002,1914.05823087235,-329.940937879325,185.135933352987,1.63106932327221,822.003079768285,-39.0397947943561,592.584514092402,-64.5150155431909
-2.99175511555544,7.36204227969125,35.7837381478677,1.33657667496699,1.51655082341025,2.50900662818248,517.898118305947,11.3477621451892,884.885464263852,-32.2267901031156,3.91156150875132,1.6136883687531,94.7732050082397,-12.8620840946618,110.018378277968,-26.6564059642419,20.655549137964,0.0316607442797538,615.345402993499,223.728438910656,257.545227464477,-26.2126804835987,1839.40029538174,-303.806622377415,181.402352570644,2.33764943631832,807.728356331038,-36.2609918213862,574.296197301338,-61.0987676308007
0.229766857914466,3.30700200709736,33.5612543902756,2.57626433612287,16.8176386037807,-3.93959125553598,523.700041877292,7.61266025052585,890.807078208492,-32.9573264967533,4.29909292709987,0.471201638978884,105.657531413076,-21.3189099001557,104.322246646791,-23.2329300243889,19.4289648972916,-3.13232031416257,617.471737583463,224.953003471282,258.208061901829,-26.0254042508869,1866.17187428549,-309.024804592456,181.315107423741,2.25347835227345,811.58435990556,-36.4977471370673,581.334144002005,-61.6003214594912
-1.52687060866584,2.92005991492341,38.5448035349921,1.04213634493437,4.98080352244079,2.8770627736731,522.736590678293,13.8290323200458,909.15392465625,-35.8205181558957,3.91309253136617,-0.0952283229560048,103.41231320636,-16.238072978078,107.52845944939,-18.4354397191868,30.0659943949041,-6.20131550507234,632.644385030169,227.508193198946,263.860331298526,-26.6833957595371,1886.33331543225,-305.907391605538,185.943442788615,1.25339283992713,820.547815944452,-35.7826764371852,598.079117172276,-65.3684688303087
-5.94511887234785,10.2750044416021,28.2463425701005,2.44001442130621,1.45603845546008,4.72815703128984,523.918575616399,9.65003408780424,877.46803069978,-27.5508703160812,0.314962932229662,1.58020792596464,101.482697314122,-14.9630384235016,107.159688651351,-20.5384572919176,23.1561835152331,-6.83984837457147,608.307477711862,221.687206317338,256.602828757003,-24.6620915515627,1844.82876327349,-308.205883949422,179.982428282959,2.4584219645655,804.846142412481,-33.7202586719496,568.177851100712,-59.9735245120733
5.35218731100468,1.2340039945088,34.8323692465685,0.150225913124349,0.120755832107988,3.28120934235531,512.895844028046,16.3219760108593,880.063442787689,-29.1067397123616,6.11711231012142,0.192975274561104,88.4545346123908,-10.9166269719276,102.53226917064,-21.7747011162974,19.5080686260995,-3.96202201565437,611.63091697582,223.758045519803,257.014301351618,-25.5321071405149,1842.02195860729,-305.7247845109,180.585950307381,3.04661451546888,810.045949609941,-35.6650580209489,572.307102000061,-59.4514001493356
-0.0568503570543601,3.46509510199146,44.9487562233373,-3.17628344585379,-0.156492974336751,7.3736507690697,515.029760424407,16.2698508711397,902.22170519142,-34.1907362578315,1.84931776120796,-0.112732364456251,107.576006388162,-20.7152200613305,112.134781300178,-27.5363485364602,22.8282802495781,-5.7617282145823,624.220529987478,228.537680190085,260.683213442416,-26.1714858220798,1864.06046824769,-303.886254138094,182.897117259074,3.17450723832963,814.93027435492,-35.4740649997114,594.037223733672,-64.0794237592649
4.20531507504568,2.13137131479827,31.4362004446453,0.815301348649642,3.12110544934184,6.53730880563399,509.094023000745,16.2428952720227,891.911691620651,-32.3722372092374,2.55950368297228,2.33673448536968,99.4944061575571,-12.3328520844054,114.914620120151,-25.3843298074741,18.4668213263687,-3.70701407201565,603.211141751846,223.649449143841,257.154842974865,-25.8805772641037,1850.52683054366,-319.597741855592,179.689789174764,2.81708401682583,802.928245698173,-32.8920529177807,566.970647409165,-61.5464841187062
2.86465058234135,-0.117451144955048,30.0656654188255,-1.52014587147757,13.8821333338139,-0.0936708057055314,507.879964425062,19.9150646895663,881.271803273735,-28.9472128139783,-0.0808043975253263,4.88715686575971,102.593627502735,-18.8755767846385,112.24110839143,-25.1082927508244,17.3626766640249,-1.39115705113649,603.109357080021,225.618499011937,256.461011576439,-25.3718210253637,1833.61748782497,-306.704232667158,179.304979989775,2.35277020361354,805.592064535196,-35.7500502103038,568.29389692463,-59.5400540658986
6.01675380745719,-1.5536546473747,32.0696570906773,2.13503220017712,3.88003711710143,5.67214866420726,525.108980322049,3.1118932400288,891.667740915825,-31.959738941229,3.3774872872156,-0.170680493490375,90.3160279499982,-10.284099434722,104.399915615773,-20.9952145544588,17.7886758588786,-2.27023221256462,618.529003041141,225.299018769625,259.427014548084,-25.6956531203071,1868.9868689691,-313.402543624184,182.020317055719,2.73655042847082,812.401557948038,-35.8725667656867,586.861726633077,-64.3871664507335
8.20123128939187,-0.382765836937246,40.195392346717,-2.90945760052219,3.1200198541258,1.75106740400415,525.044687068121,7.86929813316581,916.001774640091,-36.3250449541483,6.3929070048582,-1.50564775192637,101.612554836245,-18.8887696028844,105.626456418855,-18.2000156021858,23.8336426927631,-4.67077929769984,618.842117509388,227.512019211669,261.397951815363,-25.935757516633,1878.17565241729,-325.588797345232,180.733515484571,2.54566181458872,808.811306028525,-34.5427361864586,569.441858579224,-59.5639466431915
1.73280784801755,4.28296038223929,38.3133802910016,-2.20323854442386,6.28264033526685,-1.16925515565415,497.915469618506,23.5886086403804,881.130678504057,-29.8110300731645,9.21120392507553,-1.95978151260061,98.5650046054345,-17.365916198811,103.411128740223,-19.8572228022572,26.3077594124911,-6.15600541843619,606.959320817654,224.251905726142,257.933839869022,-25.8745385920286,1833.04683029025,-306.121207202761,181.023110553173,2.54253071893904,805.551332382265,-34.2692762290063,568.98238246486,-60.4307104908759
1.27424678790252,0.639694706301055,27.3454060401913,6.94409450217797,5.03734091302615,3.19215714091367,513.010124766471,20.9185140443415,890.785376045654,-31.5327824241706,3.25587292965305,2.20772510910904,86.5502466299063,-5.543327477773,102.980471880998,-21.5722338235472,24.3606578952013,-7.47528940290807,616.106556475909,226.403891735521,259.32649881141,-25.3208734826382,1870.26676815598,-311.643999443131,183.290916958046,1.4795070789664,813.301007553875,-36.2924236865424,583.615883867888,-63.3923632161326
3.19202766771019,1.50968805472157,28.3300401825505,5.70051974997194,1.44056456074635,4.54162986783149,530.493649121382,2.73313698017096,912.123082280341,-36.8481458553611,1.7090086451734,0.861364583826435,97.3620494421074,-10.5510385319543,119.114245521848,-32.1480449153631,21.7393534750688,-6.74443190278599,631.61829879502,227.397056145492,263.403559667784,-25.6125025990123,1905.46771925185,-318.23627598197,185.55271206567,1.69008616113746,828.312259598129,-40.1594461081165,601.704801992109,-64.9037530848009
5.41564487141016,1.13951579487854,26.5489493089528,3.86235251199715,7.5620655119691,-0.343648994043771,512.193403524953,20.3721301132084,883.21380991213,-32.3813452572002,0.953128569422539,1.24259110069043,102.808291323508,-20.9791955801498,98.0007407370712,-14.3140755549866,18.9464604269115,-4.25664961286509,601.482033727781,226.669479785643,259.991806129384,-25.4986397600418,1857.50768880874,-315.684339479259,180.643127182482,2.87806184204232,805.215491184962,-33.1210978557672,568.720858354543,-60.4422656821467
-0.715139657939724,1.31961937968695,37.6779973228472,-4.69190893929263,8.3814540682276,-0.890415506197745,506.851208026273,17.0975066027327,881.253082205206,-30.0401872947525,1.61233642961502,0.14296253621554,95.1230104913365,-16.2763963632198,112.410973218728,-25.2848382075136,22.0817112873764,-7.36258397794331,611.268439805113,222.848249305404,258.288585809679,-25.2945708179725,1836.15002326217,-304.947937130095,181.232588149046,2.45816785129015,806.969851189766,-34.9674363615257,578.785577101765,-61.511053711942
-0.216078299284167,4.59852633161386,29.3418911688218,4.68108880259485,2.05760243087524,1.08814982700218,515.82186956256,15.2715304175333,905.439355312639,-35.4065325090815,4.19378654465248,-1.4180424498409,97.9984107793029,-9.37020263556324,107.787647009944,-25.5701223704563,15.1507739325151,-0.288917494041673,625.02407334596,226.188739596425,264.948573929909,-27.0093020854836,1894.62350073382,-319.6015747901,184.272517713658,2.4011909973559,822.435125841387,-40.1238039403903,593.589495873787,-63.2014642923128
6.93791801429431,-0.206444200343358,29.865729715878,3.45278862091779,12.0054051993462,-3.19972398331471,510.974390374536,18.2448092116257,902.269270404091,-34.2496680875049,3.90226876109361,0.555985777649683,102.21813454867,-16.2009127749685,107.280149533124,-19.7882046083687,22.7172100346425,-5.09573523722691,603.731842762583,225.283807424285,263.32634957513,-26.6166018682144,1861.69718871592,-317.233003667923,180.933112622044,2.92605797209007,807.677423034671,-36.5978094735681,567.116050263115,-60.302161900659
7.75269179605253,-0.466409233778,35.6567878910956,-0.772460429908673,6.67951083351715,-0.00885536523331248,523.247794014686,11.7467373999111,884.782281385056,-31.1909366944255,1.39177091662542,1.79386759866057,84.3755345466645,-5.34411060532471,102.673787022771,-18.9501003250849,22.3844417533906,-6.19959543992106,607.565797756238,224.198287015334,260.820217224388,-26.7104436404927,1842.40447200388,-312.085981819376,181.661943245083,2.6577954047294,804.893202661917,-34.684891991582,567.802966456592,-58.4568109674456
-0.273117642708767,1.88479141847423,26.4393252110018,5.14840340296087,12.887954498,-1.60301667444808,522.407819871741,11.8350369720101,903.02045248808,-35.5855703818414,5.42226849290394,1.60687460165479,83.6602354995485,-7.38276516626704,109.152637231309,-25.2602142492008,26.9898409663221,-7.23857893293571,621.647782635075,226.962963482125,264.244669061151,-27.084850213389,1874.16318125831,-315.840134054262,184.055780309274,2.46102725350076,815.792637571052,-37.6499099927697,586.694542711893,-62.5562646466149
-0.0521038976054561,2.56626408684205,33.8179251949351,2.11073829848201,2.68819406102002,2.20233388845082,520.207565244275,14.327498184951,919.617374228755,-36.724486735607,10.2359278192815,-0.973980638097194,102.599354840921,-17.0946540234907,103.988718197544,-17.9373488676505,17.8366602416636,-2.48650202265852,618.071339494563,222.102438308519,263.950908808839,-25.9353659584414,1861.83894880339,-313.438679756327,182.147282039094,2.83996471404238,813.59590236678,-37.836542801838,567.643607767957,-60.5363700614935
1.97545153596837,1.07845123393579,29.5367052717651,8.9054574843388,4.13370008190067,0.341211995356077,501.218096172535,20.41517721194,894.429907177985,-34.9452089527061,3.47313917167174,0.284782282097512,93.3289661588873,-14.8566917931904,101.374584141317,-19.2583037548105,22.3621247066163,-1.67503023229887,609.508758700146,224.575782392994,262.760316140199,-26.7512335016189,1851.75322590232,-305.387149045877,182.998669586128,1.82311115023047,809.428216010191,-36.6449406146802,569.947971122993,-58.6236841306955
8.34329681906139,-2.32227641926903,25.9828546041114,8.10166854744295,-2.20954127694462,5.5971727702312,522.744180144269,12.1841703704167,903.128713542602,-35.9005767632096,3.23946636882735,-0.209460105299871,110.10306034027,-20.0910292073505,101.905446640488,-14.7865507714516,26.0832780220553,-6.84204672259948,622.147154519215,226.375526290136,265.270364652774,-27.0558000202818,1882.93539430649,-311.236363021739,185.372790190786,1.31888146117329,818.30494114867,-36.9927251507145,584.079540552771,-61.6998532287042
4.51972915843089,0.0184467702413724,42.0088903241156,-4.42138047974454,4.98745180623846,1.52236230612608,530.213722332335,7.33958333951545,929.260230370038,-41.1704081344876,-1.16716075114417,2.10736802010596,102.055806699228,-15.3457084070245,109.505695801356,-23.7267948660049,21.7920892572144,-6.00608287216852,638.897038552609,225.723108776438,273.147404729587,-29.6464768714446,1919.17062496877,-329.52615303644,188.33777222068,1.21308152455581,826.204819141623,-39.3032217310331,591.717709956206,-65.8753988772462
10.2255477264562,-2.6627970176569,44.1937463169036,-2.85766190359457,1.72021756134744,5.86504796511207,504.615883351044,21.3009592843814,893.040961721636,-32.6138142483533,3.40174048379567,0.467089304221946,93.6664464277466,-12.1615117718789,107.452850223301,-22.9346362730002,18.7751309867277,-2.31056576266118,612.608920701309,224.33382935106,266.276719004918,-28.8439643165224,1876.79290850622,-327.090091738887,185.192395551053,0.300009374928914,810.699348128724,-35.3966125259389,565.741847955611,-56.7782765431894
4.14804666190251,1.10531441958176,32.7604113174694,4.37938487114028,-0.879156749018917,4.35811802002672,513.500489749986,12.824029241833,898.718833025432,-33.8806397261719,3.81000597584613,2.17987715809748,86.771595175475,-10.975601882417,114.062821988731,-31.3982925691395,17.3698493934332,-0.881523448071661,617.994900559223,226.574595651689,265.642074962812,-27.4175653139064,1884.25184142636,-317.672961308871,185.736523115694,1.59388978849203,813.950055625093,-36.6934160271167,579.845087689578,-62.3898399203675
7.19757102850326,1.62661481665975,31.8709608494556,5.20801891426743,1.55724404685898,4.4873689159273,526.821180689986,9.52439812969481,923.192247738823,-38.5587228245624,3.87945447544805,-0.334756535455232,95.5868368795242,-15.414942004993,109.814461795646,-21.606607134122,22.8610727304477,-3.79583443068964,636.042900288779,224.291575250452,273.749547414365,-30.1352636424145,1906.40847565316,-319.443424258772,189.961170035405,0.400919057957311,827.496337829729,-41.3443100089703,596.529627346569,-65.1163988045762
0.758347757979164,4.05056987338317,37.6580065283305,-1.25211967462197,3.85203480112969,3.00553729264379,522.548278557347,4.54383275168372,894.82394873553,-34.9280995974905,-0.775047818999621,3.99304968188405,109.77597247847,-21.8227588572147,101.677394910812,-19.5677832492129,24.6931760154801,-3.84560727927763,605.819991029839,225.67573814727,267.300102891772,-28.7649462752668,1842.81027972477,-298.897240010819,184.488863934285,1.10544914126458,812.02322572404,-38.0223031861892,567.145726233971,-60.100624534265
-4.22163108718766,8.12812507694388,35.0152150434701,4.20007811899604,6.30461455799964,-1.69606610667382,515.16574808718,15.7306676579227,893.044867979196,-33.5619382105085,2.88777094819451,2.09885321654482,101.870137510977,-15.1101986737182,110.222956132614,-23.3799029548549,28.9384257762895,-9.47010914508298,614.849493460009,223.68799256834,265.945210547475,-27.4986418325119,1850.64002001322,-309.625634074506,186.879302223145,0.403763391456199,810.341784369685,-36.2890210936163,569.807440282361,-60.2544507621654
4.94685025690626,2.39036576376394,27.1192484439528,5.04843254086974,5.28541589467492,1.27939462470643,527.353603403218,11.2082125157867,918.314209908124,-39.2574751192003,1.31989336432168,0.828893944357987,101.370131073683,-13.3670902351585,111.978520527508,-21.4500168204759,18.9796824686632,-2.90909028021106,627.501856368652,226.774032290832,272.045910330623,-29.6210235341682,1905.04299957488,-323.119990220789,190.900677006866,0.392036737324736,824.361308700935,-42.2011960089296,588.231747008531,-63.005719142017
2.98070060034957,1.33284838028129,34.7112204829274,0.455998073515529,4.53497394716794,2.35005761511435,508.956770444599,12.4553265520413,897.228128162249,-34.6426259334899,2.08264807331717,4.23054930791276,99.3125831700278,-12.509854252277,110.96245054391,-25.9374943016799,23.7446919597787,-5.40061694564397,606.985065886038,226.585380034189,267.634728430963,-28.0387220416361,1852.94525985097,-306.803010532339,186.699092348649,-0.237434951208857,813.634740929372,-38.8465585903172,562.127215131844,-59.564603193342
6.33118209042746,-0.709735417329316,37.7311156435458,-1.27491105007007,11.3432851196273,-1.90323660242298,519.054961978769,12.9999188597477,897.097775761522,-34.139137437436,-0.979101822601662,3.69013712201182,109.496250839599,-19.4495803966059,101.685533024195,-18.7903334829163,30.4335254301874,-8.22130656735405,614.300068947773,222.291421033193,266.182731312714,-27.8607194594346,1862.31755627921,-306.861222969183,186.86662433147,0.593205409010723,811.301454387281,-37.2801032177913,566.263155898009,-58.134994938461
2.14676028846977,1.79678073144292,24.7850752547848,3.63306895442099,1.45295661522638,1.63351088389662,518.689625821462,13.4054103482063,912.022896626621,-36.9188057555358,0.591229448641334,2.94655477446362,100.226527859785,-12.0191615765693,105.889117923706,-21.9559262947919,23.6080174857274,-5.93880256119248,629.162798048346,224.312129707632,273.208158254746,-30.4346825978196,1898.66057000463,-317.55011817447,190.843307434906,-0.503747490281361,824.215768324804,-40.4467720208518,583.935889819633,-63.057089508176
5.66447803747862,-1.68275031321195,36.6791371673777,1.7615589895512,5.39203145546671,0.174535924332493,519.196067596528,17.6132289815849,908.069567254828,-34.9771811894466,2.84022777441465,1.41873026209592,112.971100881586,-19.8965144151058,103.650834888565,-19.9176420107366,21.7188429734896,-3.81497579461729,607.80636687331,223.788045582226,268.060860137773,-28.4298094501209,1860.60534280938,-316.678471403642,187.509109080924,-0.0471264827289753,811.357593167509,-35.4468415257096,559.820166706,-59.1625740520778
4.13718552029904,-0.940734520946233,29.5003789339821,1.76990051443258,9.91359088285249,-0.591228028103917,522.099832915318,7.49250990444603,898.336379934731,-33.7148464777023,-1.65219885076647,5.00896826646004,102.598292800647,-17.3284435234537,103.50523316594,-18.3010493862942,23.6429572493223,-7.89908309580217,617.866603440616,221.19516095854,268.829963650968,-29.4748908206809,1887.28948942147,-326.842332949397,188.355339534882,-0.800926230540297,813.279506383223,-36.8033661168029,566.448446266154,-61.1397407920191
0.0886917640329774,3.55827574327804,40.6354244260791,-0.815969694583983,5.76518932650096,0.470967332309179,517.234455617943,15.4018553705159,915.840002075101,-36.9860519100366,6.54445775261115,-1.17597059345048,92.9820889333876,-9.93660657345502,113.69709596281,-27.5926308959487,16.1575204284225,0.0558021633506757,628.773286133222,224.377341520561,274.332166012264,-30.6165710811409,1899.7057947139,-317.011120258279,191.228462903458,-1.21761583690839,822.316601239372,-38.7190597934988,583.308198794749,-63.5596475798943
-1.53671676773609,3.91926812774075,44.3886635766211,-6.24476425067664,3.80421978553682,-0.788112096065113,515.746931756039,17.7845895958473,937.699462782809,-42.0276550239048,0.649816325847084,2.34486379763589,104.829643668964,-19.0282890068532,122.21096209385,-29.2929595388796,23.154332400146,-4.517150860908,633.541584397606,221.406388653427,275.187482748717,-30.5210450378543,1898.15511952483,-325.015638881507,190.865681458106,-0.0266478751529564,821.29964032757,-37.8828755173248,566.00092779414,-60.1537029816611
-3.15288611944226,8.40379214116431,28.7759036274912,2.23363186794505,6.0177765809533,-1.16431294769619,519.119738233671,11.1233476073902,899.748740801625,-35.1795715911201,2.03622964468769,2.4775435727097,102.334619354694,-15.8694405239909,108.687849077537,-19.8860806777286,25.3834603152102,-8.9240743024576,613.740800861713,222.56560043415,269.705813840542,-29.1967632700308,1874.21675450368,-310.061814211999,188.671128225472,0.130071293277041,815.502706917591,-38.2839088168062,561.803879977396,-58.5133085470972
5.05388186599363,0.102447536147638,35.4960561586345,2.00839511439419,2.23116568589703,3.99889933732415,503.893281416537,22.330146913768,911.576139637556,-40.3188530933888,4.49942414099196,1.11410854115231,92.0815336794487,-5.99217532062478,98.1319582932895,-14.9078982509642,17.9628086695844,-1.11315112017688,627.280850157426,221.824668748673,272.109621295945,-29.7802301816053,1902.62749528511,-326.174017660921,191.248042420365,-0.545632116147161,818.026740874931,-36.9186526059397,579.821808340177,-64.7699575760536
7.64834170132925,0.324924849207481,35.7167673031294,0.502700762956956,13.7116755729149,-1.81583550498344,534.913603364259,4.16954567267403,932.16818067938,-41.4530818181106,-0.0231970487824754,2.61776854345639,100.577854690093,-12.2460281529968,107.766392707635,-19.1750705276177,22.5024323217363,-4.7258470391991,639.279758853434,225.579037529795,278.498691422166,-31.9085523803965,1924.4569816023,-328.931904285433,194.566384165327,-0.508595049187132,836.971911202396,-43.2128236669252,594.446528117662,-64.7700089761176
0.309218830028825,2.16387581022027,34.4916532895731,0.216008181692529,7.02354155754878,0.0526155132328743,520.305288555262,15.1885150076486,904.644648020386,-37.7884100225643,-1.27654333522101,2.93039407284473,101.560678619021,-15.0738695486291,112.402997732699,-27.5496875022844,24.0746797605242,-4.0672848715805,611.645440854949,223.45516856945,272.361546941382,-30.4991378707421,1866.36457692604,-314.859027062273,191.912038701056,-2.05095988931722,816.217152950454,-38.4186868305591,566.982170704983,-60.6861299732217
9.62830048381973,1.77263010617372,30.8626304658231,7.31800761909955,-0.441425134109192,4.67396768916668,521.231881121513,14.958967951488,905.901586330957,-35.9716631089303,1.93938565352411,0.48514752954719,102.422141386186,-19.4173864845273,106.633244149849,-18.7848011426826,21.955347159651,-6.30437146075093,623.217187331182,223.666901782267,272.493167640697,-30.2254779648108,1894.40418595007,-324.199533753734,192.146582861471,-1.04185164334254,821.94444973627,-38.5158167823851,575.108846289012,-61.7264923969712
1.39778488661717,2.09672555095522,29.1484573310084,5.53129828789242,2.98299385373249,2.86183957664472,523.908822034045,12.3288834034424,930.560637534804,-42.4068905393359,7.00976804550877,0.603601115057868,96.9087746255085,-13.961539511612,105.44177167633,-22.9238298047654,24.1710384645433,-7.06647941242122,638.487536604434,226.268828196712,277.132756648275,-32.1512257637612,1920.25214904508,-324.21773179607,196.439486132076,-1.46607240919004,833.966785802675,-40.7328945609023,590.797504123322,-65.6334165138469
5.7520897084648,0.16397914695977,39.6422422894726,2.28910263277465,9.66064596020518,-1.96987108997396,521.262069700791,10.0586906199778,902.840163264853,-33.1770588355163,0.681798205969875,2.76542175827401,96.0970591579716,-13.3005268297926,104.812948751199,-23.1300380392607,23.0014025000924,-2.47527082037184,616.284780933784,223.941875179023,275.181249845514,-31.2057161572777,1890.66741133423,-319.432304188608,190.432962856655,-0.451648789304005,822.651281524723,-40.3245539193706,564.35967740459,-59.2534393136154
2.94687079370336,1.39230240099032,30.5808999552298,1.26904312858423,-0.0776021600344032,1.84166397461601,527.167242935873,5.22076840596452,910.625788664423,-37.1063583607166,6.06819423877017,0.531768457630506,103.956228483858,-19.7026068442362,108.980890704861,-21.7674709011186,21.8742689542654,-4.62341475412912,621.242011229263,225.027469752416,274.782579669495,-30.4408224129145,1914.24865016853,-326.476323065088,191.275806384768,-0.295491044543416,824.724599088583,-39.8197168237727,573.435574002274,-61.5266409526756
1.8830487944526,0.926179379723251,35.4249768562105,2.09955477302895,5.23607353763,1.05172310977559,524.295061497884,13.4814657226202,933.639547425871,-41.8424658650102,-0.67587338650141,3.92785033972309,104.139291440884,-17.3178129231071,104.081668433668,-19.4577987439191,23.8294536317688,-7.37821893186713,638.197874841631,226.769522710983,280.160841150646,-33.0643029362921,1957.05563758533,-340.781183618216,196.706077643232,-1.11530156729427,839.152431081252,-41.9100256931925,591.959724900392,-66.0505805752817
2.83495721045487,0.668370344569688,35.1642932380084,5.94021275373834,13.8460264539695,-2.19567735139927,521.537290410685,16.3258375033142,913.260077240619,-35.46774653135,3.29602671637138,0.413955433361992,93.5645967093427,-9.23221996247455,109.178856543132,-23.9865893643636,20.3496796567444,-5.58947411269996,615.182113716574,225.50318393732,277.069325084267,-31.9173034205858,1892.79610896099,-320.211219448093,193.026136912994,-1.73525873424346,822.640561175262,-37.6534485692667,563.270237112362,-60.0560976868459
4.66470480082754,0.840947650745426,35.8963572981659,-0.0501020159525173,-2.74045100413726,6.26415102972199,528.34180373041,12.388824183857,916.643285748968,-39.7215217648765,9.14181009981302,-2.81203862405306,103.937870548435,-17.2002238357967,103.850066070388,-20.062522794992,24.1304747827716,-4.31801071890478,623.215873055457,224.695691573112,276.427009387494,-31.9738839217384,1902.88162937214,-315.152611769043,192.487218296063,-1.062206733145,827.983363234706,-40.5742861089955,572.488823216298,-61.6865945250911
0.442791770522233,2.58805929418677,40.8206363234057,-2.36983253329029,8.18108251781669,-0.558500318649245,517.286103260387,16.0757798508993,935.267540046768,-41.7115598976104,5.54261087030483,2.13668246295998,105.883603890093,-16.7160734455285,110.104931727291,-23.0900822183879,27.2200896186861,-5.40495954891153,645.759217161324,220.309363212631,278.562224549292,-31.4040265683221,1930.87405990111,-324.018814591644,196.566698456939,-2.02914427604454,834.621443960759,-40.5837680959431,589.377929412217,-63.132638692873
6.63843616561323,-1.11467286618821,34.1633171026498,3.44818476919867,7.69447120396701,-1.65877146077195,526.710937729298,11.5318513827286,933.313929067066,-41.5284811533736,4.16230963033134,-0.380328106203255,96.3984972036167,-9.74788015236957,117.472106104387,-28.8741848322396,17.2551626244586,-3.59244020089092,620.776561321438,223.738527456178,276.258096973689,-31.9923303080531,1892.4195457358,-324.295504568494,193.451416493288,-1.36953630558888,822.44087414545,-40.0514989089778,566.5124947802,-60.7332583492122
3.77465855182541,2.40136262403154,27.2349882355327,6.23800956045946,4.67703201672988,1.07594919725076,521.860225995175,7.65619761800685,910.54266954686,-37.7493578081743,-0.696773976193517,1.83639308262051,99.5953483431255,-13.8485090835607,112.174768984495,-27.4046905634238,19.8522830226387,-2.15254490592307,618.203434830587,225.557720978433,272.871791283901,-31.3645294200127,1890.65959734689,-320.025081149561,191.949020922471,-1.99331544578987,818.062142215207,-37.8466896883744,564.922151283575,-59.4636559805895
-0.21060873514375,3.42754098393994,36.6779483463514,1.76610830513246,10.2622119252845,-1.45361465019471,527.901845336048,9.89367456191633,928.520568456168,-41.8232493670974,0.257832510836761,2.65470344151509,101.830517545965,-12.2343137156651,109.929889774721,-26.3303160886321,25.2605902352553,-6.86164370602214,634.546622131321,224.515041441712,275.492389167288,-30.4466030903794,1933.74857961801,-328.200748749751,194.731532962891,-1.518678195149,831.25048291592,-41.3664848881074,584.175302453967,-65.2357038357327
2.94966498469825,0.660785599723385,43.3871744621071,-1.77243366238684,5.47892975706579,-0.00110179352980971,532.782900676768,10.1188768130125,942.928715139218,-42.3250732531404,4.59649610867132,-1.35317129910408,97.3565589393446,-8.46208411901819,110.450272445495,-22.7873456896819,21.4881315092139,-4.13487370387578,628.585862601438,223.765562031544,274.416326192041,-30.7942439781945,1885.01463933413,-311.47465811926,191.27597468858,-0.344011383108847,820.71256104001,-39.1707576224609,565.782913897372,-61.042799814475
0.701647813190844,2.95815495875767,28.4033276865857,2.81126945799857,9.68153013703806,0.830727167407717,525.996593734694,5.73844852086745,908.016019654633,-35.6656802498732,1.03853169208565,1.84513088530567,109.437765850693,-20.5566046766684,113.934189303286,-25.0794302400754,25.7244033295663,-5.72930461232122,619.744876674262,223.089251024762,271.062152383901,-30.7909019205804,1865.27011576053,-308.68105505487,190.483287572994,-0.36005179844817,814.099378239527,-38.6007327881731,562.007804518103,-57.3457115472107
4.29054028662697,0.588300638384033,35.9871641692028,0.973631721403069,8.77507509137259,-1.07745141636,529.520714622242,5.98566083376338,914.344243543176,-37.6466730472244,5.53646335104002,0.0771872020698034,98.2997755984673,-8.84670773574831,118.514909942896,-29.2331969038493,22.5291979466063,-3.50380371493664,628.824826958114,225.856140972973,271.216424722315,-29.878876818106,1912.1047355706,-334.911010423573,192.095624670189,-1.18257468931319,822.093171958663,-39.8683811932998,577.642658140683,-62.9513344476618
7.44878451729031,-1.60920072291269,35.95640184193,-5.47554732974233,3.3388267308099,2.79125068821032,524.937130958258,14.459678479603,935.426266149127,-41.394878545022,1.62597417088563,1.93774522236492,104.190850174308,-16.8898958129168,115.05860530332,-27.218541902051,21.3018396488212,-3.67947656657272,637.720427161036,224.671585129918,272.520484530121,-30.032079268854,1893.50473870893,-321.515149252953,190.497246031191,-0.652255580692914,819.541452155875,-38.4155234376494,568.061971781019,-62.5071707321781
1.39119979165288,1.90710534350503,32.2265101907545,4.24372205454237,6.1073482841628,-0.924433551390537,520.489811917154,9.71452334906316,905.724907956318,-35.5417361968737,-0.0378307173969226,2.0997204116043,94.3541543498866,-9.04047733894132,113.130520672335,-24.8813768223229,21.0288859116111,-5.85850748254854,618.962946535819,224.853057068783,267.250060987755,-30.0183370603697,1877.20493564597,-312.50923587197,188.525985024056,0.132267672170851,814.218520430862,-38.0996663695447,565.839524712507,-62.9569349986324
1.62151097001628,2.36939588180704,33.5184004329457,0.625417368217571,3.85064373581033,4.36997895654466,523.275075734343,13.8611393582254,912.683669173791,-39.1017796868084,4.51668930617264,0.17022850868866,98.0078209601177,-13.0578539565022,112.073537453988,-27.7616952871379,20.8696082463488,-4.76689619626413,629.245619848293,223.834445257053,267.565446307197,-28.3552460396967,1909.5627308164,-318.142256449535,190.59696159644,-0.187423266808271,816.513306343188,-36.1875096309894,577.234525495395,-62.411285169281
2.71590728649279,-0.861825754343715,29.679977131699,6.04113243332991,4.49215647395181,-0.0850869231231259,539.210887541234,4.31728963503481,936.197276178686,-40.653579036629,-0.924409438017198,3.29731101600526,94.0192215423837,-15.3447107316713,112.801041138136,-25.4391815021421,20.2575063833026,-2.28622550448638,634.868700195918,224.038668774715,269.962998877343,-29.4759148081381,1887.89079603655,-319.610214934981,191.003146959104,-0.912704564385872,817.116959920023,-38.4099549377264,564.056572689383,-60.0612143918809
-0.545351221880205,3.44078969988539,33.9178630737927,5.64618617491485,5.37002723820664,0.940302822740908,522.913343759088,7.01635794553708,901.737302167612,-34.6439876144721,8.31018510250135,-1.34918724763997,106.453434105268,-22.4267955238751,117.098814132852,-25.9876597306211,14.784287653473,0.38008201608652,620.557009943915,224.104443364886,264.074284630559,-27.513211906887,1864.74563748193,-309.180410756487,187.557575035139,0.478829092271892,813.985649914588,-39.2883634779657,562.544351642845,-59.1410090981264
3.89817682188234,1.17442510990942,30.1430158818256,2.46581307521316,9.94877623546022,-1.50834559794029,517.778967824306,13.809856467941,911.400705338724,-36.4182178526512,4.03538030779829,0.562994535353082,96.8856853531004,-15.2873780727949,104.628643986924,-23.9786005996269,22.3892456804835,-3.7789559840474,629.024128230789,224.689238448602,266.587031698262,-28.717111334772,1911.36950306178,-324.545749563634,190.131074385974,0.07715705535492,816.608849951088,-37.3758820718083,580.188818142691,-64.2584426434095
2.58701914852036,1.86722504063584,34.8019109916538,3.57724620890574,6.99524821126882,0.406579714944971,515.543249960218,13.9490343612202,931.951203287909,-38.8549072519469,7.11957795406233,-1.87573564428001,91.6638932307084,-7.11887062847538,115.752712902492,-26.7659329403631,23.7704360904446,-2.9521447189484,645.621860163469,225.941655847434,269.704632458107,-28.6992946379573,1925.71168644673,-326.724663744116,191.911457213168,-1.10069861572992,825.3781412366,-39.3763784346498,579.559127454287,-63.6721186869898
0.111327221512915,4.69534456848672,36.3678623774559,4.43950595470441,1.77880586512634,2.14221317161577,513.845985059331,18.4733773997609,897.093418136982,-35.433086924213,3.38937139587332,0.654216357268728,99.8509814909608,-15.8924993944307,114.566347621539,-27.9358012244545,22.3064431295609,-1.33503973849644,613.677460572137,224.187869365097,263.776281357791,-27.8710965506095,1855.77660034416,-299.405994143213,187.339878680771,0.0469159773921129,810.009434946502,-36.7692061153878,560.776442325893,-60.3269481537308
0.999153721399782,0.92850987019231,33.2638488079997,1.30286888984309,1.74878260782702,3.12379087505031,523.067677484368,12.2750320280124,904.127378914704,-35.8335664625435,4.25493305839993,-0.428064457517672,95.0098133350738,-13.7011004369935,114.100934964986,-26.8273629120385,22.6623420174019,-5.9332269416754,623.164940787991,224.783366486968,262.551188115607,-27.086293841637,1876.36198056759,-306.271934341802,188.137180150966,0.248945620471915,812.242222896045,-37.0610391462386,574.078823145757,-64.2152976581547
6.24797543167029,-1.93965516157326,34.0862586194538,2.65158653337722,0.924895602172041,1.05226108958632,536.4463480797,6.8603105779424,925.684716869909,-37.3687003531514,5.7416745426372,-1.69229096315372,95.74572010689,-12.8467385989322,112.910562622816,-25.2692361355317,21.1195447965051,-2.24065457515482,642.380045123665,223.333436089227,270.140149835318,-28.2170775969945,1923.63435122915,-336.894006137733,190.99853148119,-0.126105710636037,824.65469740022,-38.632349514529,592.897881422054,-67.1120387275096
3.80012471222404,-0.178101910137734,31.9341377820308,1.60286689751609,1.81649839400718,4.38267314991351,522.371357705585,11.0974198475242,901.767225617074,-35.8508058781973,7.86196514176072,-2.61904731408035,103.024665812593,-16.0978915473922,107.748492246852,-24.2295234491841,15.9804641654805,0.326960759750359,614.328908200334,221.376639441326,264.971017693847,-27.7706462349756,1853.88606737992,-307.926455733116,185.35737988961,0.98833488526436,806.070545726514,-37.6917915673139,561.272575544957,-60.6811640417077
0.191772661500332,2.47641126085479,39.5791145451549,0.339501648671972,2.19771552439695,4.48809339842726,521.988579422255,11.1186252230449,905.084978584141,-37.3676639595966,2.67146061768451,0.81581161415587,97.0009749555034,-11.841153008116,120.269331790923,-28.5686194208364,21.083600869779,-6.34252269823108,619.361345412521,225.813426071231,262.014861819387,-26.7534193780772,1870.3040130785,-309.886549137952,185.614354873136,1.71039718637378,807.889057936001,-34.3351919440015,570.482057486806,-62.2410833378881
6.06765379507862,0.322578269199012,28.567282816429,8.62825753000833,-0.788889461028694,5.65990067229053,527.449306834781,13.7571881928077,928.300990384899,-38.3358570380929,1.58139441813996,2.76400251744441,100.905237720921,-16.9648253491546,110.359140110742,-26.2418439070159,19.1581019810536,-3.92110670082486,637.77495474073,226.830656842878,267.549257223035,-28.4239411001513,1921.98519943039,-331.651382377647,190.898566309581,0.49138521049079,822.926386167968,-38.7574740600441,590.539025222359,-68.4225628572867
3.69147057506302,0.417695547158919,36.3910242758765,3.92706436973713,6.90776599988932,2.00464602335876,537.519185254064,-2.33952073573038,903.055527334297,-35.6005807742615,3.73088275652992,2.52141688646623,105.072064448589,-15.816267345167,109.376990047576,-26.1099015460611,27.858402520823,-10.0154335120716,616.004384191259,224.136797057713,264.517375231786,-27.9685376901707,1855.24747759311,-305.537893933777,185.057099643172,1.59817204239352,809.317605368022,-36.1994753660516,560.63071304727,-60.752278428885
6.71531582827958,-0.739148455052084,27.0230972762622,7.79299400718461,13.7454570746847,-4.69766894039853,519.574882243443,5.90204580460784,911.095184142416,-38.305767814741,-0.53169035876184,4.88895924602388,97.0207568591334,-16.8521052120439,114.712820291025,-28.0960029647341,18.8958430551979,-0.643226541378049,627.154275873371,222.840385147838,263.49427486046,-26.6420565753737,1883.78520846719,-317.990990018219,187.204604312016,1.06605838719264,812.463008738053,-36.7917600009434,566.273498929566,-59.619912860404
4.21805913692217,1.60029301002299,25.8026910057678,9.41973159483624,9.14963036383215,0.888807458709567,543.465400867276,3.89367044565135,931.838240987533,-40.5373802599569,2.02828089970835,2.47178258383449,101.710323759798,-16.2467354940575,112.023255875894,-24.8604954417355,27.2252809741517,-6.43238621388121,642.00616911805,224.743918637996,268.395382853554,-28.3809393347919,1913.12325359259,-318.076589764693,191.257200982448,0.472400916829539,825.748213774811,-40.9203506439993,586.239289238429,-65.0960203925461
0.159262391973204,3.12000416795794,34.474311832809,0.546315204469552,3.15651959973226,5.61640498193171,517.567741961061,21.1671732343642,911.538547971894,-37.0837084853655,3.43048785890599,1.77496591068501,98.7682603698233,-13.7782862628041,117.804582187458,-27.1971520042366,23.4108663761794,-4.25870235935575,620.250884127441,222.469770976214,263.830953918024,-27.0689321742542,1866.56854998324,-300.982188451563,186.033235547819,0.563293559568189,806.957155097321,-34.6145857548263,564.357249731596,-62.067073789756
7.84615951551257,-1.36317149674032,29.5972695671826,3.8333640505169,6.26816088286307,4.05212851918695,525.919899797755,10.5810945104541,915.447055735511,-37.0984683001281,-0.00911135080554139,1.61277221223685,107.891310261651,-18.8256177618854,102.914499140886,-22.8202834274952,21.71219668023,-3.04734417816352,626.238745700519,227.022720391224,264.150465511935,-27.1143858016655,1878.07568790158,-306.464212653538,187.028278242719,0.829862495054152,811.765793412831,-36.6665469841894,571.154582484771,-62.633578338397
