572.376291212305,-53.5182376899475,1572.79537111523,-205.112005758611,1378.32828128508,-142.230171206951,656.353422883936,-82.407722604448,480.097885084276,-5.46843447842989,321.680093520397,-38.2957997090273,2097.70665913889,-145.350324523117,276.313988478454,-39.351767846256,669.28605246562,-64.9927218201512,1864.79771207786,159.675413497852,561.804302503044,-79.7890542667306,390.119685106459,-33.7227757333084,872.283900597226,51.3684104746857,614.836455184547,-15.9422280811715,586.236701270337,-65.3449223467799
573.551323808836,-49.5380038046328,1559.44504748614,-198.870064866051,1372.47086763872,-139.200098046545,654.530372651571,-82.0088931504212,473.398597418535,-4.2666326757998,320.52605900655,-37.8277531976354,2077.50533016738,-140.508967586003,274.126077921928,-38.9560340142719,653.791942744562,-62.6760273231754,1841.80695689072,162.947289682131,546.56570729764,-78.254286797086,370.38599947807,-30.6992861619251,851.135026179237,54.9546814488394,600.571894678806,-13.8857616451086,577.669898296773,-64.0969790513369
582.589223203425,-52.7577647032318,1575.33188199032,-195.12606328583,1383.71752100604,-141.746964720641,656.988558113337,-80.4043537185957,480.030604672346,-5.45958546068989,322.297630477165,-38.2864286144865,2089.04842785188,-138.929667951742,276.227353071968,-39.3106226676652,660.283733804133,-62.350872792188,1858.11201445185,161.801238000048,557.477806813622,-78.7886422656297,383.547689692583,-32.9098850605487,867.035662764826,51.8065940001621,610.214040050808,-15.4653500815433,582.501609605052,-65.1654095651317
583.888745928048,-50.9440110940029,1602.53768392619,-196.768642786791,1402.07006947242,-143.575127985398,671.015017980396,-84.6205494922927,492.290912747081,-7.1430929536111,327.012224540127,-39.5024409135424,2134.31197163129,-146.853548889564,280.8122152013,-40.2821695058892,686.055777435036,-69.0991487038434,1896.14304309314,159.624398449779,575.236790521781,-83.3230968576603,396.242161612381,-34.8815914077292,879.557209258452,50.0767931076502,616.849812447553,-16.6776042956796,584.949093322237,-65.1230035985744
581.174220959604,-50.2631801943056,1597.92800991787,-197.437460625654,1411.24876261603,-152.241115940644,665.744109711512,-83.8927377427966,485.370376461452,-6.44950354031004,327.230741847854,-40.4537752743465,2115.67011012218,-144.762389447773,278.899505606397,-39.8525828777466,672.50664014339,-65.7148776507156,1877.62703617307,159.403972455346,561.932759001206,-79.7618440546529,384.704768900492,-32.7196181042008,872.464516326925,51.6161654386159,613.438108338329,-16.1826514034952,582.547787226064,-64.7454328921962
592.48794752862,-54.8785497809373,1615.86109103297,-198.584863124718,1433.0894094261,-160.6523634305,673.876587197931,-85.8766146895411,491.451270102391,-7.01839280502439,328.393648258912,-39.9546296856919,2133.40919249109,-148.406833982211,280.599090412686,-40.0515786201836,682.879673682392,-67.4238732366498,1901.48728518221,153.918125965335,573.767625414759,-82.7382164552614,399.398479995905,-35.1367017748897,887.446744749407,50.1745954396656,628.383863185698,-18.067522956629,590.949169812355,-66.5128629275385
600.179455256977,-52.4597941381892,1658.03530399171,-216.112543270219,1465.26283813675,-166.215496627281,690.384096724643,-90.7938257701009,500.511816274103,-8.23431666274198,332.192170639369,-40.6758402821937,2158.06433729559,-153.156077045437,283.658379762319,-41.019181927762,687.550742314506,-67.4788471175398,1906.5983020482,158.295209946156,562.624876466093,-79.817932082908,382.461743173868,-33.018557505399,879.797285626974,49.3181857558507,617.472898491722,-17.1160696671187,584.925165989363,-65.1823546813331
599.780744681951,-60.1065546411659,1643.75768017329,-203.311481533299,1457.44939910626,-163.383846465289,686.857557448757,-88.4972544688961,497.723546620236,-7.75590174693488,335.787573679744,-42.5862414930824,2161.01170788219,-151.75146493951,284.40697753722,-40.9802267815397,689.438060229685,-68.1606202227454,1915.88393926141,158.089170490301,578.034926743192,-83.3985776329905,393.580432957528,-34.3378422583375,896.690309508212,47.9983761990221,627.720755762162,-18.0276317119008,592.78898280216,-66.9131860435682
605.706122777185,-59.6549690852898,1668.71591438818,-210.358374707614,1457.32831301256,-157.79375173272,694.099034995317,-90.8138238379575,502.910333665519,-8.14397700955058,336.951059063235,-41.923598633919,2185.11078477452,-157.851119261515,286.759391382613,-41.3293144509894,703.966759372097,-70.881862497804,1938.06341578777,153.309292604274,593.020325955963,-87.2084502526568,413.434070371007,-37.8566511675923,910.033044832254,45.6606215100353,644.801935769514,-20.1391130594762,599.432678625876,-67.9609738347817
619.702370743239,-61.0757900815796,1707.1476420049,-227.560583738889,1487.69105706445,-164.179155570962,702.809216416671,-92.6965629605589,500.008935195742,-7.67215182261331,340.255592552633,-41.6147700761928,2178.42459361141,-156.105872596631,287.606387595401,-41.3872022525329,698.479204060655,-70.81154272801,1944.22617161712,156.018178868999,579.760037330221,-83.6994797149334,391.328099996498,-34.583569759105,905.160055178566,51.741052410111,632.826808087259,-18.1981349034313,599.01843414747,-67.7176141781125
652.582659384988,-68.9269790602086,1750.7408302726,-220.31067589597,1567.13105907363,-175.707398711519,726.752360783014,-96.1288543410114,507.25616100922,-9.07121032056306,351.881452505754,-44.0854566930956,2200.37709003521,-161.329256031661,291.614214564822,-42.2747971228615,711.376273218501,-70.7000974725918,1979.36681496298,151.4997857217,598.529033461855,-88.773883235645,405.835291515107,-36.796548643279,924.05420834954,48.8725658211277,644.796389005118,-20.281625480149,606.202251374136,-68.2103297086917
638.101114774551,-59.8884267158514,1752.33650264038,-224.246473838641,1536.06115343217,-171.851698767699,721.693112073229,-93.3846668367846,513.39803615054,-9.85502459576728,349.106137907683,-42.9686296151629,2228.53474635929,-163.525613100227,294.191575741742,-42.8711097809394,728.594839347675,-75.850042236089,1994.74743082817,152.32542628865,614.875542967572,-90.6041814764367,427.462927713468,-40.6793036540533,945.034184477217,43.512039656616,663.524310598012,-23.1675204302814,613.827814644601,-70.3622239985475
635.102963092643,-62.1588993504815,1730.08687289167,-222.568104162475,1524.20935351555,-165.141905793927,714.113604073789,-91.9487498042591,504.567194953904,-9.07454553918002,347.392156420528,-43.6509445034752,2207.51915254478,-161.265780811878,291.866527092438,-42.1550875323476,715.660661172857,-73.882132266444,1972.03099704508,154.043937489909,596.514885627101,-87.8137599468479,405.033215555669,-36.6021877076565,924.973541000944,46.4209389323041,649.969519622824,-21.1164127845381,603.579557060658,-68.2103552945013
636.542321753741,-60.8243375475595,1730.43712223858,-226.946886631889,1530.59998921878,-171.728011906463,711.707926372834,-89.0714259534943,509.710904237004,-9.28628284194825,346.758853447072,-43.5967123138231,2221.69449528061,-163.882446591331,293.099280220082,-42.8145269463924,723.938431567405,-75.0184727298536,1983.98948797389,149.093147372882,605.884535790311,-89.482214515647,414.50818129476,-38.1139443714312,938.239799361688,42.4289611595068,657.391307112359,-21.5739311472303,607.577585369413,-69.3307978756982
645.183636717559,-69.8070872902011,1755.64026108082,-231.378061078554,1533.24536044945,-180.358441752997,723.490241913671,-95.8729304365844,516.155901638477,-9.94594638530164,346.834303094702,-42.4016910099719,2236.03367337815,-168.795864645793,294.963200872648,-43.2562680905822,727.611324212055,-76.6067569443235,1983.26246557335,153.044870190154,591.979643019073,-86.8011737965396,398.282637587427,-35.4663090211006,920.403407352521,46.2333124662011,647.227550017278,-20.9128516592476,601.734586300593,-68.5760082678242
631.272092516978,-57.4098143606825,1719.48837008429,-218.103205792442,1506.332519906,-169.382287816167,713.215690565475,-91.8849478096353,509.720223877213,-9.31586709269731,343.104458466443,-40.9373519749731,2222.65182637115,-164.458179434533,293.171690003017,-42.7568076508254,721.181194005266,-74.0782474884025,1971.96648411205,154.215141198076,600.902739891555,-88.63438281015,409.285921467623,-37.5912145138832,928.12492544722,45.1599160730161,654.334589048866,-21.5075386705587,604.554743111323,-68.7952512429216
625.202034110774,-56.1414363115948,1739.70420683297,-224.814187242833,1518.57449021516,-166.964024830584,718.11774473444,-93.6132617364976,514.915174066379,-10.5053668683849,347.860518166732,-43.915959826787,2239.77899807269,-168.163990410076,294.867814830828,-43.3566474825486,732.007266411314,-75.2589525905802,1991.24361884055,155.248898643268,614.258552282012,-89.547933277218,426.362751000104,-40.5538222199295,943.169644726,44.7097419626388,668.686736501637,-23.3702298833679,610.886371337102,-70.0796177659201
628.274226934274,-59.8798165461341,1720.54877337538,-223.370519122592,1521.06772172526,-166.158125182167,712.415219028455,-91.122005605256,506.916393203563,-8.69617327604966,344.740599584314,-42.3455497511172,2218.57844742486,-165.296187740303,292.439477771089,-42.7024023061309,721.451289436772,-75.3486085011014,1975.55409239858,153.646712734495,598.781573170994,-86.9724593863236,409.482416149309,-37.282080986876,927.584847731283,46.7804478005018,656.528265272674,-21.6394157014655,606.025336360859,-68.9895384589584
637.922334543029,-62.6333336386139,1721.54310372029,-225.630323606532,1521.17933706283,-169.202330396893,715.727677691311,-95.1862976448527,511.160240206736,-9.13391199430102,345.974584500977,-43.9899512782271,2223.66206599343,-162.970857615126,293.171955555348,-42.8374691169002,727.588748798453,-76.03691272255,1983.80541216507,154.323920258512,607.294107133291,-89.3403307222443,417.818252637458,-38.3556942162198,935.844507842608,45.0370206829232,664.15921667822,-23.2178332592816,609.251927572469,-69.6447606602418
633.720153166389,-61.7538173223811,1717.7121672903,-225.091559152945,1511.88571545089,-166.689348066183,710.554113729516,-91.6358014115648,503.202791400548,-8.03609364835933,343.234710783804,-42.6153780497703,2204.97867699894,-162.573243769051,291.556350370475,-42.7740489751231,710.845112314822,-72.1317439380256,1965.49909392408,153.411466666689,588.743494950475,-85.4902552362685,398.336692798984,-35.2996398563155,919.829605211285,45.0357562810195,650.202053833706,-20.8280937548402,598.972849664921,-67.0341349629931
627.18838065796,-58.9115172449784,1719.45816880032,-223.962832498641,1526.91162930462,-185.484559038372,709.623553737145,-92.2826968359923,507.643929056538,-9.21230599160386,341.569470580795,-42.6613575613895,2212.28874068152,-163.717049795434,291.516932345424,-42.9257913336505,717.192589322374,-73.1511860370445,1972.78126826428,154.648683354054,598.416585629712,-87.6375553359343,408.624650210038,-37.0684939403541,920.481767014362,49.0472370764643,656.071189784989,-21.3303160338214,603.091544759292,-68.6456973883387
641.598820522135,-61.0608136663599,1743.20274153495,-230.735694936024,1521.35007992584,-167.327594487324,715.254024800835,-93.0917326501919,512.684761814524,-9.35026030769975,342.856887541452,-42.7845082396669,2223.85898059435,-166.678436267442,292.079694672845,-42.6325890257898,718.75390221399,-72.6332170132229,1976.66675773522,148.953531173409,584.831649285322,-84.3774731119154,393.462129309702,-34.3104699669741,911.674705866253,47.2022865683245,645.008652838655,-19.7742636775297,596.171135736275,-66.9963424377334
630.705229200195,-58.2259727900734,1701.17758145596,-218.632685746805,1498.03796810964,-161.11395667989,704.036261627212,-90.5448043043052,504.470969141554,-8.30493948069524,340.874355175018,-41.5519717696625,2199.08104571922,-162.707010520765,289.290154931082,-42.1709565417908,706.170582950108,-70.253722071662,1965.72249733732,149.426232155163,588.994822842948,-85.082524207347,400.546832100444,-35.5638742295773,914.964228859821,46.5525627595186,650.350449482542,-20.6246022596912,598.55729619822,-67.7955359897626
628.34973036119,-56.5804899291755,1691.99242374127,-215.399870029153,1488.10091560545,-160.340687523851,708.06125783632,-91.879392914451,508.387581595476,-8.84597836117349,342.332743960524,-42.1915537826914,2210.96304383986,-161.853326796561,291.301758076968,-42.7586999347693,721.253643589877,-75.6226160556292,1972.48979371527,155.490439418153,604.772224704755,-87.5247660285188,416.42915896535,-38.0418321199406,931.642604691186,46.074832769949,662.163350534123,-22.3048868034462,605.482520740173,-68.9300311200052
615.568712226737,-55.2302657527832,1691.09150420104,-223.095160875897,1474.46577033011,-161.110105161413,697.701597474861,-88.9360246877616,496.289360477529,-6.9394567528973,335.846416306798,-40.8259332314353,2174.19702731759,-157.071734675785,286.976878998184,-41.7973763377835,699.113020838631,-69.2627748990615,1948.26404588516,152.488712942552,580.522060160791,-83.1999055728642,395.580061772493,-34.2721165926703,908.693379051307,46.6769714135728,646.606599805345,-20.426265852565,594.892340550735,-66.805230146537
615.876494097735,-58.7420436336163,1685.61600893105,-213.465617350663,1493.61116774814,-170.077911574367,698.876784093839,-89.3539331644239,499.009647813003,-7.1915029756315,336.435636231866,-41.4910201011324,2180.99864815574,-158.140499919266,286.997911952351,-41.4827661363245,703.817272428854,-70.9477182228132,1951.30017828734,153.841386489498,590.694685132205,-86.3894612030099,402.971128126748,-35.3915942406654,913.032040428626,49.199654127691,651.738737471106,-20.8636791262155,599.346803570389,-67.8342365828192
623.057285205086,-56.7184477586431,1708.18120825175,-217.708885864875,1493.9828289113,-160.106364683973,708.666464818592,-91.6280094217459,500.613359044419,-7.43152147079603,336.317079498036,-40.3099312181038,2179.76870700567,-155.455397264278,287.707219254137,-41.9308742433924,701.226636939275,-71.2071891422093,1941.28133009255,152.992921542626,570.038466226239,-81.2236380912763,382.414897286968,-31.8306730216909,890.044759186465,51.5860889749131,636.209203466302,-18.2782805618622,588.924978497139,-65.6740844729076
621.038542909636,-64.0203273980515,1680.82724901412,-218.809489123274,1480.40335224128,-164.76959203905,694.383059835665,-88.3813184306936,491.442464160013,-6.12356962816077,334.233566068386,-41.2820015041654,2162.99325787263,-152.520117766774,284.921816650388,-41.1827638761184,693.186838779234,-68.78033949213,1929.64849203082,155.225913391944,571.571286873121,-80.5050952476147,388.176763133533,-32.9558832782959,894.366234026795,50.0590086030832,638.899667169963,-19.4278766593988,589.000351066648,-65.3134584258414
612.733738401,-56.7639016139322,1674.6029625768,-210.448496788402,1486.62828194581,-170.132918310415,701.633586513495,-91.6766453616253,496.149600906191,-7.09741638210047,335.821277014753,-41.0689330036439,2174.24462540256,-153.607276337386,286.232779318549,-41.503955353882,701.257116031936,-69.7299514359225,1946.59640393341,157.388220528719,589.841193308069,-86.1965743866249,403.467954981763,-35.3898717821006,909.749633953819,50.2400655674927,651.270604427472,-20.5702926605556,598.134230970827,-67.1342191115603
613.188364118404,-62.8357457097356,1652.23379982553,-207.159684143488,1478.4323762985,-164.400007387315,692.427199922663,-87.6467102541401,485.324721833891,-5.80739052154133,333.714799866527,-40.5599726740609,2142.71490336321,-147.482084634704,283.456614326954,-41.0122066528552,684.777800568227,-67.036343092582,1922.68029101584,152.030767412946,563.16251368544,-79.5828234211534,382.053662250035,-31.7267002018185,887.065413975608,52.1696175312175,635.123079704745,-19.1285361339724,586.545298482158,-64.9925961535994
612.243368167372,-61.8546049166107,1640.31470513561,-198.189005333713,1471.77534070691,-160.347705509007,696.12636785036,-90.5809784584391,487.798772890917,-6.32682464545185,334.726603306941,-41.7485915725727,2152.84032628759,-149.99671050213,282.828982161031,-40.2800370054965,686.382832855028,-65.7614588109782,1922.22788233086,160.909395852054,571.115630340747,-79.6259050963477,390.462903620009,-32.8753894691564,896.267457177741,50.5507709879952,640.172079150574,-19.2791887278028,591.347527376232,-65.8463806855739
619.985054532645,-58.8913151286486,1679.71135764576,-215.09447433506,1493.3870439132,-172.484600062557,704.691787818388,-91.23904600025,496.49672637535,-7.05592982894228,337.66913510879,-41.9286914806441,2193.54127084368,-158.875189794361,287.892435897501,-42.1583954846254,705.287692233044,-70.1459046677648,1951.09238578037,156.729014514539,592.671560654577,-86.8107296429244,409.634575391954,-36.6936945476838,915.195009280706,52.0479262681815,654.801653665761,-21.4342080281174,600.041283276427,-67.4705685657446
622.039722875113,-62.8962310472595,1656.15016695408,-203.972039094996,1469.57436399603,-154.679960846333,695.169569180924,-87.9584505044336,484.764503428656,-5.51765131142872,333.568417011225,-40.4930842685444,2162.56428223953,-151.488114637849,285.643674735382,-41.4968655603504,692.016024648194,-68.5513048529838,1927.22884213583,160.743209968299,569.073926590271,-80.585074033401,389.321847640242,-32.7392224023407,895.501479860581,53.0725516342331,640.285575238511,-19.0463982343098,590.005572943442,-65.2273000394954
619.725371057085,-59.3996097391649,1651.65248195881,-205.692029861187,1474.88690599756,-158.2281638581,704.362535162798,-91.8804886456289,488.118796011497,-6.23632139422497,335.758668362243,-42.112929807742,2183.70610588242,-160.178164166767,286.941695397446,-41.6272829149509,695.577332773083,-68.4729693016377,1948.56374561443,150.031213327815,578.199465102677,-82.5140748475779,398.622157211318,-34.6631897782307,904.527836893111,52.4854129798967,648.285978971577,-20.4702928546528,595.594883186062,-66.4105014134702
621.077624713592,-57.5897488920205,1701.77846041138,-226.953134080375,1509.75138837439,-167.921625947711,711.626687778145,-92.1830662682715,498.032040643698,-7.07137702811729,341.586764849179,-42.4366730087029,2216.26676754349,-163.163573101644,290.955314489874,-42.5952420482565,713.878063603559,-72.9950520137383,1963.09404879109,155.435988538672,576.233648841193,-82.6239234730648,391.381401094506,-32.9987705305343,899.096614652816,53.0392990970594,642.202131575321,-19.8676816601529,591.005696865946,-65.1321171725841
626.33768936797,-62.4913026629299,1678.58169243565,-219.697097321597,1485.42909459059,-162.201628806201,707.367751727141,-92.1974101072642,487.148961150369,-5.69787445195587,340.672539676391,-42.6083329451339,2190.13975417188,-160.562426777165,289.305140898316,-42.0307058546034,702.074158028258,-69.4381668102862,1946.76104102366,154.969129097439,570.319481375856,-80.3027550977474,392.396340722481,-33.5795432550523,901.224117784931,53.7773547808622,644.347645345508,-20.3250296337923,592.338730212254,-65.9812384623101
629.196851926257,-57.809016002048,1669.29153616676,-209.466587538606,1497.6123783546,-165.575144969223,710.59294719929,-91.9054375374695,492.033511742515,-6.75329936629588,339.142933210736,-40.3867927944153,2208.06304106855,-160.326702730432,290.898856655133,-42.5565053054117,710.766906415124,-71.4058221375949,1961.77279467222,157.392380008772,585.687662643753,-84.9986054100669,406.272922078489,-35.9066044365001,919.886786862711,50.6035416165281,657.820984149592,-22.0159692275887,600.680693904253,-67.8152377485061
633.091779060018,-63.5913592023227,1679.56819316081,-205.500025649273,1513.47136433773,-175.251090309293,712.259867113481,-92.5259391406489,483.64548423879,-5.12882022588905,340.926419783252,-42.0961967488317,2197.55695015889,-163.955361145098,290.415585173497,-42.6729579317022,700.464418873502,-70.6738100878374,1940.72641604278,156.745209629399,565.078378331888,-78.9823240707163,386.096679196482,-32.3132284719343,896.194925203178,56.588116103228,643.644036826425,-20.3054753055189,590.728264527207,-65.1910488308207
626.650750171526,-62.641355520383,1667.33910776216,-208.54414994714,1498.12953458488,-161.886737257802,709.63414220099,-91.7951039744491,485.872061687253,-5.69292561138204,342.326062718619,-42.5957197041726,2194.75068542459,-157.548470530421,290.482462463507,-42.5111951935005,706.524838490483,-71.710282863006,1952.11464965103,154.452454872387,575.560469066552,-82.611276257634,394.630995748296,-33.9718973621612,907.176070200223,53.6107089844131,649.567386997204,-20.845610514025,593.024016950601,-65.5291301244939
636.985978506967,-66.753067456434,1684.67277484598,-217.184397914845,1501.90470377336,-167.076299902726,715.420364573391,-93.0313644845338,494.185417670655,-6.65204227086907,347.766788444927,-45.2660771282999,2234.30925850729,-168.868458820074,293.918112769302,-43.2750933165268,723.206108871102,-73.8008464131686,1970.73751341461,157.18792009195,590.277460833149,-85.0471577125664,412.677647646097,-36.6707657516003,927.385570511693,51.3966928484354,662.284081810901,-22.8863981535854,599.030296226821,-66.4380388264106
625.435537988564,-62.5149996085104,1661.68812134421,-212.621078788966,1479.13415054374,-152.990047288885,707.672822107607,-92.3044361648219,482.570971191009,-5.81128988071737,339.825858107486,-42.2277356578213,2193.02097595416,-161.739288059284,290.494770309087,-42.2963187170945,707.156667283651,-71.5214049568177,1940.98067413822,159.041717870673,570.32045943114,-81.5022681606317,394.505319426232,-34.5180062907091,908.393718507923,52.1351480814134,649.07396257674,-20.8900468321224,591.130583414058,-65.3193728598693
626.841031998965,-61.7101206260863,1655.09987476869,-213.306750798636,1500.56596146847,-174.717082348665,705.201956732239,-91.1040415127448,486.304128358002,-6.53121039783164,340.861339124518,-42.3881038850125,2202.59246348858,-160.246307383829,291.343205322971,-42.8406140164693,710.524739252799,-72.2533992607196,1945.85074821287,158.186225024859,577.336846744321,-83.5146044302931,402.817658521291,-35.7809430562452,915.422337094427,52.9149409003582,655.356771773481,-21.6388425498283,595.109368119111,-66.02628273704
638.079435815262,-64.2581065429309,1691.83371969024,-221.585246095179,1487.53591504489,-152.580360253315,711.721383749165,-92.4535666250139,487.68888475032,-6.63191289591817,342.84480674885,-42.5295518231508,2200.94796381499,-162.80386464773,291.523348120503,-42.7196509923401,704.798972903223,-69.2055496463824,1936.85704210171,154.789765119261,559.64826624925,-80.5229489312674,384.818473283585,-33.0675268822528,897.729912036736,54.0583346559949,642.10050697327,-20.010260434255,586.215361425821,-64.8258954661197
617.143073617317,-57.7763127668223,1643.89493728154,-217.274467963705,1483.41923216632,-166.036126362889,696.898500239835,-87.3284916115117,480.207057194445,-6.45411373295033,338.965132571159,-42.0052847310682,2179.71402480402,-158.342607841665,289.01184626663,-42.3216518728911,699.903246042153,-69.862090924528,1925.18666896288,155.139001117597,561.158921958157,-81.3888146883304,390.146161817671,-33.7455166645389,898.850310787562,51.7799936142825,643.316529734513,-20.3522449160127,585.412633559704,-64.2162066397305
620.237267925121,-55.3132567301316,1650.10614411658,-213.525543940552,1476.01770422164,-163.027383626091,696.390014377978,-87.9289202987676,484.724111831696,-6.53684716814471,338.93040616406,-40.9299876587431,2189.71662507449,-159.872794527679,290.11867756645,-42.526942867734,710.197572320416,-72.048286034797,1937.0006238194,155.88402111798,575.068284122998,-82.6715769040773,405.067483983502,-36.0506274216594,913.448405573667,53.2394547403511,656.366222602104,-22.2438509326193,593.523628587896,-66.0822386742397
605.381597030135,-54.1521168208978,1633.36661985138,-218.613119794367,1466.56163115317,-152.873924097464,690.994121351425,-89.1079120209472,472.862981234887,-4.90440325737966,334.786195561694,-40.0727664114693,2153.16781463193,-155.069277543513,286.74055491203,-41.9449594889219,692.488284085549,-68.1771473869708,1908.11275920301,155.288985069906,551.021050235185,-77.3584644410729,384.786270413427,-33.0925262876098,894.314653853888,53.1375697007079,639.691078664272,-20.5752470499344,582.771964616441,-64.2266225771389
602.229989240462,-51.0645135861152,1613.3515189287,-207.361473418463,1465.40685410837,-169.296958416887,690.956052945757,-89.5603983567286,474.766039478205,-4.94056142252169,334.600429085527,-40.7251863750276,2150.26116900601,-154.071168928246,286.05724459779,-41.6898515289534,696.433573277479,-69.8089183548747,1910.77492482447,156.787411651299,557.931826139598,-79.7211242858678,392.673601535425,-33.8652846042093,899.731737071724,52.2945668323841,643.365478014799,-20.0540364947731,585.762485765005,-64.5847453268672
610.664101067161,-56.7652080392097,1629.85566462747,-203.066202749087,1466.94891391301,-161.115181297791,698.037177335256,-90.4775434386117,484.326717223348,-6.65583174669796,336.352386207438,-40.2831080367964,2184.19699401961,-160.504313482996,289.19019796015,-42.1797079460363,709.561024134569,-71.1608775906672,1936.21522480275,151.830509511666,574.044028634458,-81.3557500534258,407.75002909623,-36.7484964728804,915.235986939077,49.8535065352014,653.700135056689,-22.1432684180008,592.024298905847,-66.0077937913616
607.478029783199,-61.3257691763707,1621.17261621463,-209.762990891355,1460.79150731903,-158.670369665726,689.986016318905,-88.784143491555,473.229229449377,-5.14972805482549,333.729945915717,-40.6626741402403,2146.95905599478,-157.070341093186,284.667223129895,-40.9251885851112,693.934434311382,-70.228248858206,1899.91369910573,161.813608465502,555.501540829773,-79.912307881198,388.979263438169,-33.2234716399143,896.906577120392,51.5844213708134,640.244019773322,-20.296512131392,583.540956879823,-64.070717273762
608.707175715775,-55.5601226123533,1632.52074146476,-215.772197424392,1464.20708050471,-160.133637133115,693.950408421214,-90.0168007211029,476.865558665091,-5.15019240058287,334.678731526955,-41.1156240599272,2147.59103388621,-152.45955350137,285.583631807838,-41.2763242293019,696.825481033325,-69.2976784311783,1915.26270738874,155.209308736668,563.14903846713,-81.4460778477878,397.585245363417,-34.6352598996146,904.320407929697,50.5823689349566,646.685213944713,-20.8349409918365,590.280364758095,-65.7786550475032
631.021620506683,-70.5251101800066,1632.93454987563,-212.628748072474,1493.37832292961,-173.022444358574,701.062819180187,-91.6124421368444,482.728632679152,-6.8828510146253,335.295691097726,-41.9198486994643,2153.08396359857,-152.578047831143,287.016862363513,-41.8218443326358,697.525570940213,-70.093347857917,1911.77871114773,158.060138655585,551.361218010025,-79.9572089891787,381.611561273179,-32.5949462911368,887.822354221031,53.1459538405976,634.348310016373,-19.2740705027964,582.967014723649,-64.1726285232698
611.209770494808,-65.4552292340715,1612.07448940009,-204.661082884863,1467.63036666661,-165.201859043584,693.31999929352,-90.6237183740268,475.094551864445,-5.37887137058032,333.981362316283,-41.5203790155279,2134.73655674029,-148.681140171645,284.840937097225,-41.2912386442079,690.948720591413,-67.9135410418251,1900.7481150713,159.760571455932,553.502701582391,-79.6588263501768,386.826600105102,-32.9914257793487,894.764584234702,52.4100984170232,638.481888454893,-19.6475078752825,586.377425535121,-65.5882022762387
625.840240308067,-66.4679821197142,1618.43740587623,-214.095406513768,1486.0125017202,-171.296652261306,699.973113327289,-92.3195474051829,481.681264406374,-6.92980228749588,335.589593193051,-40.8247780403835,2163.70967450701,-160.615740104973,287.271129664069,-42.1645257756788,705.23784431735,-72.4503149704253,1928.18055823096,151.844135592042,565.925247480043,-80.8581414649841,403.20682890895,-36.1570927275464,912.050663242468,49.222926611413,651.131906340502,-21.6303353848648,595.772695681007,-67.1854992420514
614.049878161716,-61.1205391697198,1626.39878678677,-221.08298885571,1470.44135828603,-159.210067884588,697.040242221979,-91.3715454426067,472.461958801929,-5.87680816729983,333.598074457947,-40.8855460499993,2135.091859161,-153.399862658033,284.597793737798,-41.4561100177475,688.03789248309,-68.0140424495326,1899.67848164031,160.104221944672,547.817958125567,-76.6320799311444,383.60151736922,-33.0599702369889,891.759817020357,51.9919307070212,636.294433610523,-20.2316916575673,586.381565319118,-65.6943788172776
616.57835778269,-62.1476749705299,1607.29680455961,-202.335889849881,1478.44664466521,-160.755726710715,695.714427580463,-89.3621172022949,476.128527080435,-6.1193242591396,335.671020153672,-40.9265103262856,2146.72722117505,-154.264598792852,285.598188139364,-41.6903919477973,694.907559458133,-70.3597415852103,1912.7303043262,155.119582848773,558.995946010084,-80.0675395851277,392.047812006797,-33.9582490352035,903.48719742717,50.0202756211104,642.506874078138,-20.9443984824024,591.25306343402,-65.6706376988399
626.365526981445,-65.8137644512689,1654.78814051737,-219.872412640591,1493.63185858763,-167.473683652752,704.638733471918,-91.0436903200684,486.384601211901,-7.35793589241989,338.101620097399,-41.6702511037004,2172.26553408336,-155.432922438824,288.691153064857,-42.2754256119812,707.039155207711,-71.6865399773648,1932.8677453419,154.509379354165,556.065315044716,-77.5282691874572,387.843239707932,-33.4418216611901,902.469015716238,49.788100563556,636.838482229597,-19.8735890267656,588.375110920174,-65.6583916907093
620.484872027136,-63.8648553117888,1611.39198283481,-205.770243308484,1495.0653492804,-172.84205841368,700.368755121799,-90.8051194808121,477.308669882842,-6.85048995988709,336.105141096354,-41.5884123494329,2154.41458472474,-156.311954042648,286.049959250073,-41.7742784764785,695.753089380881,-69.3664904446707,1915.58441320782,155.234248711853,557.094499568229,-81.0586936893714,386.853317343398,-32.9611972868773,907.030416206009,47.0045391791463,637.362501795744,-19.8311624257003,589.578604783547,-66.1423879428807
622.114637465678,-60.2138949835872,1638.20497800947,-214.324952735192,1485.85046338866,-166.823881316502,706.718569891829,-94.5175460284431,483.084783590172,-7.41185535094901,339.221254321659,-43.1152401006153,2170.18237914989,-159.7630475122,288.346575924124,-42.6785551658233,704.790137297356,-71.9320040716284,1931.88637289837,155.50494074802,569.441156237137,-82.7169478818878,401.116310859662,-35.921272913299,922.001387410394,48.0391546444574,650.288214018172,-22.1131647136658,598.192178685635,-67.5593056361889
624.223091651814,-60.9867029817003,1644.30812986811,-212.065002728803,1498.73664025542,-168.827413989056,707.400315288444,-92.50212243016,477.829932269332,-7.39311901327034,337.91963048235,-42.1312674768401,2160.91040958187,-156.72984313859,287.061424210729,-42.1213225338015,696.130788167058,-70.0425425426273,1923.30012074973,150.513095158657,552.043650854969,-79.4016057238185,381.765233718064,-32.8878488955764,897.791637028042,51.165851828498,635.42584003676,-19.8327535427037,590.459063371868,-66.9445926248799
623.31812039707,-64.1978174524651,1639.81863357967,-216.318994828489,1481.87979999195,-161.863079969537,702.977480763966,-91.9420134782516,478.988863397625,-7.26787026593791,339.309551096349,-42.4963424857212,2174.59874425147,-162.719489778912,286.475946868673,-41.7807670472297,697.530616638552,-70.6516204990668,1918.2718951781,155.360724171788,557.998547144018,-79.8118306245339,389.105872236169,-34.323241773324,908.427081909718,50.2659874047161,641.275624521045,-21.1042053919253,592.615335416595,-67.4720402066874
629.791543234517,-71.2400828557208,1650.09730132112,-213.038242680399,1492.36003009829,-165.963250720339,708.985297616042,-94.2393477288951,489.044628394359,-8.5549955333277,341.74480694963,-43.5317329775093,2196.02075320824,-164.461923375576,290.292618406082,-43.1088128185749,713.320719767658,-73.8027048104707,1946.71615941317,149.388102906356,578.934248862303,-84.6030327766997,407.386392529362,-37.5385749459116,931.478925362427,45.3230106763974,655.842669552445,-22.9397064439769,602.521653851077,-69.1552102313798
619.140477172453,-63.1349334144426,1632.28780823198,-210.530616525696,1481.98641861655,-164.939052280231,705.368469785025,-92.7300470362194,480.039135284683,-7.44448334314839,338.497755211079,-42.0276351015658,2171.90860289151,-160.024456177843,287.464723513893,-42.057338796792,697.491439365639,-70.7697771087546,1921.53932516041,155.280109603817,559.731559694992,-80.0008089367316,388.99569717286,-34.1295435528153,914.729726407774,46.4290226112143,642.536417475549,-21.5712101105151,592.634240140817,-67.5345920285409
619.2568901886,-56.0433145954164,1646.26356545657,-222.441099792499,1482.92746108222,-159.415668177258,706.654586770448,-93.6048637277592,485.330000346319,-7.85370419717883,339.572019812426,-42.0440718260698,2187.67103053219,-161.170582297033,288.825934560652,-42.5738676922555,705.937214319779,-71.1632022977386,1932.77932824919,155.028701686085,572.209544625183,-83.7355763572923,399.131100464639,-35.6459310306042,925.001411656392,45.6307217612249,650.26772361504,-22.7579018708542,597.258959137833,-68.502222904878
634.74176430885,-67.7648234704729,1664.82978949022,-219.182221365864,1509.9294499927,-171.349483283721,716.825750823503,-95.2263508209142,496.032635274634,-8.97391393357561,343.771987469462,-43.3176790474935,2220.73455208568,-166.980586842518,292.540361334028,-43.3864784936678,723.329260319079,-75.7462364645638,1960.74954148061,151.524078393991,576.893169321795,-85.2169683951098,398.786062540061,-35.7752254659012,922.419038816103,48.3336696474447,647.545576471156,-22.106587805455,595.081556650167,-67.9607753163124
616.168705536782,-62.0133159857861,1633.76194175805,-208.678331384157,1491.70287758455,-165.044656085462,708.220862512713,-93.7335712390613,489.24117291471,-9.12500762589234,340.340083700816,-42.0856193637274,2197.3870000752,-165.311070526256,289.782604807836,-42.9124447332513,708.774842557272,-71.8380021369518,1939.99267744119,151.297183187907,571.253545117669,-82.704226921095,395.730295853674,-35.3427714966983,922.52002831764,46.1097214039162,648.754050735226,-22.7343950080648,594.579711824012,-67.8596462615558
627.707069165323,-59.4839957475641,1660.4204177623,-218.53724110591,1504.3802201295,-177.644876573168,710.838855464091,-95.6093222233862,492.353022784884,-8.52028193883912,341.233990061472,-42.974811159433,2214.19459456441,-167.879921507874,291.421960293886,-43.1753977643487,717.4676267309,-74.9672654602464,1954.42666454846,151.247557632483,583.940495786992,-85.4290251242872,411.005736621122,-38.118954191864,936.410136143807,46.1422113729501,660.966975356394,-24.2014857108041,602.847278510579,-69.7285306569484
627.106354994056,-68.9408743037025,1641.65816239023,-203.1923793384,1495.44081159045,-177.634178162526,703.648279589082,-90.9573885513867,484.821338236897,-7.38337565960297,338.08916586358,-41.7978393148821,2189.28767822919,-163.160260241425,288.741335257143,-42.3690053242656,703.265904482001,-71.9800074659974,1934.9164079145,152.547520983045,568.325861487293,-82.7186371758,391.66158015311,-34.9283154173067,918.150685394781,48.8858787996411,646.968058811042,-22.0537453543645,593.415067042769,-67.6779833581204
624.98574048813,-63.8872766514911,1656.7333786494,-224.887686374908,1485.53296349931,-166.246415736538,702.630798898514,-90.2370802510209,489.428617207085,-8.24039269378029,339.269857008535,-42.4952835071389,2196.14599389019,-164.42571667635,289.382696357528,-42.6968339743294,707.549475353027,-72.3807683212761,1939.43687243651,153.283764221488,575.004863234944,-82.496115682943,399.896048682259,-35.7747036494273,927.505550535293,45.1910220037076,654.0725026426,-23.3047256688573,597.416047355429,-68.4357733590621
621.193852124437,-63.5236986100611,1678.60591831743,-226.47066511158,1508.05698537316,-172.143502053656,714.687178332028,-93.9967014263165,499.251180424345,-9.90070253059487,341.486941897598,-41.8862940661716,2217.85524127024,-166.883770343101,292.247960880126,-43.1644309700392,720.960196810444,-74.7154622470679,1954.44949226033,150.633083138495,573.069716788236,-82.8984918396634,394.824665980219,-35.1017206839209,918.842438027892,49.0708483778868,647.949916432342,-23.0502881200076,594.131584839204,-68.1504381257047
619.849615618016,-68.3435234127064,1637.51237978786,-217.253434822212,1481.23780957578,-163.86917314499,703.614856527117,-92.0662128543216,488.878643403538,-8.59402375333917,337.825633473752,-42.8480426784925,2184.82356651198,-160.854014645079,287.527771993653,-41.7778457316425,704.946453162229,-72.3157812879647,1936.26437354079,149.203667389078,569.402390647385,-81.8634233997445,393.462265320579,-34.3153055755228,920.825441735053,46.6064450480136,647.11647401093,-22.2489757110507,591.820351904454,-67.3114661783885
608.494578739593,-54.4741720667594,1643.15807041293,-218.659545907681,1491.17733791563,-170.901146908353,702.843462696071,-91.3991437890629,493.004213324222,-8.7371774876665,338.22396851762,-42.2322191589054,2199.27811309889,-164.500618128258,289.458279751487,-42.7932946480189,713.0382386612,-75.2669048719023,1946.55511341432,149.507133292359,585.397001673844,-86.8826073979507,407.534693595891,-36.9593840543782,936.070923652231,43.1365330677622,659.20590173347,-23.7650147650716,600.912569658113,-69.4969681145178
609.19150137685,-60.6100051672534,1621.74252877189,-208.112974441962,1464.63627740305,-154.804391225581,700.113581462116,-93.3552390254999,483.379407739466,-7.60933835688442,335.347935537756,-42.297105062221,2162.0700574277,-156.626363018524,286.08765120133,-41.830016872499,693.88657813492,-69.9217834925391,1915.49577762994,156.293803113272,563.706630807008,-81.6082649037571,386.032164074038,-33.6492493072922,908.592486007789,48.0505735315672,641.31814244955,-21.4895437844007,590.068007637115,-67.1250822361883
612.75223550204,-60.0571114865558,1638.24991669971,-222.614064492653,1476.44873530934,-163.836405324993,691.877910116898,-88.6845190452375,486.276461874317,-8.37462024662751,335.898518001732,-42.4514835286648,2168.10527138331,-159.358866568317,285.806610378793,-41.6623201608864,694.860106582963,-69.3986485005156,1921.85043174634,151.758189091431,571.317602457878,-83.4339530320099,393.636316956972,-34.7947817351454,917.98757515647,45.6424605159886,646.2454916318,-22.2628528617683,592.607530451662,-67.4531677023093
619.04647066644,-65.8889107583948,1660.91303075324,-227.070218994665,1482.67043941474,-159.098319234981,702.839983791318,-90.4083123158155,492.782817798751,-9.06836071544806,334.466081952631,-40.8779059246897,2177.3336410333,-163.036453883439,287.337794211194,-41.9236415742431,699.746679524554,-70.2245203043002,1925.36939191411,150.614354435391,560.244088495308,-79.9013867182035,381.548440583068,-32.8980121656756,902.038080505955,48.6038463978246,634.813767875424,-20.3726806799628,587.619606910806,-66.6570995026144
607.471150304051,-56.3577563165513,1631.34049099844,-217.348575897156,1456.80565292703,-153.029216252822,692.782339658612,-90.3875693844842,482.855826852524,-7.42965917982529,333.24429389074,-41.1023411801773,2155.64366591083,-157.14817176792,284.734686984302,-41.7857516067079,690.2470635972,-69.3926211100022,1907.71396838358,153.226316771323,561.640215373849,-81.1242928145036,384.59893260873,-32.9375842039893,904.066529059578,48.9697327557979,636.293111735528,-20.0236250525175,589.750157627929,-67.5508634612372
607.248863998751,-52.4583744062962,1637.77260186339,-224.455676411171,1468.25133460843,-158.38094536547,700.389632601573,-92.0978051381388,489.743128055457,-8.84332043842343,334.507612420058,-41.0543587387462,2167.01271545721,-156.912716294628,286.878538206791,-42.302048192961,700.133007316356,-71.7723093317245,1928.31510230783,151.359038241812,579.027690491791,-85.4351553502018,400.175124493592,-35.8325804962946,922.566216407761,45.1982038430509,650.220850717106,-22.8227990743645,599.297781981553,-69.5669469029484
613.313981361789,-57.8241179609977,1622.45560144564,-202.232005185162,1468.0638919819,-158.884183101733,695.769404420396,-91.5597218297836,482.012994907757,-7.30396926312382,333.773074467989,-41.9298971297912,2148.35779799052,-154.589264820226,285.201325568187,-41.6504102239023,688.931771104623,-69.5647298241528,1910.03609639896,154.655385692905,562.527597137099,-81.6258354782801,380.293361172168,-32.1377490462747,902.001226185938,47.8548508292943,634.114365617633,-20.1976026515907,591.371918287425,-68.2020572681734
622.959515378465,-70.3880078154866,1644.65461110179,-222.50642072986,1479.26225369348,-163.382624113521,700.99204841318,-93.9831653343044,485.617147874527,-7.26978272697288,335.128674995115,-41.5711847584286,2160.88946300201,-156.480124915901,286.779323829155,-42.4904427826977,692.142969223611,-69.517534828334,1918.2502766793,155.28801847818,570.023964034127,-82.8824950322625,387.38524511876,-33.4162693105899,912.116909308492,45.9885363126064,640.398842781209,-21.6435566469533,594.635494070116,-68.1917656046975
634.187573135968,-71.8529476885208,1674.61799483437,-221.174097038909,1507.95710592692,-169.968197684963,710.041196344571,-93.7395997082591,496.519690462541,-8.98168893021255,339.025257590702,-43.0847445962454,2189.8928311416,-163.174400292296,289.048755886629,-42.6471146226982,706.717899013568,-72.130270818213,1938.58836519955,154.953443317795,571.459386523807,-82.037090302612,386.189499796178,-33.452620340465,908.474005768503,47.9643129194937,635.943153128022,-20.8144216717164,593.04090495562,-68.1162027133167
618.35814322883,-60.5599710053364,1639.4044464988,-210.989876750641,1504.7385790688,-170.461276576687,707.813091508295,-95.4550286378164,491.249036214958,-8.60801956527584,338.060638896271,-41.8964436264942,2184.14796818732,-164.74919525465,288.276419905899,-42.7073784130439,700.006878802278,-71.818228550196,1933.67200556516,149.755824119386,569.064222499726,-80.7127710913228,386.654998717898,-33.2475683109631,913.894579288113,45.6377430959569,639.814810443117,-21.846701083631,597.124025494603,-69.0801846420011
625.890131164308,-65.0348766467774,1658.17519117198,-220.688818902523,1502.13196747512,-170.918821833929,709.565134125433,-94.0161446724442,496.081891949208,-8.79223722450307,338.856098323259,-41.7321982505828,2206.41983072199,-165.99307692598,290.338811352979,-42.9827602595613,712.159985231233,-74.1180976242906,1950.61400203544,150.300681650676,587.515486752763,-86.322783295105,400.851925309806,-35.8892878298403,933.736382210771,43.1342181939988,651.487707364717,-22.5842634115301,605.329407671027,-70.7677122498949
622.65348015614,-61.6323818635962,1668.97126160077,-218.832255456618,1516.41024534717,-178.098835676027,709.502700993434,-93.6456175262448,489.871873498121,-8.01868190944139,339.265731439218,-41.9754148215562,2194.19301193403,-166.043989179953,288.943482203127,-42.5954419105232,696.881168750874,-69.6487389179294,1924.23114705938,156.644626285215,569.787822165603,-81.5749890785743,382.386645558722,-32.8758629541202,913.417312049548,47.7518918014686,638.393630835799,-21.3699964767087,597.899569232984,-69.7291623066235
636.503762859817,-67.2391421864105,1676.87958502623,-222.488523972784,1517.54621510727,-173.115104922495,711.343803639029,-93.9658551189564,495.888541942256,-8.84143006312329,342.232695957287,-42.7686297612922,2209.30639712121,-165.659108168981,290.341122845982,-43.0111038918745,705.443670819761,-73.5250614936188,1944.33466569523,153.544441058585,582.831311865522,-85.4082985679088,391.711490945864,-34.2548076316732,924.060789239526,44.9299953860643,646.517043783442,-22.346478661989,602.526865342399,-70.8403108424751
626.006972606365,-62.0045757400742,1700.45508000151,-224.152771293456,1521.33262897572,-172.979953018056,722.185396161175,-97.7224687375474,500.894381145888,-9.43289612939961,343.155178965096,-43.2448291035541,2218.69130234494,-170.286880508842,292.414778617666,-43.654901425082,704.366322668628,-72.774097083985,1938.35680780392,153.448091358896,572.644498496503,-83.021772395161,378.841337159643,-32.5697751314302,912.742998605493,46.8672017987283,636.417077832088,-21.307128104387,596.442649072092,-69.5386848633284
633.285959065598,-69.6731074293931,1693.57482711056,-233.85029133207,1513.56920212566,-177.482290191127,714.861276905267,-95.2114237791413,498.647772241351,-9.12145918450242,343.237528787173,-43.6607216146377,2215.88025549828,-167.622528356012,290.833402379008,-43.1703605808358,705.839132651406,-72.0535563400772,1942.99566019701,153.818809687936,580.699674143748,-85.5649462741149,385.870384086591,-33.2616188543866,921.478917895096,46.5817988000708,641.80492359199,-22.0555068604206,600.710327973776,-70.328903735743
640.720903623958,-66.5326489245791,1691.89580790343,-224.816715938858,1520.6570886429,-171.028057116189,719.538945245815,-95.7689172223975,506.276346018988,-10.1106743378967,343.281349543265,-42.8019370216354,2240.65096162516,-171.680899641972,294.198440986063,-43.8030904342786,717.945945740771,-75.0053305341149,1971.93710406982,147.171636912593,596.113572718681,-87.7844435398331,403.871934815856,-36.6282039861422,944.007029293644,43.3889013406247,657.283634157678,-23.8977453795983,609.480617920445,-71.7048832198764
623.592999681183,-56.0977736072847,1676.27914475839,-222.193273391561,1497.84923868254,-168.648518479383,712.378110920701,-93.7417945095622,499.952773964239,-9.58479663269474,343.43812026221,-43.5971779821761,2228.21646256939,-169.350935329776,292.196496646381,-43.6046525611427,707.418294132066,-73.67814643686,1940.49629504336,157.245738364328,578.1993743799,-83.624997812541,383.23010918836,-32.8366759295313,920.298702865584,47.2136125317118,640.874990292385,-21.7290389778941,599.218129129971,-70.0536682722894
629.029454631432,-64.513359154224,1672.88994205213,-222.419635926814,1519.63693888838,-178.447770197074,715.723919711785,-95.5860661777839,503.532127939158,-9.86650945052254,341.366112531161,-41.5932492709888,2230.59327017976,-168.928724791727,292.66465104241,-43.4857364211009,712.951658676161,-74.8494966937139,1955.9949075131,150.174636726237,587.968908070064,-86.422275605974,392.560841599191,-34.6454851541928,933.175161777167,44.4205542058813,647.036446876653,-21.7904022469168,603.027624233691,-70.3570325920862
624.12414139234,-60.7200585232778,1708.60552760724,-228.036390395006,1518.09278911148,-172.800289062916,721.179275426031,-97.3617806340556,513.20391487701,-10.5275673944651,347.42740895162,-44.8668298020711,2264.10102341212,-175.016822275841,295.866253990472,-44.5677784631529,726.309303387269,-76.440279439117,1983.54642532294,148.621863150115,605.027453891265,-90.0081821912801,407.840146752126,-37.3474538598251,947.361091488293,44.0524486376327,655.703951144396,-22.8316505672053,606.846375045162,-71.6466871536663
634.33480106914,-72.3759941405447,1678.3937373372,-222.791842006972,1506.88047012783,-170.015920618535,709.279800083882,-91.9139579742725,505.060705840264,-9.71502830352501,341.610089745091,-42.0808626192295,2240.99493644155,-174.242880869416,292.605545907885,-43.4045230843197,715.460940258178,-74.8770517312069,1954.47777855153,152.401126098971,589.771273334868,-86.8092335024992,392.856651963811,-34.2698802363535,931.512350285663,47.3575415602632,648.866806362583,-22.8433902091014,599.424081876083,-69.5212298584924
620.31414098881,-59.0224371699987,1687.06417225367,-221.731435499365,1492.37244912428,-165.470480022609,715.719300450825,-96.3806056744014,510.579824467926,-10.7413297682494,342.797287794956,-42.2342817404486,2246.21722060685,-172.638290614847,293.519090627711,-43.6270019614352,722.601242399576,-77.7172171086279,1970.64791086327,146.64358580749,599.631655626036,-87.7688095230833,404.226179505372,-36.6230843958389,946.603960395352,43.7583959701197,657.908437117306,-24.2949992642101,607.331828527982,-71.1890908881308
628.197906086239,-61.6763162771705,1719.76888317578,-228.193256082914,1524.83771407045,-180.113948737919,724.618797213205,-98.0748386887884,513.589563135502,-11.1615411383045,346.050588084418,-44.4270248575943,2250.00681287391,-175.036061950142,294.194234651533,-43.8418877083966,717.853123755821,-75.7931280703949,1966.12223664907,147.724215998495,585.910385349575,-86.1430263495542,387.888917506881,-34.0071086421868,931.608337531987,45.8478808475249,645.817153175334,-22.8387118827551,598.781618367728,-69.5486354588243
628.649289149596,-65.6291875212778,1694.43890441228,-224.31969055143,1504.10927086269,-169.544466067779,711.593551008644,-94.4890339234322,509.182471392244,-10.1942950197703,341.332740645971,-41.982121472105,2241.47289734554,-171.073958837518,293.02246033581,-43.6325408455904,714.507665552704,-72.9045998915796,1963.28306499883,150.477817968936,592.378674684354,-86.1148686351471,396.113281965204,-34.7883492753463,941.830759623045,43.9951758889952,651.945846101936,-23.1921217150634,600.809469340085,-69.7261175952784
632.164321527283,-60.4385613804598,1712.72444283661,-220.510635706117,1510.61654038493,-171.237182830897,716.836514342786,-95.7652340853731,516.870966036931,-11.5176809737376,343.764957596328,-43.1576024509879,2256.67404039623,-174.521682187538,295.502872297134,-44.2098627710444,729.881008744758,-78.6908552303332,1988.47552926066,147.861833302638,609.565194435073,-89.3869154162919,414.169818060956,-38.2405456220697,958.404496557466,42.3893569320183,665.42876227807,-24.8546101598883,610.880415289583,-71.9568860828586
634.109700558365,-66.774871728308,1677.68829338431,-224.761070157545,1495.02211422245,-164.754820028965,710.616363469839,-94.1190193056305,507.792488844323,-10.2198392170327,339.337743505107,-41.7991912069829,2225.6991037368,-166.642354720713,291.906696256056,-43.3282168706132,713.994120014766,-74.6307570026222,1958.54689236071,149.471971439253,591.469630853438,-87.5503947108045,394.943797735225,-35.0098028895277,936.743488673663,44.4625402030807,651.682544215532,-23.1673967343826,600.003891210208,-69.3584090762861
618.204303419542,-61.6621873954353,1699.73301381778,-236.413489811247,1500.55661708548,-170.399369014525,710.833170822983,-93.4318113802409,512.721333391902,-11.9289138109412,342.838528474701,-43.8392055808305,2235.29197975664,-171.470212911255,292.300007566503,-43.3644661053284,716.616885500358,-74.5390733608524,1964.90322988454,149.587845201162,599.821275376763,-88.498867830598,403.723406880673,-36.4583738859818,944.305794632262,42.7650913780588,656.907856535242,-23.6061458145168,605.565475376522,-71.2567473074488
638.902452870852,-71.3511444140105,1717.15116248216,-235.972220668636,1505.29075559114,-170.472166702123,720.285947778075,-96.5627021169442,521.243506180475,-12.7985472529527,344.998160326995,-45.1454016761575,2260.00589932579,-177.098336795449,294.889896606547,-44.1776707676096,729.480545810322,-78.1834415696508,1978.28191769895,150.553288196681,592.39010772692,-87.1678770613404,394.288729491104,-34.4958447914817,934.990362520408,42.172840320792,647.479341626203,-22.7987086836814,600.911235792186,-70.5206401379384
618.352430694516,-60.0651213578237,1674.24430700178,-217.421081692434,1489.55280379368,-165.236962112928,707.83097217721,-93.7645182713292,508.635882492038,-10.3454159784262,340.351727047389,-42.7729858343055,2219.90663136565,-170.584041889162,290.579972923977,-43.0561075301325,711.915823161078,-74.2703810107572,1955.27280797377,148.670236362577,587.597884094183,-87.6556574250169,393.879003368126,-35.0746154446304,935.043433093931,40.7553327713612,646.43514312869,-22.5730677039178,599.289006706774,-70.1285197867848
