627.219143340635,-68.2467804114263,1706.01251549586,-226.266374130403,1490.49634911183,-172.74972893169,710.924945460045,-95.4968695418663,508.992359372144,-10.7771539207357,334.046613454961,-41.3246548438071,2245.32838238054,-174.743080772293,292.962749899459,-43.6308994119676,733.286588362658,-79.6181274939025,1961.19651381922,141.926367059711,590.509511719952,-87.7341754590191,399.395451467023,-36.5653607352834,938.674089209676,40.4428992435981,657.428680487473,-25.4943232975563,606.277246886482,-70.0882136841743
618.042897193886,-64.8971529087777,1700.19749756965,-229.660441799623,1474.07381733445,-165.993061690896,704.233657598914,-93.9917878872432,500.721298443391,-10.245859211915,331.789286605796,-40.1645306579081,2225.74751728708,-171.093266405003,290.217668278305,-42.6436616134957,722.474453902166,-76.4356176242558,1935.22146714813,145.579510101696,577.946637174745,-85.3399795403065,386.550002089189,-33.9064278261918,923.611849813726,42.3024006477525,648.630733111003,-24.5194011005103,598.164782803342,-68.6637164232101
613.421156652729,-57.0529139313345,1717.99307806709,-227.792029821278,1480.90277907722,-166.601332167048,709.153394069941,-95.4163441518676,505.423370636105,-10.4079453289002,335.621690677801,-42.4258161798258,2243.13470112144,-175.488108407251,292.15365705567,-43.2781400572745,730.356993798331,-77.6473217427276,1952.86009216516,142.242993061631,587.64577299893,-87.6187774379611,396.473340673253,-36.0663829478475,940.268983962519,38.3307389230953,657.688275587341,-25.9125544228674,602.516471258013,-68.8709840971805
616.200431973804,-59.137142442432,1705.45252372987,-236.649503851673,1479.12325153053,-171.578032245083,705.768422216039,-95.4144070059914,498.311950474843,-9.79553380613932,334.709699207917,-41.6851535600222,2230.2185608112,-174.451490723072,291.495704066109,-43.2746366053443,724.858796780542,-77.7268154784023,1931.43047135171,146.93659997761,571.314933273039,-83.4993094595576,382.748367722666,-33.7173210991467,917.550973279509,43.4095778962778,645.921425896323,-23.507068130138,594.851868971901,-68.080346485578
626.631885961584,-68.5872579533002,1713.29011072383,-241.543624164517,1476.87133805271,-174.964680191624,704.16321022564,-94.3229983734876,502.203575161141,-10.8214483615098,334.94762038995,-41.9321797171815,2239.68136955987,-174.688638890704,292.01047357922,-43.3926777685596,728.705965541164,-77.7966708626764,1943.46132270048,144.801946907428,581.175959285874,-85.212525408283,391.963618456054,-35.4037082469706,930.603896390246,41.3487756267387,653.69155939205,-25.3435475539458,598.459972877302,-68.6447980014415
610.806925234477,-56.5985394464228,1724.90263305796,-235.781697279812,1484.78320328145,-173.162697780073,713.715946056003,-96.6146586398294,511.412322110202,-11.9059501000254,339.294536392147,-43.172088414219,2269.4954277836,-177.110319260896,295.237341719001,-44.0977618524981,746.267604644899,-82.2650980185262,1969.34492851819,140.223298695012,601.388180970155,-90.6561660205069,409.671192250596,-38.3474235206789,950.828632566571,38.1278594959986,668.461164698736,-26.9885520067116,606.171284548927,-70.6019107208676
617.599721662922,-59.6656772403009,1701.04849175207,-236.568610064498,1465.31521730144,-157.216874214091,705.481573082669,-93.9022979804617,501.024947391061,-10.2516522183519,334.350147761193,-42.7308616632467,2244.64306897741,-176.06933678113,292.409294669732,-43.3456738716543,728.197159643285,-77.711567084801,1948.68733536862,141.282989973455,583.525262745133,-87.7304514323936,393.219595156458,-35.3721010776929,931.696339982114,42.1207818030459,655.607675180318,-25.3061288618976,596.332490044958,-68.2594167697866
619.17166730207,-60.688260154684,1719.87481644043,-239.47465943465,1498.43821658629,-181.086904034522,710.172568179933,-97.104649143719,506.673235556574,-11.4578820744762,336.788194272121,-42.1962951331942,2267.67652168673,-184.293847650287,293.807120369232,-43.9603111456881,739.926978833234,-80.4822807427094,1953.73227347752,142.606934069387,595.109280770885,-89.263383258971,405.189011708954,-37.5403391825616,945.894506811398,37.6815053040489,666.424482796387,-26.9474000468289,602.739879241974,-69.6381300519892
630.547001265896,-67.7502279920948,1753.975464175,-248.820584157776,1520.18527865382,-177.76455781893,719.671571206447,-97.8284942239229,517.238094681516,-12.7765397725543,341.175234218066,-44.0699002057859,2292.84551748317,-185.204610729076,297.443645929854,-44.7069616731588,754.4117079876,-82.9899642612625,1986.51462619846,136.773912370961,591.559949702464,-88.9536331034676,399.805539743195,-36.5222244528911,941.652202101287,39.3065402932084,660.382341779777,-25.2729412249323,598.595611679153,-68.8721448248474
621.423147196266,-65.9002953539009,1704.18983187433,-229.652791436815,1484.04026943819,-168.803251806512,708.144583790555,-93.540395613166,508.069964991092,-11.3782161024474,337.980192841019,-43.4896278351389,2265.47852914496,-181.452171859447,295.00418246411,-43.9739165036468,741.270661064205,-81.0107717760138,1960.63065307589,143.624584197331,590.730366494567,-88.9178912607762,401.208950988954,-36.5477150920715,943.270788471785,38.98721990755,664.356241586609,-26.4675383273628,599.685194470634,-69.3122154961257
619.892520622859,-60.5829613708622,1726.38164947156,-242.744158774132,1496.4656882477,-175.481156219624,713.393248059867,-96.6650500312072,512.943516658274,-12.3212317159442,339.851821658172,-43.824153888278,2280.73039588653,-184.927667611973,296.753095093759,-44.6990481635184,754.939085389363,-85.7267581061045,1978.17214942663,139.1377973725,605.756350113429,-91.6201642513607,417.924782358052,-40.0913325381771,963.730959223268,37.3760102331031,678.384401360656,-28.7830256139577,608.047708502166,-70.7520164979151
634.357016063899,-65.8929222658125,1743.86795252061,-244.014878332464,1515.43831640002,-177.094869718422,715.753000394987,-97.3181689749991,507.46796229518,-11.6634089231536,339.062083901229,-43.6399747853003,2263.23455270187,-177.357211054858,295.10517087703,-43.8928116868958,745.562515952872,-83.1853243222371,1965.07801564258,142.038542688027,588.468130540365,-88.5690065193006,401.03396722068,-37.1842214203884,947.764293702659,37.0583878172817,667.662028289051,-27.2745871677607,599.060377125096,-68.7174566749854
630.772780841347,-66.9321370050687,1728.99511556178,-233.669159845272,1508.4852842939,-178.720991198077,712.285733742788,-94.7303657937903,511.395619503328,-12.5282655751919,338.747473085258,-42.3709019506669,2278.19264509868,-186.194795473494,296.540427518028,-44.5199852057263,749.025740305543,-82.1757739341224,1973.99965700997,142.90538569288,599.057217402515,-90.87838979215,410.898239396535,-37.980743275594,957.448752583339,35.3180762700135,674.24307882707,-27.8151641863427,605.398166253921,-70.7058599258008
627.283673511319,-62.6218028775737,1769.29195082338,-253.038788586469,1517.88885128067,-178.810606306785,721.399750228712,-97.2944212694193,520.717311771289,-13.1173136625035,342.973388689455,-44.9144252555689,2307.81425091243,-189.780398975168,298.952735531272,-44.6399581890774,765.429260222827,-85.7759173329418,2001.30944754317,138.330438886017,618.71259919619,-92.849802637104,431.632591844602,-42.0302919662304,977.868236119021,34.8286753348829,690.939845102924,-30.0882281485847,615.74568016213,-72.9281282134681
623.326197218951,-62.8100683911282,1727.23669683539,-235.776054737263,1506.315966938,-171.481677885494,718.014138304193,-98.7133054974613,510.669749727294,-12.5511755714194,341.835316444354,-43.8493164423598,2275.37361695826,-182.407060873033,296.754023801634,-44.7634575280836,749.75950150655,-83.0534860855642,1985.92005641024,136.547141772048,596.676191560699,-89.2242244717344,411.335417642516,-38.7727962409973,955.827899289545,38.7192972994588,675.9268127279,-28.1296207328908,606.116611666978,-70.6119673147175
631.939713900286,-69.4656729292296,1743.72831237234,-235.935230420153,1503.33154620499,-174.432491482016,720.550603936551,-98.0964383383261,514.325182291066,-12.4463877577232,341.396963919042,-43.4036758908924,2292.64989946212,-186.784906675373,297.718008615143,-44.7892902032153,759.97593517002,-84.9408345749271,1994.85911843809,138.498005537191,609.631612398568,-92.691010150926,421.227432618546,-40.5730690833418,969.370505503889,33.743976951261,684.078129351381,-29.6729272234734,611.354628304866,-71.6776941851473
636.903411917281,-63.9261342488482,1760.5100387823,-244.108012978377,1541.09168281829,-187.337865494352,730.628361759292,-101.360354958064,526.094798224513,-14.3502667123993,345.093301160745,-43.1305663194144,2320.48809455398,-190.359869488155,301.253322751457,-45.7711344471202,775.090435235456,-87.6672584259883,2028.24961377101,131.909137738383,612.139672115169,-92.6846287798156,423.255936119424,-40.5617625136214,964.05052992306,37.8318287175981,683.162374938569,-30.0216043906189,609.735483529408,-71.6715236645784
627.358119366012,-66.9859893733172,1745.97512025467,-253.373124049062,1518.08022226115,-173.873130259702,719.229093565281,-97.1798642164168,515.566576912341,-13.7041845326261,342.001509549776,-43.8526982037641,2288.83190500556,-187.298513982586,297.810091503562,-44.8339082954362,757.051593443065,-84.2551851762233,1996.32662765197,135.415522981319,606.284651845752,-92.7017619050703,416.684663865085,-40.0324969798288,961.844686293765,35.7991798245038,680.390602387211,-28.6881464905956,608.822170486223,-71.1723531997432
637.421375597692,-68.6994500850002,1761.70069555064,-254.846175739537,1506.18852728461,-170.926055101654,724.896238350822,-98.1822670894855,519.373413655688,-13.787087837114,343.32161394439,-44.225918132712,2308.00106031901,-192.475404219245,299.360721694568,-44.9878273258261,763.624455408702,-85.400443466539,2011.17974833999,135.199903497168,618.068402983552,-94.3249149034584,430.233145120665,-42.3925120594132,976.178928028531,31.9317997495987,691.522880812509,-30.8027175050482,616.809859127629,-73.3554016394854
639.642333535915,-68.3478118414925,1760.17057207571,-247.722112538929,1525.07668521452,-175.700257901993,727.094741171807,-98.7412371821478,512.319384983156,-13.1520970588206,342.565605606727,-43.6455953039699,2289.51609556993,-188.923925904458,297.586023206092,-44.8015556932632,754.653758617381,-83.6582731796642,1993.59030794351,139.287045678976,597.237344043545,-90.7360900109776,409.726384809079,-38.7772449244055,955.406469016233,34.4630403504192,677.362772728134,-29.1581802568804,608.307453946394,-71.1780583783994
629.825460785807,-60.3647867632221,1741.15357282768,-246.437195220545,1515.24316305435,-177.140220238077,726.511685661314,-99.7564073546322,516.99332503219,-14.1483417471368,341.965351937293,-43.327859182001,2288.7104734312,-187.411077338246,298.191499148283,-44.9414366488905,756.436796647364,-83.8291865073311,2000.65645233754,135.753572145987,608.142360767283,-93.9081524649835,419.158482218947,-40.3037672741182,966.604271580887,33.765746901771,684.263977568012,-30.0913030702555,613.726091373123,-72.4264800371046
640.839198567812,-66.5265217560355,1767.08485984061,-255.384729839449,1537.37546099319,-183.380312194276,731.973821191354,-99.7340383560069,524.590758321859,-14.8744266382286,344.427900732471,-43.9128224450555,2317.62994315944,-190.779397836412,301.590741316591,-45.9326970503918,775.391105296467,-87.2194832405284,2032.93927436427,132.175833619869,629.584606906834,-97.7130839170802,440.437346340184,-44.1147745676733,988.239260913735,30.6879111571344,698.519115062171,-32.1555115589009,621.563026628658,-73.8592339759008
637.396879029197,-68.1647364507709,1739.51323581932,-248.243093203155,1529.80766567444,-180.793216232934,728.236219265528,-100.416438753897,515.709185756145,-13.8767128395536,343.888567960681,-44.8515895330782,2290.53467989719,-188.998540787141,298.048972305268,-44.7235559672259,761.83759463922,-85.4897061887678,2006.1919542178,132.190457375599,608.758355018297,-92.8739328958263,423.251512803232,-41.1760464504693,969.773763833224,31.9868494066262,685.762923012046,-29.9339632522251,614.699406516286,-72.345894559917
627.171023113278,-59.9788458483033,1738.3960972874,-235.541201815731,1522.75570530393,-172.73902440249,731.231476629583,-99.6492240883098,519.985241711508,-14.472453449834,344.833874661577,-44.4631868488137,2300.86736984074,-190.491325690281,299.191779571097,-45.3156257102532,766.279360190845,-86.2139979361577,2013.8205064005,134.623788925216,615.400000205768,-93.0782938512642,431.235907037582,-42.493850675453,975.566626840224,31.9797751030893,693.08441644143,-31.1622646199665,620.887913265106,-73.5432617915229
635.243914025135,-60.6440295576166,1748.10275818929,-246.891586982204,1531.72034098081,-179.082458110646,728.615862861738,-99.5356901443833,512.719004486614,-13.4321992539889,342.569783327479,-44.54408314849,2280.29836397491,-186.505356623574,298.21673895504,-45.3441299413046,756.376395882883,-85.0022335245382,1996.00700633362,133.939153777725,597.476073680202,-91.7040150111241,410.613257867868,-38.9659658185476,953.195650803358,34.2516256396879,679.702305956807,-29.739292394207,611.713856516913,-71.9741889435053
628.216960732876,-60.8612075202662,1722.99232723099,-231.954297145513,1526.62295743734,-185.208111064958,729.28177978987,-101.160114676351,514.154093723196,-13.25413397155,340.909985816839,-43.6147619869288,2281.88860425506,-186.315215079482,297.69222052593,-45.0372830119567,756.261970101992,-83.4556018262206,2000.68004705699,134.32418611688,605.137920059957,-91.9444312841205,419.233302258312,-40.3505652827875,958.448449140271,35.3856936892644,684.041388851452,-29.8950774121316,615.138355651875,-72.0871059747113
639.8483605413,-66.1038282540637,1741.97545042208,-242.599697553375,1538.9536233403,-181.695464348996,736.951735968377,-101.714202115202,522.8229720467,-14.9730598938294,345.589931631436,-45.1082313782565,2306.74493407091,-188.70204797746,300.377106364441,-45.7040347128613,773.7507282942,-90.2612693312248,2016.07064053187,135.936134738421,620.972933926465,-95.1435977842803,434.186397187551,-43.0102005006027,970.842719088925,34.8837450835262,692.527545920532,-31.4741975517306,619.519181633176,-73.3978916737028
619.473236716369,-56.7855318468446,1716.62429528738,-244.576986479018,1519.18118847138,-178.152310959859,727.401697873807,-101.334896598527,510.63462876279,-13.4072268318605,339.94074549015,-42.7933505932358,2270.6516717978,-183.784398732473,296.350723996769,-44.8031207811362,752.186497968305,-85.2284452898259,1981.91011988777,138.638629500563,598.396959577883,-90.3383367523698,414.582001456211,-39.6529064872886,951.21965129826,35.2063130048796,678.150452647577,-28.9483789055937,613.602387606732,-72.1595316346318
623.864157028797,-60.9194521061607,1720.17738274404,-235.867868551307,1510.13819165236,-176.461292209682,724.639763475585,-98.8226654791227,513.057121528107,-13.0967630226112,340.480631825729,-43.3253456846836,2278.52829810291,-187.02536661257,296.245319194895,-44.6087338680225,758.249079406784,-85.7371272446634,1986.11086328573,137.071542732316,608.887998953776,-93.1786409690541,422.139916604633,-40.7245102726598,956.30896563345,35.1481932119908,683.949400968178,-29.957906736962,618.45270185004,-73.35953329085
626.072870936302,-64.8353076652536,1713.54858514986,-231.162395417196,1513.31966887881,-174.89644785418,720.440953761423,-97.0381732088667,505.215998810582,-12.7453225407477,339.128019080634,-44.2183949590044,2251.78426080733,-182.409369513977,294.190815359886,-44.2048553078412,745.399573310904,-82.6933856889734,1964.30828279017,138.046417699908,581.100811072446,-85.9387564913282,402.267168709979,-37.3951627945839,926.984568740207,37.4144653571639,668.584622822932,-28.171178459011,608.54276404236,-71.2282636764418
621.546888032241,-59.6904372285487,1683.83756182473,-223.737876773147,1498.06200230556,-163.384001921966,717.848247141456,-97.3959900959987,505.500497926538,-12.7959836717364,338.748437172689,-43.250550538414,2253.94867631924,-183.100867326394,293.059963009594,-43.8329350785675,743.648600562288,-82.8490136346893,1962.69815027587,139.261026502084,590.870122581305,-89.5952602194759,409.063551417014,-38.8444481143744,930.735631853783,37.283294732871,670.680733335834,-28.1006464021486,610.460019539361,-71.0170434517741
627.817691696735,-65.4334204299329,1708.08450254058,-233.212361537407,1503.23863736815,-174.504352123904,723.920372000041,-98.0793265120917,513.227599837131,-13.4075193996807,339.001721655945,-42.9545193081743,2278.61872222722,-185.788958644828,295.900717612616,-44.5580201129989,759.603810553759,-87.8001175838667,1979.07499946476,139.995430080617,606.697358599822,-92.0369960972352,423.65810303038,-40.8474738262467,951.338135450845,33.878692604149,679.104580586476,-29.2110445527212,616.083538959776,-72.9563758610703
621.569719242763,-63.9418777498553,1692.47041722417,-246.2699008875,1487.05142838418,-166.609078033901,712.733675966182,-96.58629762218,501.552597926374,-11.9901302871804,336.519601948785,-43.1445489845267,2236.45435418186,-178.541817067978,291.565908198517,-43.3852389658855,740.859556213893,-83.3656869972534,1943.88420200548,139.774059580192,584.31963140566,-88.2802537003594,405.562328492958,-37.6810682524279,924.225497638007,39.713987299745,664.683892045618,-27.1482294860887,607.81431007738,-70.5873727267732
614.521439560611,-61.014927659639,1689.22300659539,-233.759462507455,1484.41889593519,-166.13902508598,716.658393312012,-98.7268677445599,503.824020481146,-11.9652617498045,336.826211996626,-43.1871909924776,2240.39411869712,-178.607817150774,291.774156794991,-43.7114828963121,740.705250543941,-80.8357980683236,1956.74732860681,137.935282282435,592.338035040018,-89.44145273712,413.022148834236,-39.2555056967307,933.399638700217,37.0451081725853,669.768792612305,-28.1137024633126,612.299409737369,-71.5919506544289
627.149224379832,-65.5289460649354,1720.70837986037,-243.215234698536,1508.02378817094,-176.474533447391,721.133617821503,-99.539140668085,505.569980700675,-12.6598529284096,335.947073193856,-42.1085412362945,2238.48472718666,-180.401753044993,291.413091109961,-43.600795192129,739.387959808169,-82.7303015583437,1931.65316713255,142.898215463647,574.278478930498,-87.5791928454608,396.166235742603,-36.681161122172,906.775250294389,41.8299627440851,656.62049716181,-26.9996084540406,603.662312858715,-69.4723399451983
608.583852922291,-60.1639403629143,1662.64525611208,-228.179556382489,1471.30754711556,-168.588694852494,705.678273501582,-94.7751271636715,496.842009463419,-11.0866353237818,333.335960090258,-42.7523989314733,2212.13829062205,-171.039044835435,288.583758660021,-43.0369202072027,731.282932155117,-80.8319805713346,1917.97358498511,143.090022708404,577.735148193529,-88.1342531805705,400.234399251568,-37.4133359885167,905.491732780015,43.2674475239556,655.101622599121,-25.9116194675525,604.411874116047,-69.9236421015667
609.314599505976,-62.7337282855007,1679.62145422706,-240.519273278418,1490.73304632357,-171.257285917245,709.765657416311,-97.6349368450624,502.301445564555,-12.1850268081745,333.795240273037,-42.2754234752899,2238.88486843698,-178.379333407766,289.818097685207,-43.0898209952975,734.31410059686,-79.9592885727519,1937.67283943839,139.733502263876,588.506177558049,-87.6418181831615,412.898924235882,-39.1446146444233,922.358685228252,38.9158266344377,665.032352764054,-27.133527422986,612.179261356807,-71.4272280698555
614.274802498833,-60.3078093985161,1646.91057327552,-226.626055263064,1477.38846767859,-173.631779690299,697.314007996754,-92.8998653351137,491.200096446138,-10.9942771434958,330.961431170283,-41.5955985656913,2200.30474551153,-171.86036096098,286.363613820874,-42.8999856521947,722.923204806075,-78.8358273243308,1899.99142163125,144.642406103212,571.401712344688,-85.3052258398035,397.248384758995,-36.9607414325529,899.136890602377,40.9435334467072,649.486317589815,-25.3144140295856,602.327780129137,-69.4318773579487
598.758856962574,-58.3065716381537,1653.50164818419,-226.164595784886,1471.1968082953,-170.671482330054,698.653011468642,-93.1058797695444,493.200840281624,-10.562213095769,331.663938319258,-42.3514877709365,2211.78148425004,-175.650711766692,286.213342437723,-42.4362970135528,727.439259704327,-79.8675630251065,1903.40564122152,144.9366249002,578.038349970933,-85.6092416655462,403.792835510044,-37.5902183932674,903.872844322942,41.0922285261326,652.804907047157,-25.6054890475993,605.608069252576,-69.9722460020603
624.813503323882,-69.4173535496327,1670.26557466097,-227.260446608415,1484.26962337054,-173.577528256151,708.033960924453,-96.4276347459331,503.035430299398,-12.4551855147454,335.273174386559,-43.6224745922989,2236.37686899891,-175.982749794209,289.107759012326,-43.0829965032467,738.130822203085,-81.9082352784407,1923.28906542707,140.201674034017,578.666658902873,-87.8154590582541,401.141366766466,-37.3456636825342,894.658115105729,43.7533753493426,647.898053254104,-25.5272209454608,601.234320644315,-69.2373100686743
605.754582865469,-62.526926942705,1631.71865984844,-214.537986471407,1454.18808205009,-163.685313899102,694.131390039366,-93.1321661879904,488.164595772329,-10.4417381391124,328.244708431085,-40.892058565165,2204.08082951607,-174.943217338364,284.870715898758,-42.4304699241919,721.272971071482,-78.9532105995684,1880.43870793151,146.913985003173,566.548309249106,-83.7908593510381,395.471401074658,-36.4801940609851,884.623268320214,43.7530196364199,641.487700822861,-24.1338819427257,598.048906553946,-67.6715540096738
603.895460630187,-60.2015776480217,1660.94593931683,-236.826253804986,1464.90230061036,-166.513455408436,695.803409054622,-93.0943668012994,492.347707626496,-10.7281601263919,331.502155567786,-41.7701696776476,2211.37734734675,-173.853441744511,284.588991841745,-42.2194112806076,724.40169816206,-77.4866653057385,1893.24982389256,145.538083807147,580.474441438045,-86.0816476052797,406.739164191383,-38.2373183332653,899.285019335687,42.6569181193415,650.76026077274,-25.8215150604976,605.8231822668,-69.4742022266272
610.362557976256,-60.8808127373452,1677.75277773175,-234.492713123719,1475.15338315196,-176.754539701761,696.92876081238,-92.7349102128389,489.725003776202,-10.1750550728057,329.655190842877,-40.3680929388205,2201.66172390084,-171.870642006857,284.91116340262,-42.6594474606041,723.451237021354,-79.0670635185874,1877.16511172656,147.848903331902,564.342660471953,-83.7924938496348,391.782978437495,-35.6335969384393,882.035002403569,42.4577513031795,637.824337871644,-23.9798125568816,596.368702847505,-67.6935815642009
600.291045753209,-55.2110843024466,1636.38737567016,-220.664996905368,1469.70146526148,-171.790399888675,691.986233411098,-92.183550972109,487.674968986902,-10.2235531651018,329.164324217501,-41.5194810324782,2198.32483254847,-172.415503628098,283.349000046358,-42.0797931724907,722.786166777172,-79.2327200107199,1879.40443368012,147.713506053102,568.661601430777,-83.986739361529,397.317069154106,-36.6043284931906,885.004198987753,43.0969343198055,640.224948809301,-24.4147448130114,598.080446743442,-68.2705788076792
607.900454734895,-63.531633925576,1662.22890227706,-236.794123394176,1474.07251837834,-174.257725092027,698.272709927318,-95.1004285480811,495.111220006011,-11.3518138334888,333.609993006393,-43.5930365698728,2226.26719456675,-175.38746098717,286.120149923815,-42.3289382567288,733.019969652126,-81.2324654037283,1904.71162223135,140.495028760714,587.191657178405,-88.8946274529792,412.711192619488,-39.4815286865661,904.847732561088,40.8605842981967,653.825208480027,-26.7772835073796,606.527772986791,-69.1471989031865
604.164520010637,-60.3750439579032,1638.12659380284,-219.296822381671,1481.55630978125,-173.752321159888,693.930030715059,-92.623974804583,486.887246327363,-10.1875531447274,331.806451231084,-41.6799751911019,2209.26463494898,-172.057673279632,284.719284910918,-42.4051934823808,722.711660807101,-78.0252223014197,1885.5941843087,140.053468665017,572.193214886012,-86.3202364545061,396.521862309181,-36.6815660692315,882.620904816228,42.6984143834091,638.931520868171,-24.2548401482307,597.484761236259,-67.8911519878797
591.602127435088,-50.8657694767528,1643.39042611914,-223.505146587308,1478.53383475854,-177.050760359433,691.941004616431,-90.9044740288963,490.144787959067,-10.6299901258949,333.802303144909,-43.0320599307158,2209.67415391136,-168.676757368713,284.652528579843,-42.2171806213936,724.620993054691,-77.7282603758906,1886.70179153218,143.717959412071,576.032293093734,-85.5886753854655,402.815505797601,-37.9384272635772,890.994842215457,42.1821605473204,643.03458258366,-24.7676470279334,601.096148961534,-68.2546306242741
614.539362065674,-63.7928537164714,1673.31217654115,-229.400769370455,1475.79068835771,-170.135891022781,701.885034214155,-93.5028691854098,498.119415453319,-11.7061889914457,333.935209660703,-42.1137638629509,2248.04189360536,-182.038933664212,288.595298527342,-43.422051795833,737.634231059775,-81.2638135643845,1911.85885435159,145.253295891579,591.662329329191,-88.0220613704073,416.871606460019,-39.879473684467,912.441701467591,40.1536514403074,655.600620969773,-26.6765071206019,609.577079228023,-69.949009061139
618.531546000894,-68.3993214821575,1649.75835009233,-226.721635966058,1487.19145568193,-175.149654374609,695.974566961399,-93.4880893355599,488.330107861214,-10.504372192329,333.962129819904,-42.9375951071576,2213.38471818419,-174.134602691632,285.069580730047,-42.3598037527591,726.112777547594,-78.9904790341885,1884.09117492643,144.397754784346,573.602167850158,-85.7350994273799,400.440971200571,-37.8831551301294,886.476827418989,45.2436800735299,641.662239569881,-24.6180003848565,599.596386646289,-68.3370278966056
610.252262565574,-63.0429048748232,1638.82982556408,-220.490191332316,1477.75671923721,-170.610894789963,696.363236767007,-93.4073764080259,491.858315516997,-10.9213375046964,333.613349209489,-42.2117844855807,2222.07791234002,-174.959296571283,286.365499228247,-42.5582607123325,734.658079982683,-80.9439684650816,1898.81141315919,138.861762224494,583.78029004287,-88.3842572638857,407.638057334973,-38.7678697036752,897.344083425999,43.4860589144285,648.455133397226,-26.2263427931142,603.731947015428,-68.8309160339775
617.788461731776,-65.8607785386545,1668.39346777581,-232.851716561983,1495.56615994364,-169.004531491318,705.271815632761,-95.4408676061838,500.815903440924,-11.9395659516958,337.396720824207,-43.8913407662558,2249.18689174881,-181.563802433641,290.22623713441,-43.1930251800101,745.754797749333,-82.6834212842034,1921.00576368084,142.391299043423,599.824976046885,-90.9989221342645,421.157460355256,-40.905835080453,919.864936892776,40.7897476541636,661.022399409158,-27.4346824279882,613.175847520276,-70.859415903587
612.790965085583,-65.1062076935438,1638.75427462668,-222.00930379963,1467.91635015315,-164.25639827709,697.450412182062,-93.6761978308101,489.217237605968,-10.9218402959922,336.995536398876,-43.9469133025123,2216.03900129239,-172.463602541188,286.284259650341,-42.392344492673,732.943482872558,-80.4430016812799,1884.34028125974,146.433900842077,576.613966298923,-86.45382355221,402.848056419802,-38.2999873722401,894.797941499423,39.9738451789727,646.001934942176,-25.7313885356329,600.843799817463,-68.4006476975661
607.69316838993,-59.861171942542,1644.29894286058,-226.035170399933,1466.59484508397,-160.896912192433,697.067512182977,-93.7223100830855,493.523050996962,-11.0728363748145,333.716876208591,-41.9070126731844,2225.9494189778,-178.253608317487,288.036125191811,-43.172337117768,736.797151409816,-81.916057993637,1895.2881459405,144.849136760767,587.346078477884,-88.6236865362627,411.98956788831,-39.8067907388735,905.446110647876,39.8499267146779,651.518530405759,-25.7642233798801,606.827828175038,-69.6396174556182
617.878475212947,-66.0767574906981,1668.60044661507,-230.515475507156,1513.81018413584,-190.657234691925,706.719729680709,-95.5390766171275,502.609231273964,-11.8861015683688,339.855336949656,-43.8497479018347,2259.39368904497,-183.468751864796,291.454537826998,-43.8398138306333,750.114477759568,-83.1928412955857,1924.88972246312,143.647118736067,604.482139734069,-92.3882970838079,426.659974965824,-42.0876235135173,928.292289692448,37.136326619137,665.350333671628,-28.3155034478439,617.072986344261,-71.8981979467028
609.883506633894,-65.0036883210019,1648.05961949378,-234.692702427899,1481.32739302209,-170.729508007568,700.736895054297,-95.2795302332171,493.354888140013,-11.347837583236,333.758357081697,-41.8288051913257,2222.53163189787,-175.564418165582,287.798817483375,-42.9691838039223,740.503773606304,-83.5445201078081,1896.04093286123,143.201674823007,583.892066084445,-89.701611533955,406.886260492624,-39.4668369997199,903.011817293607,40.3796547188329,651.020110216498,-26.856561383103,605.640189202811,-69.7379763895937
616.868662507075,-67.4599026776312,1655.41058740233,-223.979823566284,1476.85976678229,-171.444170223155,698.886991188698,-94.0630607762618,496.950044790825,-11.9723231863433,335.232165788395,-42.2339689430195,2229.26005765525,-177.365059397948,288.44262165321,-42.9420355279218,742.686542761575,-83.5691519966687,1901.26981860535,142.218758466643,589.331248376286,-88.6748048577213,414.435540897279,-40.3257583842929,911.069862530425,40.275773531511,656.094708771615,-27.312104434245,610.726651550453,-71.0373487614911
621.485686483601,-65.5264728081307,1682.74568879475,-226.619410758105,1502.60568835308,-181.177166577231,707.508379753021,-96.5082783903123,506.797910249307,-13.0414750665152,339.817713803179,-44.2174300548369,2250.84036905546,-179.086620611916,291.827746827063,-43.9834343646886,752.215941588159,-84.5698232566706,1927.10812186938,140.586220759671,607.63538075979,-93.8248482884916,428.068221219402,-42.4227596660411,932.355657085337,36.3797681555071,667.649669168263,-29.1648639313086,618.719876380812,-72.425455462496
614.280438465069,-61.6474183313221,1662.05815114309,-225.16212001147,1495.38713363734,-186.096398219688,700.017510418029,-94.4947563224686,496.792079757433,-12.2677951442831,334.628472993544,-42.000407827886,2220.01872248468,-175.280756349824,287.804740152162,-42.7990115813693,739.913104204035,-82.4008465437698,1897.22239887727,143.749646715566,585.480621654004,-88.7236025975711,409.749111421076,-39.4730215216026,908.388069115467,38.6194266725995,654.438705694575,-26.8717940005797,607.84492347118,-69.5891533296983
625.468752499497,-70.8698754708269,1683.01430481663,-236.42098992143,1479.62096298137,-173.94196606818,697.863177199746,-93.1022561770787,500.88163376692,-13.0117326709985,335.706429716342,-42.7330429068356,2227.92832706174,-179.241229753352,288.017796469544,-42.9998276246145,744.54944428672,-84.4292397341205,1909.831114768,138.78894037628,595.130469923015,-91.7922384370595,416.99301829361,-40.5095188817499,916.346907141443,37.5852278799993,658.789241704449,-27.5197865716886,613.311146030858,-70.9735642518811
620.411520238462,-59.8334215660961,1715.89847460776,-248.641402894398,1502.97834944712,-186.567933897981,706.852533067431,-97.4346325668617,510.295539998046,-13.2377578081968,339.336690632809,-44.3537216460201,2259.5603232855,-187.673534939959,291.65618802936,-43.9258950269607,751.471991956991,-82.8872116955714,1937.50017510515,137.64530258321,600.437852152209,-91.3725837191847,421.71723884932,-41.5567231732205,921.329920450554,36.6357492661676,660.594120927454,-27.9896879041746,613.087379722202,-71.0563521646987
614.602972667059,-68.4203990053991,1675.79094787017,-222.971672695584,1483.7772785244,-180.455417939292,695.614279047426,-93.6886763112916,500.12243861298,-12.6669986179367,334.116412676809,-42.3554170881957,2217.68024994581,-176.233194392176,286.901822057249,-42.5504794444375,737.203992559637,-81.2297257002045,1902.05050034354,142.676280277337,587.090849569916,-89.2142220435287,410.246722972291,-39.443761024631,902.486280975829,42.6766222864593,654.61509184121,-27.0516227160335,609.701474176786,-70.3437521862238
621.785731774355,-68.0861317991246,1699.67237949907,-241.747065383627,1460.19628166583,-168.242571241966,696.749446436306,-94.9132109952462,504.976261229604,-13.3541338160741,332.667548198857,-41.7090527374752,2231.57960290482,-181.945817207032,287.539070597498,-42.7115040828357,741.320559780083,-83.4617324847846,1905.81496330341,143.730968727853,594.097447604103,-90.1320791940763,419.474521854553,-40.8997128161088,918.408450124923,36.419797275004,662.47619514016,-28.5200074471714,616.335256504429,-72.0493780993098
622.15776295613,-67.2424446210279,1717.17488381005,-233.76550822788,1480.12488320417,-162.126328175465,704.243888556116,-95.1954644461875,507.061410090478,-13.7601634177587,334.790750063304,-42.7567821577836,2231.64415327453,-185.211032497296,287.558301748341,-42.9537330601232,738.757223214679,-81.6978923702807,1901.16530885923,142.883578074748,577.712994575353,-86.9009074351104,404.308724012295,-39.0580247846399,901.839442263671,40.6076660173554,650.497469944271,-26.4132675026589,608.138945077766,-70.1907209459796
617.173924035571,-63.922402608771,1713.90454944439,-243.663545680825,1476.35744764542,-176.123658663859,690.070214589795,-90.3988313751968,502.405898934788,-13.0409131072632,332.898283737631,-42.6994908392087,2214.68898988902,-176.489869621324,285.350784327177,-42.1945694642442,732.874639292824,-80.4556863332742,1893.89911234298,141.584942867571,582.324854582506,-88.017309018362,408.073441553526,-39.1572673968839,907.080388008553,38.6492668315043,652.634673600065,-26.8386571526589,609.500863491865,-70.7759673286138
626.875382023477,-63.5977698640184,1714.55065266464,-237.937940976913,1478.18402171238,-175.664464342134,697.073689185241,-94.2186849322969,511.601972233062,-14.6994200937266,335.028025745189,-43.5247661256816,2238.93286907673,-184.74357483258,288.133637517299,-43.0766709852042,743.687974177057,-82.7910372833308,1913.34088926053,144.703855706652,601.258001629648,-91.7881358661298,423.885975576999,-41.8810748455573,930.334252076813,34.433238776549,665.201751064496,-28.2405743157959,618.836345919444,-72.0152505128338
627.847340162944,-67.3838091271992,1706.58112176793,-233.277193875492,1471.16976672878,-173.435370603671,694.632354711153,-93.8236479658159,504.80719694748,-13.6080565082754,333.969448817923,-42.7834593099426,2218.32469161902,-176.225504739181,286.728418288155,-42.7846283147518,737.360593948912,-82.8443357844166,1898.58181047651,142.379331301799,580.683020851938,-87.7672855283726,405.707158783633,-38.8705864504026,907.856213632961,37.8333789683974,651.906045376391,-26.9666414490537,610.324439749353,-70.4350457816278
624.889228781911,-68.5276795219273,1723.64365483516,-237.797723836313,1477.30723638471,-169.465800230561,691.702476821769,-92.3277868139286,508.474003593778,-14.0754083795955,333.181074844942,-43.0794520551945,2227.45834246723,-180.550713418927,286.469526567382,-42.6812283577233,735.581261946289,-82.4874407597024,1904.70492737983,142.852613601906,587.913630277307,-89.4077602392261,412.036327242694,-40.0941371310623,918.613926329416,36.2747641208464,655.210161949369,-27.1547083659823,614.034216339432,-71.6887376602256
626.719324790126,-66.1078193662906,1747.99815030304,-251.74539646356,1480.16792781636,-165.841746824359,698.319870408682,-92.1138326412648,518.584387430643,-15.4344491620824,336.07116790461,-41.774603789664,2257.30233915326,-186.003456937108,289.698260831781,-43.5718094375265,750.80382705369,-86.365357255305,1931.36209059575,138.151907621841,605.753163619716,-93.0812945797259,427.748672011666,-42.4468803663154,937.533056620712,34.8570707239707,668.172548569511,-28.7553668833052,623.994995946995,-74.1229674757055
622.502828242078,-66.6036751765496,1729.51557282933,-245.725668907847,1494.17727399544,-186.78410048578,695.570522450236,-93.2834469301893,509.545508749891,-14.3278060654426,333.589401451153,-42.7529554671586,2228.98170412677,-178.447617591802,287.086388921937,-42.8944704897547,735.873519231717,-82.0489118063781,1912.04301423889,139.601663242347,588.287160577217,-89.8545815612399,409.859387581889,-39.6262015530482,920.526848312171,34.6118242439185,654.677057173397,-27.2920979196393,614.39510818194,-72.0955659683519
632.598894602445,-69.8272871403986,1757.44217088575,-254.102722970055,1479.47306814812,-170.859216888808,696.910982777137,-94.3655190315414,514.91771998446,-15.1360891534893,336.197621467171,-44.3022960810096,2236.28113209384,-177.89757263947,288.18919041496,-42.9240858241305,742.179591823005,-85.2766058312286,1922.40449232152,138.392650583639,594.091769813975,-89.8763741148174,416.76933507314,-40.8786034146699,926.075843206146,37.2286003321385,659.804529947333,-27.7968984252803,618.558760860835,-72.6326504910427
632.637641399529,-65.8384548692547,1752.26276899735,-243.181892528132,1486.65521367743,-169.486914691759,700.621999237275,-95.4218548060014,511.248088938052,-14.4474829363494,337.243492999034,-44.029849092739,2239.82684356151,-183.81982834103,287.6787704501,-43.1308031211795,735.776071526549,-82.7188334595762,1904.25841821998,143.337748034358,578.466205798646,-86.9468407498457,401.698342142166,-38.0904126602382,912.341638125607,37.266845635804,649.254206358834,-26.3418250658259,612.286829048573,-71.4141740527192
629.169989823822,-60.4634258374071,1748.88179918888,-249.576366824588,1473.25450933919,-163.883801255673,695.73164108877,-92.6279036324733,512.04785961677,-13.9172753364747,335.203102079513,-42.966973264047,2234.7065548532,-181.164295758295,287.496565853793,-42.9008388159498,736.450783149618,-82.0597168943272,1908.43650387896,144.379335554192,585.666141326987,-88.7089861754918,408.396901517692,-39.4766925318985,922.198538635673,36.7656979549263,654.149056286813,-27.5965804262381,615.967693134649,-72.3672916069927
624.226903920879,-59.7343181614004,1760.01338686724,-243.801848213442,1512.14889847832,-183.942963614093,707.058035012418,-97.1671609134895,520.526275018747,-14.9249574361158,338.637331333483,-44.2967976452737,2264.24671614434,-183.055418428816,291.049128180069,-43.7580543490769,745.826095700615,-83.4277575099024,1934.39875624027,141.798087113444,602.358861284244,-92.5662907617706,420.033204097127,-41.1161342189883,932.805272233267,35.7843309789615,661.357652327333,-28.2492707109093,619.498197687272,-72.676874877641
634.425678780659,-63.7576665736192,1746.70091884716,-252.154261123444,1479.07356582725,-166.856587271086,696.554584558593,-95.3297404867086,511.571323471709,-14.333440381785,334.163959117537,-41.6903644273767,2232.99535349574,-178.87305019316,288.335137749342,-43.2026501977651,734.46548433687,-82.1378226047736,1909.10982605325,142.203664093898,587.673666887593,-89.3822274487423,404.665454809158,-38.5985917295798,914.199637042212,39.753232846231,651.868956190558,-27.1229865117653,613.359175543633,-71.6752521109967
624.208323743429,-60.7674358716729,1750.16931827059,-251.097098124811,1497.98648284349,-178.360386095627,700.738072144489,-95.2748790797458,516.640020525217,-14.5417628482257,337.768370843598,-44.1057955815617,2254.24833488179,-183.745512297426,289.426752921305,-43.3557138830927,739.100276339539,-81.9170201183333,1921.5064267243,140.799183957051,597.248326595558,-92.751424269335,413.098427709718,-39.9272945735713,929.420177725433,35.6942787593733,659.139642089264,-27.8302701042672,620.215519193384,-73.2200408274564
626.176413503841,-54.8829431316494,1769.14376499587,-246.566652325497,1515.80742181915,-181.140318359394,708.320996738361,-97.1054132061401,515.421128093893,-14.382877526805,336.610899355217,-43.2529962593916,2250.1864039098,-185.265455292448,289.742588281186,-43.2906604875945,737.005929394362,-82.4819572903506,1913.64680460268,138.815059620637,578.730705854804,-87.2764898241505,397.136170275255,-37.6455743559446,912.702909558186,37.6608814888869,648.18411309426,-26.4859627359245,612.659212213775,-71.7073691554149
628.567685815707,-64.3879729203673,1744.06159237703,-248.324978101161,1502.70412800308,-175.069265370381,700.024135935508,-95.1007668947322,513.333243677548,-14.4074979404937,334.949894579061,-42.5525743981028,2249.22852130847,-186.645885972749,289.655770899152,-43.5653931225744,733.535949130359,-80.4192904388509,1911.8313805155,139.91898235461,584.334298230297,-87.869149563145,401.081895023453,-37.3795891259424,916.824423634765,38.3843839935371,651.174943447727,-26.6860592838101,614.359771245621,-72.2491146359068
633.85764287184,-64.8390356795192,1756.9709088373,-249.113864481897,1489.78525885104,-174.838046225317,700.858063762583,-94.1277946154043,520.538612431945,-14.6814289450997,338.522589081984,-43.7449445139024,2269.32452084227,-185.808875342332,292.239465724936,-43.9948376930895,741.81662498755,-81.3953127055534,1936.78187018408,139.690880613015,601.241983278556,-92.6352020354073,415.823203405106,-40.2579787659743,937.33914304514,35.3183785575036,662.493917185386,-28.190084544318,621.089150761243,-73.3336936791337
640.279799949782,-74.1003821422334,1746.81524160067,-251.086355340391,1492.13325829681,-173.511750366614,698.397774786331,-94.6522786699958,513.340313048592,-13.9044413432533,337.352994313574,-43.8734313495502,2256.3573262695,-187.725333349958,290.895389309289,-44.0621828244016,738.324064319724,-82.9631504873965,1919.31865671485,138.219428621041,587.428273236455,-89.9295737450074,402.098669129873,-37.761753203133,921.926472647841,37.9854304892074,653.91618347684,-27.2099903295678,615.657288056933,-72.3541633453197
634.797106985416,-66.7944352485525,1761.53270869211,-243.316928735636,1516.23857368717,-183.855347913923,705.168879151142,-95.9062550775153,519.219355114347,-14.3110637151533,337.785293394036,-43.3441032677602,2267.77398143181,-186.035212406452,292.561305923443,-44.2706950645634,743.662078415539,-82.3312943356778,1934.62745209904,140.208027363725,597.947737814654,-90.7560014870389,411.398149392308,-39.3807441080069,936.520767168772,35.2962405651252,661.631661297974,-28.2889205711462,621.55861530155,-73.2978559554181
635.935380427642,-58.6609004605548,1792.97975695333,-262.045966262994,1507.39224605239,-170.69848782881,711.841285421586,-97.0166286519581,524.886343478733,-15.4228546966434,342.183805535261,-44.3433619149027,2278.32104124318,-188.539697376984,294.110466311526,-44.262827362373,744.737674370832,-82.4022110503945,1937.58227706283,138.254595109424,583.246325890505,-88.2511035058015,396.977994065423,-36.9953102038589,923.140453751656,37.8466789330234,652.494866045531,-27.0065818444702,615.061573317963,-72.08879578037
628.678573421148,-61.6198100413721,1758.13359954649,-253.40876591936,1510.23922159132,-184.286700080844,705.462453330442,-96.3220388707661,519.318250977514,-14.2158125762729,338.16144793159,-43.9628704613066,2264.14627171125,-183.373743396335,292.55808620504,-44.0743714233729,741.173271492749,-83.7822955429164,1930.2491410566,140.723142499499,594.342226862765,-91.4770370609252,402.71988134228,-37.5892056160294,927.511016957058,37.8900912066209,656.487957879991,-27.5724774748235,617.214169266666,-72.7868673594292
637.986931886407,-69.0738203549501,1771.56310761099,-247.03524490791,1511.7765127828,-178.68864691821,706.29997077063,-95.7389849518376,526.147871897559,-15.5411996068779,340.563007984367,-45.1612301240481,2290.20806750037,-190.387360502039,294.254668300266,-44.3628891014872,752.682014969948,-86.2499531774701,1955.75705641379,136.880449592983,608.694047697292,-94.2572038755436,417.661181575391,-40.4012754131846,946.506942325855,34.6414401986577,668.881831590168,-28.968216669503,625.107099039146,-74.2771971369968
635.817064191209,-66.899689616181,1758.61230785904,-251.235737891097,1488.55093498743,-175.647783795416,698.471227206534,-93.9737533985949,517.454273392831,-14.3036677206318,337.771937739174,-44.1968786437157,2257.05098064758,-185.038994439148,291.807318198585,-43.9884066543141,740.718102648394,-83.2294903357068,1929.26756631319,144.032791288868,591.709555548527,-89.5257247358709,402.853599344983,-37.6053404216954,933.124424022873,36.348312676366,658.305491958014,-27.4942735416391,616.502447726706,-71.784445264679
648.401557018173,-69.071946716755,1759.06169921335,-248.744601127219,1485.94201856043,-163.859177915204,701.972232072796,-95.0650671493486,521.973291217415,-14.3429549708662,338.716285253061,-44.5993661921157,2272.90825132094,-188.635777957905,293.059620168097,-44.3915206663428,745.618283411316,-84.2493431550682,1935.8576169258,142.944419911486,599.059218253458,-91.9267378767654,409.578143324107,-38.5844723751928,940.146757646059,36.3657234312189,664.689729339732,-28.4616186139677,621.90267038376,-73.1424246748534
643.127069084278,-64.5578218032401,1773.23963261342,-257.868747133127,1495.9329832361,-177.39659073244,698.427559809318,-94.5358028353267,515.593950539182,-13.5631930190012,337.43257565391,-44.6415051157533,2254.3274160999,-183.813764852508,290.987946937393,-43.54598521496,734.861503414035,-82.0289584092069,1917.78344618401,142.526174171827,583.539261505284,-88.7521566647599,393.396775195932,-35.787196662151,917.103875898695,39.6277814829869,651.859282434008,-26.1393384291929,614.244108683424,-72.1228395276306
637.022560146063,-68.5283151720407,1751.3068737079,-247.427035582961,1488.10222262445,-180.868941310253,694.612459677643,-93.1610959396488,516.371815724517,-13.6303145663315,336.277775515439,-43.7434027625281,2242.16220428034,-180.957178191386,289.853602532501,-43.4819586697979,735.537727283321,-81.4520594615502,1917.84567724074,144.419801800936,588.589853844962,-89.3049178797594,399.631263979663,-37.2567473568388,922.551322260192,39.2804013295477,655.779284988673,-27.1053206621593,617.241902232863,-72.7119459408468
652.805080788032,-72.388768101771,1769.64084043412,-252.8574876481,1493.31560509371,-177.195310141181,697.136213587362,-93.791961913231,524.974404751163,-14.5923746271405,338.548260420433,-43.7863297731946,2271.231215101,-188.495367217306,291.378436230808,-43.4765024026507,743.939607316522,-83.121407171588,1936.91082152032,142.778640023523,601.261181652948,-91.849614611855,411.739479580104,-39.2328671627675,932.043138478714,39.1316930079209,663.867740383065,-28.3524691343819,620.936644697154,-73.3621254531873
623.090014591479,-64.4906674649369,1744.43982619738,-255.004494425975,1472.26377143494,-169.377821722608,685.522858519795,-90.143265294613,513.588577849974,-13.4713790748466,333.834711755129,-42.9493125031241,2231.42046406097,-180.529087121951,287.773944250736,-42.975622749936,728.255102867621,-79.0670633047819,1906.36963060372,142.437295176429,582.903813784854,-87.999391863469,395.628317350285,-36.4478067610606,912.936182645368,39.9958009769274,650.449991908523,-25.5103436913424,613.951125042876,-72.2301014095758
629.620090659663,-64.0751714257994,1744.50975731376,-245.4986639035,1469.44850437167,-170.420542395163,684.21406009376,-90.7870710798837,517.393216550102,-13.5431361725127,331.838189928845,-41.0780708363971,2244.56330827121,-183.814698724627,287.938331401356,-43.1469467026589,733.146418083355,-81.6485296006188,1908.19419740529,143.484321512954,587.057644202377,-86.7427313962312,402.765561565996,-37.1739625795065,925.065844531729,36.3369364839395,657.672495595032,-26.6833529923014,619.714748719944,-73.2949720691621
638.070961169322,-66.8650624346229,1761.19667392242,-243.034207553839,1492.89255801618,-177.030345453279,695.970672674918,-93.2478512486605,523.678886642795,-14.2493417209845,336.140909446013,-42.3020206641964,2248.94298576078,-182.03977183148,289.199188610163,-43.0738410118535,739.968296440193,-84.3833493793898,1914.99845811587,142.55038177314,576.693105825959,-86.555593293377,389.058995488097,-34.7505360124949,906.812530753008,40.5901653068596,647.80288257432,-25.5798211928817,612.229529778697,-71.6480116762037
637.505403031444,-67.6161132964142,1727.48911588031,-239.186135997329,1451.86132011651,-165.669886295833,679.442777784732,-88.7017357700636,513.878991176698,-13.3073499585265,333.358388589557,-42.6488475884789,2224.47249605484,-178.987803853852,286.602321661283,-42.8114995647455,726.993775594336,-79.0601203991689,1896.82075470633,145.139151360906,579.505541245669,-87.6797123401805,392.726772913844,-35.874846538445,902.38061636081,43.0692601740571,649.167940991894,-26.18033447217,613.412667617624,-71.9936787055405
640.88839645439,-69.0159782341542,1742.20836043805,-244.477960260743,1478.37444274833,-174.191144991652,683.098102458429,-89.6408258042757,518.517979803326,-13.5100558317452,335.471355076435,-43.4818220105761,2245.74954257012,-185.798167578246,287.604756708398,-42.9195236202473,734.104440810062,-82.0727085710023,1909.22376398142,142.460967812166,591.742266438573,-89.2970020115029,406.780379304439,-37.8744246025937,923.58416660392,37.3724805015337,659.847933178036,-27.1752932203535,621.875771807366,-73.3973180489889
628.376238598,-65.1741186934258,1736.48306727461,-246.235628542051,1455.42025728489,-162.75808824609,683.20844862041,-91.2429172313009,511.275956418283,-12.6620184210728,334.245725511475,-42.9135503281672,2224.06563126883,-176.165660577796,286.038661682349,-42.3528216612675,727.291042970937,-79.4599477796868,1898.54228620545,142.2610695539,577.404949764223,-87.2487191016587,392.231283798573,-35.7556233522363,902.651444741647,42.0120939249911,648.397895372777,-25.6499398378438,615.107439989148,-72.8248686831711
634.240216604209,-66.2500012663866,1752.22351398549,-246.907494839722,1454.01356834292,-160.163239392885,681.42551241642,-89.7842188401689,514.446203708787,-12.73593119552,334.343539243087,-43.0779289048977,2234.04746780751,-179.7310030081,286.489838457754,-42.6824005376477,730.351555386348,-81.1228956500511,1895.0236997774,146.120601333546,584.224489427305,-88.1130620055801,399.100263371962,-36.7261323635935,909.637737061176,40.7363596650768,652.741611664578,-25.6756969829785,617.406821215938,-72.8433071425645
637.906731641935,-66.7422752279142,1767.81875696609,-249.344783010626,1474.37343874062,-165.015313977681,693.164097414985,-93.527283010959,524.983488128542,-14.6819101959874,340.030472268638,-45.0049120142167,2264.2673410741,-183.246277077631,290.134380769284,-43.1645615758042,745.966951517282,-85.3966191277744,1931.37540238249,141.234244575462,602.165873196983,-91.827412006667,414.328489196374,-39.091278501975,931.133430259164,39.6046829743914,665.288002838539,-27.9261467135421,626.371701296354,-74.5278875850123
638.655868949877,-69.8786655720027,1739.15441172763,-236.416824306533,1476.50992460274,-167.582422425422,684.22992160669,-91.173434574481,515.084845820728,-13.38378050674,337.039477835337,-43.6361942766608,2238.46392337336,-180.128419991206,287.839790224183,-42.8922935452291,735.349813460287,-81.9009581948498,1909.75523833724,141.02938929672,585.41474501343,-88.2482899946675,398.412080146515,-36.310547729787,915.484428803382,36.9891174060151,654.781510009813,-26.6260738724154,617.924314030849,-73.2960254278065
642.988040353197,-68.579539959874,1752.40499268384,-239.246077055989,1489.97786781961,-176.75445336212,687.608738840404,-91.0180396928213,519.799244700061,-14.0615832549424,338.241792608832,-43.9037119794047,2255.33657577338,-185.712526733297,288.929597321565,-43.2981903598416,740.664714575637,-82.8699351431104,1917.5387146094,143.146341877451,594.091808399009,-90.0635786569915,405.711336351845,-37.690158945285,923.509383907209,37.443145681892,660.621828502968,-27.6519096290962,623.247868900747,-74.5433960123145
