591.621740447663,-55.8544825487841,1635.75201808913,-212.076117249346,1424.44143899938,-154.067730303967,689.57480147981,-91.214829450832,483.116312312639,-6.02743260591819,333.012486904248,-42.339164022606,2155.85619747661,-156.947395806193,287.736410253381,-42.7187588377198,712.505316162791,-75.276285160079,1908.70393980707,143.642220338221,542.044837468887,-76.5014709588347,374.647548718389,-31.3976524542759,893.018351916612,46.3097154010274,640.625004539821,-23.198416279876,588.553996511388,-67.9265339643614
583.946051170374,-54.2852942442544,1608.73682121831,-207.12197184767,1405.92795977362,-152.551340842774,679.995025096383,-89.6742124939757,474.095373514343,-4.88404075522819,328.546974366192,-40.4247952232758,2140.85533807208,-160.80467238692,285.504121401181,-42.1495606453818,700.384050053346,-71.855391364905,1895.22030957882,145.309967341729,546.524956880008,-77.435194549595,379.156950675165,-32.2744048893794,899.960863527976,44.7769915683348,644.655592921019,-23.0408743979047,589.63225907614,-68.2001298799967
595.447325228922,-58.6205288602004,1620.76762982541,-217.79486486866,1404.01285120768,-153.256852869315,682.221485684796,-87.5095501979617,478.756854700451,-5.53606372499706,331.304255270979,-41.0300270327909,2154.7840457647,-158.064181435707,287.14468505327,-42.5006976528895,713.814997809259,-75.6661637436274,1908.85325071706,146.244772242488,560.169127727522,-79.3087224129327,393.055369217776,-34.2741877480626,913.859975886593,44.4189662833027,659.825015238793,-25.8062941845742,596.452854027086,-69.2297174796689
596.045938795245,-59.2720706796123,1620.29670227826,-215.780660820847,1400.40211768758,-150.133204533987,680.854427693919,-88.693818013233,470.659329520782,-4.22411490969121,326.183642418245,-39.8116532521196,2140.00375490303,-159.695476070272,285.040253682676,-42.2867106044698,702.40256431836,-73.406160627027,1891.63665209214,146.243225150398,543.634239393189,-77.3776809298833,374.027164891683,-31.2813993349363,898.382309660585,44.8018777740964,643.137100690611,-22.917686389508,585.392123303083,-66.2472472716134
593.269452235512,-58.41556399103,1607.87586899311,-209.442627531632,1392.30158089063,-153.161561099167,676.835169153966,-86.6991757441742,472.58504826787,-4.44451909105325,327.071716032628,-40.5368795432978,2130.48901646238,-152.5029410637,283.747710904514,-41.623319752541,702.023893867487,-73.489323478682,1882.59949697667,151.882127963826,549.695335743381,-78.5821273976675,380.705363523593,-32.6433384204626,907.583349765975,41.7708949922392,648.442034345593,-24.0917917508156,586.370861820054,-66.6397317636648
589.193961587261,-52.1632510098896,1625.74945053071,-214.611994236441,1407.51240540766,-155.791147494574,682.079220940381,-89.2685501627177,480.975978338847,-5.69356637035443,329.458550450498,-41.8074808733652,2152.57200815163,-154.190526782983,286.735549804638,-42.3701905920328,716.12174647261,-75.9341212442602,1914.27582222583,143.289080072768,565.873164263308,-81.3970924339826,396.542884528222,-34.9143885697821,921.360629042148,41.6555284784877,661.620621818555,-25.8866935151686,594.862674800497,-68.7271045812157
588.876962857603,-57.957891150539,1603.892465838,-204.523256152224,1386.37946301197,-154.153359285939,675.561242130595,-88.002891335382,469.629586765928,-3.61489954721711,323.467239104446,-39.5462584240665,2127.26030097904,-155.263994106668,282.88868241613,-41.6155992885825,696.976224220645,-71.3772123976294,1877.80619970003,150.16188425937,544.902009898307,-76.9014874922839,376.887434420525,-31.880818738351,900.598002624541,44.8180757259677,646.298940919133,-23.835423672154,583.006878333389,-66.1911307377694
594.247619790528,-60.507608845696,1604.78554538548,-203.925219820648,1365.11692454764,-140.073804226144,670.015552796561,-85.7623300389823,472.634726567301,-4.05117651702133,322.20160680207,-39.3477481530311,2128.38373928449,-154.598519015767,282.308131512624,-41.4221784218685,698.697231377517,-71.7975973896277,1881.91882337743,146.394477260147,552.320407193947,-78.763577975093,384.38736180536,-33.0000659242299,908.242718956711,41.9211172627688,651.238490918726,-24.561159252215,585.850199243154,-66.7113197167649
591.236747338051,-56.0857064527264,1622.07271690032,-210.113805449685,1393.39818464659,-147.36245078592,680.24874353157,-89.1243989075609,480.872502668648,-5.08407589051729,324.9866383892,-40.4838322636605,2155.6352040533,-160.871946080423,284.644898269308,-41.8436257750817,712.863015647759,-73.5864189649651,1899.69173478806,147.937213824127,566.105750349656,-80.4951569755909,398.882641845804,-35.3777217319573,923.645042181077,40.6141307230081,664.509131902053,-26.5463809464355,594.619534007585,-68.0230801894141
587.437150426171,-60.3816087165961,1589.22381136126,-203.610491769088,1383.92589134633,-150.57788518471,674.515342341391,-88.5293578898829,470.643678543894,-4.10799084278859,320.607047725786,-39.0398325447387,2120.83368412769,-152.903328441804,281.411434216651,-41.20140641759,696.30343122816,-72.0432699442422,1868.84992389233,150.073259931581,541.621199816522,-75.6655807507685,374.628601706943,-30.7269006569581,896.917275083802,44.5430676269628,645.64329228184,-23.5531679259742,581.831926386411,-65.3445234822835
581.640539466509,-54.0513380645843,1605.33904416237,-207.566015933663,1390.26835480087,-158.980527716953,671.65433077256,-87.8246007361738,471.425349003175,-3.7001352143644,322.14351065122,-39.7500804786468,2117.28828025159,-151.475340630575,280.948605896452,-41.2864005049715,696.766419875681,-71.6417661148926,1872.33831146999,150.902578455032,549.857337353738,-77.143913383474,382.560480915704,-32.021569926027,896.876457117245,47.1064429405222,651.183273047637,-24.1853672887008,584.987513312065,-66.6724889102129
599.983107713969,-64.4811590003714,1634.20398996608,-213.499137320006,1398.59590840446,-153.749608157345,676.728768815117,-87.2761530574159,480.034188450912,-4.29845331169408,322.725769351821,-40.2870426991928,2143.23701955694,-154.692054556582,283.123858600309,-41.3772492207167,709.852005428845,-74.0681329921798,1893.19481913012,148.419030761082,565.858529484798,-80.4542408569255,397.936215606773,-34.9354122305758,918.732122838559,43.3821640282778,664.219237456265,-26.1904029906644,592.752178620175,-67.44286621571
588.326284484402,-58.7309055933057,1594.61519592981,-205.427034871912,1377.65317944433,-145.131326592906,672.757785480752,-86.3535557529753,471.137875140513,-3.44987739082155,321.823632005836,-40.0515596865272,2117.13505055243,-151.608551148968,280.93832494328,-41.2565610412871,693.800510192644,-70.3953461855224,1865.88996409335,152.590499277624,546.444608668772,-76.889675448786,376.233647513003,-31.0738821253578,896.153456994312,45.378048917734,646.866150079786,-23.6128652597237,582.051896587889,-65.2797655696842
586.960233975334,-56.8175566020563,1604.18828447988,-204.086763651851,1372.35747038692,-140.601501008284,671.386550377869,-85.3360650121761,474.576358707979,-4.31636320663006,322.359776659852,-40.0442501045021,2119.41420532295,-149.770078143556,281.028940815395,-41.0917300219297,700.620511799118,-73.2905329086518,1873.55450836192,150.931675456299,553.837966222176,-79.4622305758781,385.790887796131,-33.0975795244839,902.409149975647,45.6425744445819,654.040104349305,-24.6540963772712,587.880912760461,-66.6297247423209
592.677363625533,-53.8997036733909,1646.1734990249,-216.466159483508,1422.51343263261,-169.723784664355,685.879730751981,-90.3382553600746,483.634146747692,-4.86851530165955,327.395381254452,-40.6582560636354,2155.07364279721,-156.340738844331,284.4555557871,-41.5365879813591,714.634337239624,-74.2556260802222,1899.27512127691,152.218138151644,572.143557882556,-80.9833960217203,405.082009502793,-36.1429998599191,925.614782193545,42.2530154564584,670.611739684593,-27.0084356445965,598.103280511399,-69.0942675741957
600.293319495193,-57.7483849522164,1610.06944345009,-208.679714543041,1403.49109542678,-148.283492843693,681.872359442867,-88.9010920655007,475.633139184735,-4.5829489321056,325.563435864772,-41.3843014436382,2132.85069867091,-152.771609392168,282.475647781056,-41.0527999607395,704.980047323881,-74.1040888749089,1880.21367553991,153.660297915363,551.894011309788,-77.8080024691635,383.473184359614,-32.5627839921409,902.56482207866,45.5702998801462,654.110890416924,-24.2407429116534,589.443832573069,-67.3497987469871
586.078002202607,-57.7071152836271,1631.27008721512,-215.876605469087,1408.32718181814,-149.040056752172,683.77358070677,-88.1672582464557,479.518479601508,-5.06275306789744,325.685818968519,-39.9018287099769,2142.25639506727,-152.674020982687,284.154139996242,-41.5993894498987,709.608087024253,-75.1416792113634,1893.25725669119,149.07398240835,558.954586195485,-78.1694426439165,392.051929938841,-33.9131620166052,913.097956677081,46.1922166645639,661.134971546073,-25.2372185046891,594.938437754633,-68.3051338142427
601.544718416502,-58.8845486841799,1653.02134398287,-210.651392646133,1431.86893411006,-164.957394581773,693.82053144365,-90.302476036449,489.148992952671,-6.01936149683692,328.073551976646,-40.1667189570782,2182.59400196516,-162.415501725235,287.48175305508,-42.4810282610817,727.037018323014,-76.6910613034791,1923.72865973968,144.332303572958,578.941844757882,-82.5079980470958,409.463519861372,-36.6910477831198,929.700234715032,44.1953077876503,675.76099105205,-27.2737898343731,603.227686875138,-70.3052083062511
603.613604187559,-64.218153950441,1650.64171255771,-219.06003064479,1416.38016867351,-151.567666287112,686.253207407287,-87.2110093625027,480.040324227953,-5.13884824013817,328.2228511217,-39.8816523136816,2151.12917739057,-155.913692621016,285.476203014695,-42.1982763230651,710.689576916949,-73.6140156945282,1892.01896960914,153.563248016082,559.354815768554,-79.240757956684,390.480267662544,-33.8581421900238,909.672030809802,48.2436174278565,660.518090148263,-24.8866719730327,595.146004133793,-68.8277742336227
616.289878980817,-66.9775677458083,1633.08998708957,-202.119115379802,1428.05958887257,-154.466986332508,694.361416540522,-91.3652723955255,483.971622054077,-5.77045690171101,330.22958534574,-41.2835731883079,2167.55036714397,-160.102579420397,286.379644814185,-42.2494042537819,715.755625886474,-74.3636707593532,1906.27668014946,150.912697811517,566.482070297341,-79.6771608627225,397.214556126059,-34.1251893479523,917.752026725779,45.2673961709932,666.324589953304,-25.9382004328346,599.466411313656,-69.8101439069707
614.892857354756,-64.1545612922916,1673.69545108107,-218.978242576252,1454.25765286499,-156.361117162077,701.122293576454,-92.150923614655,491.155313845186,-6.7551534773649,333.16986572021,-41.6600810180509,2177.01218826221,-161.439412860218,288.466933488284,-42.5850198976719,721.752531940597,-75.9970897399589,1904.47353612891,154.857339287823,552.629516180332,-76.7510058572613,380.890306504693,-32.0042945513335,903.35185281082,46.7936240190405,654.101455598254,-23.6761235608392,594.369872707641,-68.9340398681057
609.091777083626,-64.2852024603653,1647.28605650455,-213.352469889877,1440.97280477232,-161.481713695916,693.510180807538,-90.0910767148963,482.947606784647,-5.76316479194213,333.96930246379,-42.9970099418396,2160.59502787389,-154.4808402222,286.634339689114,-42.303335436837,714.338985534539,-74.4357884194961,1898.79409015585,152.049374235514,558.334723965986,-77.7745001566768,386.006206284872,-32.4280605902638,904.777790404916,48.2092790301818,657.248165437269,-24.2786883352444,595.787034475867,-69.9098741946531
604.802885118191,-57.1413635681946,1660.26193870066,-224.626420989672,1431.78434457125,-150.183278126606,693.871863889476,-89.4545940756062,487.632614115357,-5.98230817777732,334.71248867253,-42.7800354288572,2182.47870430282,-159.80586193608,287.91977864794,-42.3481048572407,725.976822075743,-76.408960783618,1918.09814076389,150.560355631815,573.436885297229,-81.4545510300651,402.530097094841,-35.7850932857519,921.12340278803,45.4914635766871,670.174268582427,-25.9287886221474,602.952667369624,-70.5057761532161
603.079059303138,-57.2896862336279,1649.66423272747,-217.948018482001,1448.45735985276,-173.543297874361,691.7442651374,-90.0030448150658,478.016198808543,-4.97066836899413,333.037021391881,-41.4373239218389,2159.67797319638,-159.36353483826,285.231167584001,-41.6508459400035,708.161254976994,-72.7106135308655,1891.67275753508,153.285921534249,555.310988261861,-78.951522938967,380.083951764853,-32.1102587932594,898.017209327713,48.2272747250271,651.003018911132,-22.8069528924625,593.227383620142,-68.8588216998207
612.037590912429,-65.118077694591,1651.78531758864,-218.661501417767,1445.11360249392,-164.229705731207,687.026029979411,-87.950746996716,480.503379016913,-5.43285872229427,330.162050204279,-40.239875711893,2159.74492496167,-158.791612465967,285.627294711116,-41.8577513747933,710.242101957156,-73.4543850962707,1888.19844736116,153.877704435388,560.66349429633,-79.7256316571902,386.208401703677,-32.8519702584277,904.233863806661,45.283524487151,655.451545479539,-23.7549377817364,594.963166476185,-68.9695319549467
606.60792482323,-54.6956887663324,1678.63970096175,-227.87393336174,1443.59434462137,-154.891341815917,692.485900573562,-89.4665817308471,488.91211340756,-6.65248889350595,333.644015655623,-41.935289518005,2187.42544144212,-161.744173096624,287.825337755597,-42.3961841385661,724.749434465225,-77.1698468369242,1911.80676296477,149.813194951137,574.196694241802,-80.4441169657706,401.970337900614,-35.5207491426196,920.485744396261,44.916007283602,667.971335569202,-25.9929289050581,602.049563498524,-70.5145070823051
606.204351604152,-59.0009793897551,1626.60272356129,-213.19684517735,1427.36413849162,-160.010488478302,686.988410834655,-90.413899209244,476.939528807916,-5.4409306493656,329.183834130777,-41.2266748442201,2149.58878335414,-155.445420510746,283.996380556501,-41.6274159746865,705.155207337397,-72.4439878246177,1877.72079121337,154.688139382928,556.089368516936,-78.8926122670254,380.317517184481,-31.4825474344917,896.857942871499,48.3521393217684,650.497584427146,-23.1783633451758,590.367047872845,-68.0242767829034
608.424051131909,-64.0192530247227,1636.53332493726,-214.012887494036,1415.20372087735,-154.076700335496,682.847111887467,-87.2229051966951,479.093428799792,-4.96552648273849,328.733923152499,-39.4801253933393,2158.02874086067,-156.91322917447,283.330194893893,-41.1069222808327,710.766882858035,-74.5628233020746,1883.12078776378,150.328241648399,562.293959761528,-78.6962977753458,387.660187701263,-32.5946926189733,896.82771948329,47.2026171667276,653.611440755575,-23.377500908521,593.991629112745,-68.8757732124745
603.286170018317,-54.4207781370775,1663.08225763495,-213.448025550766,1438.37054289724,-155.452494415824,692.846317092652,-91.3975280168562,486.958491461337,-6.30328970472872,330.72513784337,-41.4464136483574,2167.59219012558,-158.479283639113,285.442193246221,-41.9139742936623,715.318657076072,-74.9344807405161,1884.38327088621,151.626518303215,554.466613022031,-78.3070663298577,375.639005671174,-31.0510928626173,884.382077095337,49.129249225081,643.10906814713,-21.9602536457088,587.634428450498,-67.5198731062214
597.688913781901,-60.9468675482509,1607.37714046992,-200.595778309523,1414.88176781593,-158.768046540132,682.230403205897,-89.1949119078424,478.404960064988,-5.56173961867805,328.578837669791,-41.2777405745942,2144.50326725013,-152.224896931819,282.473343938988,-41.3953437087694,705.19329720415,-72.633100916843,1870.56944861069,153.833640667844,556.625661794412,-79.3081141849314,378.488381883822,-31.5753889887652,885.688086333249,48.5841102667727,644.081065779922,-21.912949931069,587.463163368804,-67.8121912096032
594.794114842692,-54.5429145105864,1628.97253696242,-206.258515645786,1433.92639774939,-164.431542204721,682.497920480418,-88.9987721315563,481.942229595915,-5.39138989225657,327.429520564508,-39.9269170735543,2160.67383781919,-156.384086597806,283.902330717995,-41.4438404377486,710.52157361881,-72.555200032054,1887.12177421945,151.001254246122,567.927358446119,-81.3335070366927,392.952655982592,-33.802571329615,900.117161923179,46.938304200041,655.20736028368,-23.4757329280021,594.771976381283,-69.1942729093315
600.449175400818,-58.9963127434862,1642.69453015849,-220.984342442681,1404.07056089117,-146.282975033566,679.134529589079,-87.2804692031832,475.612220601954,-5.50767264925357,327.356754590536,-40.8142511133744,2147.40791001619,-156.64294040746,281.566158018497,-40.9459655356192,701.45984716967,-72.2201031182619,1866.70865686441,154.337161065515,552.510028446979,-78.6483274447591,374.77299270515,-31.118606248041,881.451040717694,48.6739976437869,640.534459130946,-21.6289867445903,585.939740777142,-67.2729844353821
586.778475606325,-55.2298340545779,1627.96191052947,-222.267825404991,1421.5094497334,-163.313478298142,680.558230821665,-88.8845336697674,477.78637966385,-5.94510598450536,327.229553093617,-41.4367303978041,2143.05072194501,-152.867019221143,281.237039021648,-40.8892763623491,703.498904875137,-72.4218354380021,1866.67772258631,153.924130831228,557.792963152573,-78.8793588784175,381.460303798211,-32.0595101614898,885.46978595642,50.5008912689793,644.388905120156,-22.4931795404816,587.718437130826,-67.8132799771805
602.872148279539,-58.9033084072935,1656.18237181229,-222.507467768058,1435.00169033481,-170.199283808061,684.408460545663,-90.3810033447847,485.339578373265,-6.88560273358238,329.518232666047,-42.0565277061919,2168.06363442357,-158.121232433299,284.538331076126,-42.1353134377972,716.192693351004,-74.5628673460052,1887.93303428459,150.669497879889,572.430296119761,-81.5959270535447,397.277225711152,-35.0138556368359,906.407206882294,45.1543780931358,656.384859652927,-23.6279744543609,596.228199744632,-69.2909744767998
588.743873042922,-56.89336552627,1619.12410069447,-217.406467955208,1412.8831361032,-156.600694256333,675.602361738573,-87.2026644986741,475.060045117859,-5.67383399330295,323.559654114925,-38.8051316325485,2140.73340091981,-156.510945422471,281.013404820659,-40.884339791628,700.560183476212,-71.6701276266864,1865.62075471346,149.751682362454,553.327939101986,-77.6502437879368,377.357870758253,-31.6424064983561,882.410338332413,48.4368891813325,640.855911207578,-21.7933635758859,586.276715804371,-67.4834647275733
592.152630359794,-59.8136189688928,1618.41043992081,-220.327533405725,1403.76856775545,-150.453272835038,676.551267743367,-87.0960814081136,478.123415813122,-6.0260714702628,326.42587238807,-40.2891553112201,2145.95732575527,-153.848283237348,280.525159315259,-40.5571276334947,702.744759074051,-71.9952066843365,1867.26117814568,154.553135012076,560.370582170477,-79.9041623292443,384.700677564433,-32.5898766706998,891.167329429978,46.8733660434012,646.472468882248,-23.4529043447109,589.82051215768,-68.6053937986204
600.193364423587,-64.8170856953376,1653.65498791602,-232.770196722206,1432.98149558451,-161.921480238721,683.727489539946,-88.5354954313564,486.482595649893,-7.2416062373193,325.614356690615,-39.6461955990911,2171.78076689578,-159.614315357526,283.278881993784,-40.84234690255,715.919272910623,-74.7529466252309,1889.70609801424,148.407608346244,562.908494151181,-80.9565778244619,385.171046227124,-33.0971120468265,885.975160004544,49.9207186974318,641.204140622876,-21.9127473210096,587.59213746931,-67.7171824175752
587.511360784394,-52.722317181777,1622.98828177535,-224.412207213863,1410.7225276524,-155.832152478909,674.549295010469,-87.5449358040614,475.50643575639,-6.26141624221658,322.054173105623,-38.2080900698636,2143.78700449606,-159.26415584828,279.657253741166,-40.5917569749951,698.386674185315,-71.8597113047908,1858.51973287606,152.868189219759,553.156466573417,-78.4306635566157,377.677875581947,-31.5602874397906,884.95283854406,44.0931400955049,637.716523532276,-21.6459969786264,587.001507891727,-68.0655709089657
598.569699032518,-62.9911418805658,1615.16047417937,-215.988850301143,1408.05919366109,-150.97779340613,679.802292632256,-88.6965211692496,480.344664371869,-6.85318632817549,325.696422673079,-39.4861213544459,2152.78578474753,-156.778695693296,280.920392848091,-40.7570719718742,707.453368182612,-73.980115259308,1867.49797040033,153.569864465964,564.134427446646,-79.7706129033198,390.467944176006,-34.3646203724916,896.808456573715,47.0970836723316,649.07106084025,-23.8897996247188,594.070920569336,-69.2432599116352
584.065874411987,-52.879374880818,1600.36086688845,-210.763893185896,1409.29638731841,-152.286255936608,671.047445379431,-85.0382217384395,472.224141643757,-6.01383760916838,322.410831802579,-39.0853590025288,2133.49457067939,-155.302026287306,279.06144223295,-40.3830066996916,692.877725706269,-71.3540837751554,1848.33309287012,151.667061713698,549.067994985303,-77.8615226519488,373.346914030284,-31.4361718486823,877.878222107637,47.2445602409299,634.154154415943,-21.7012879531715,585.596171880141,-68.0302433023295
582.386782239117,-53.4145027640338,1607.03066973723,-213.787939281174,1409.08712338323,-156.941470701058,673.214833920282,-87.6662684157012,475.013777542992,-6.38539110617929,323.016809151831,-38.8654993982907,2138.5452507576,-156.561354885149,279.355230919796,-40.4675836120826,697.49664962151,-71.2804359091345,1857.82464720058,148.477039897836,558.164829076742,-80.6637902437939,381.014938363708,-32.4361466976643,881.433825344671,46.3281375860778,640.471426562558,-22.3605925551885,590.310370324436,-68.5402507282083
602.786988803924,-62.217569516024,1621.6578196699,-221.270684156242,1429.70977697197,-167.106908325243,683.967451590514,-90.8089754083549,484.170942516802,-7.86761793743446,327.39341571922,-40.9569352748445,2165.66942439938,-161.791216802384,282.584073616974,-41.1321572778081,710.770959209328,-72.9833919176426,1886.04301831661,146.019715332996,571.474214894166,-80.8878334482234,397.151193363347,-35.5043773214123,906.05160718496,44.3390868140256,653.306305953809,-24.5130822334129,598.166334317699,-69.6166178687701
585.37018804851,-57.3088692702573,1611.67508194648,-219.070686616583,1417.04389641548,-162.753892048889,674.267855817455,-87.9480914206973,471.728019841816,-6.18090801296839,322.661171619818,-38.7688024454374,2133.97389651452,-159.089659184323,278.597993505374,-40.1808082530464,692.858399751235,-70.3902683051814,1844.82327903227,152.959111281956,552.165128124034,-79.2282936206185,376.432173849311,-31.8889201370767,876.991115613221,48.4802124125425,636.293855538355,-21.8569926916384,588.769884579181,-68.7129387235845
594.888517473166,-61.8785407125367,1606.96959920176,-218.675619321331,1414.34070249383,-156.37859266801,674.467878494413,-87.2533129889876,475.06418306841,-6.70597236327052,325.566367835019,-41.5058782997182,2141.23269452774,-158.42076898443,279.250796139754,-40.3301301786388,698.251162060523,-72.4277086747585,1861.47935472512,149.555239567361,558.987451864033,-80.7000800396397,384.525575102707,-33.3289795996173,881.731775525344,48.1885620629837,642.424764953473,-22.5949509556377,592.240118522461,-68.6816998207038
591.061246109338,-53.1430237389381,1622.10688765273,-218.955257541866,1429.13938071412,-159.933779446334,685.297136350098,-90.0221700264711,484.027861719932,-8.20824295317131,327.326247083126,-40.1975601849223,2160.68873544349,-159.819428575837,283.049344145007,-41.3814057014719,711.196200010459,-76.0757139287138,1871.31725601621,148.87561733634,552.984234874018,-78.6757728200655,377.567367659254,-32.0679919319309,874.259765967958,48.3467750887007,635.922161497093,-22.783305677152,588.672723152474,-68.5298073774325
596.651759120077,-61.4677489374645,1599.34500345592,-218.508865341244,1402.84493004254,-153.09695865246,673.929550318799,-87.4308431429675,472.312173321303,-5.39343459503685,324.152436129222,-39.9015028704131,2136.87785705495,-156.751614219827,279.856143668393,-40.8239096766129,698.076412972603,-72.7996885318758,1854.2632933231,146.790248719678,555.254262133025,-81.0465117774941,378.284702294451,-32.4095810237074,874.516096951274,45.8573962823646,636.685265296907,-21.8968167637593,588.551988354293,-68.4163491606641
594.112232317102,-59.5434583795759,1608.65387513609,-211.940436068539,1421.94182950975,-164.495865010701,677.152284886681,-88.6881904959467,477.402354554173,-6.5103895485174,326.136310946107,-39.8635532515081,2146.5881708012,-155.724505398797,281.963685948338,-41.4419874173332,707.447488377751,-73.8277104313242,1864.50679123731,151.036496807592,566.686204582824,-81.7950445539228,393.258819377196,-34.5799473533787,893.670059443693,43.8805431758429,649.57281902751,-23.9258243486355,597.113788799498,-69.9940583616529
593.10656104961,-53.4561891743552,1634.99990950523,-217.01185336555,1418.61918125951,-156.450766036157,679.888961451406,-89.7888566378514,473.347496127031,-6.58464860547306,326.520762599027,-41.4580530053207,2142.78405682541,-160.438941889319,280.905800415932,-40.9686953013443,695.890712770725,-71.1219701231758,1852.27301208368,150.315284683988,549.568396869974,-78.1149813515885,376.543940575742,-32.0090665370469,874.752137348006,47.938621222595,637.829082158214,-22.6368300726475,587.251470199583,-67.3539388508067
585.009691063232,-53.3449127867223,1610.80183123788,-210.408844564252,1409.30229708782,-151.102973421947,671.971586028749,-87.0662712873728,473.604285334931,-6.55642276374541,325.569257638548,-40.7297660885813,2147.37869134706,-160.909866469071,280.672473620292,-40.9467363550298,702.292661861963,-73.0322000758685,1859.57402254,149.809620879388,557.426346902733,-80.7748009865958,384.097953913158,-32.9877514923403,883.921630749187,43.7908911903713,643.152695291985,-23.2255321684822,590.354090040078,-68.5497001159693
585.501071380015,-51.9580525024778,1628.90347991007,-228.110956320716,1422.72408858489,-163.59337917736,680.878119655775,-89.7257588828445,482.177798431738,-7.74004255337383,327.666573332791,-40.7796120586463,2166.02840738871,-158.527761281655,283.766080689888,-41.7761931188206,713.821940227396,-75.02592962386,1881.86945927893,148.496343102707,574.081159565794,-83.6102622106506,402.44761348016,-36.4849827033206,902.211802418753,43.6330745174359,659.10489550169,-26.0659089392564,600.589497178552,-70.1551902519794
601.071328507171,-61.1769663175005,1597.46474884394,-217.398575240481,1402.31453851182,-152.337594484284,674.787459032396,-89.1875303302856,472.786127856644,-6.65721578607824,325.270782012924,-40.5111615225581,2143.16827548792,-159.022521277189,281.380220185913,-41.0281465547804,699.934658968768,-72.8133810629408,1852.7947522037,150.91932871256,553.875401751537,-80.1090609637149,382.940937121161,-32.9094779290141,879.189995292178,45.3276351727065,642.499573076526,-22.7961416524562,588.78703322136,-67.551890320293
591.487448653742,-56.3644790246664,1603.27501213157,-215.695996527529,1421.70388701752,-160.147861192407,674.930264914422,-87.1794451814912,475.648395197792,-6.56865471619609,327.391573267531,-41.6335794001975,2153.95299388734,-160.647496392306,282.245683290416,-41.5603197850517,704.945831381661,-72.5535860144249,1865.96584386151,148.178051400123,563.71797222724,-79.9030280662147,392.870845431974,-34.7368120480891,887.722920353932,46.2175526485397,649.909395814013,-24.3130594115598,593.861387395283,-69.3781901053504
599.968241917732,-54.6564264377445,1641.36159154476,-226.281732452858,1440.79415072357,-160.926742425115,683.209412518822,-90.0414827754118,486.059883961982,-8.32892486134283,329.494180446626,-40.2565065717801,2179.92268462596,-161.242507082685,286.18857992278,-42.1447456825337,721.371848622232,-76.2339274241967,1896.62660095314,148.599550832044,578.544179957178,-84.8790753655973,402.67208686894,-36.7196510261654,896.530981457187,43.3530113222679,654.239088742722,-25.1634490558252,593.400073292303,-68.8785983884352
592.477924919424,-58.3876395756226,1597.79361122112,-210.89213380108,1420.69575087338,-162.913873965065,673.029603981511,-86.9162203907316,474.369894409839,-6.42238961989701,328.381456475605,-41.9141016079459,2149.66049820534,-157.518504005595,281.910432001164,-41.0149041117971,706.293666523395,-74.9273520379338,1862.70539266056,150.411953945172,562.772811251384,-81.8626370869679,387.796613338928,-33.9277076166834,880.693143170712,46.2078680331635,645.364565713453,-23.2220749636803,589.197790152883,-67.7662767889014
595.579604810657,-57.163737998958,1596.21326371954,-198.298588746592,1434.83180915048,-162.052839770738,677.942022554269,-89.7900937177947,478.884299980447,-7.29073009210122,328.797960816749,-41.9349893350998,2160.95067711698,-161.575156966855,282.985170127122,-41.5577630204202,707.430786581479,-72.3938309813733,1871.03015186875,151.122930830349,569.941827719326,-81.9613739074254,398.583614901769,-35.7525443346748,891.160182518082,46.2727717144173,654.454651149945,-24.6053623776025,595.48141171493,-69.1503672031298
607.400304132551,-60.9400143109148,1635.45236745996,-218.089715054463,1436.38641246883,-162.754387878639,684.1444291376,-89.8540810239889,481.598870562528,-7.82659354872647,329.396939487089,-41.6342413419885,2162.45168627333,-161.060707402423,283.191410388659,-41.3835951885136,707.725868617979,-74.9040318457425,1865.08776042282,150.668549829274,555.219339758843,-80.2687176176801,380.892958419156,-32.8162095829308,873.512451583633,47.15878707885,642.570376548951,-23.5925294355066,586.444604559783,-67.3479663918176
587.836058000611,-49.8302299508792,1608.5210941704,-213.556110054591,1425.28325747945,-163.562472531831,671.21108074943,-87.9639887048819,475.719532275264,-7.13181559569754,327.110967376314,-41.2867116390668,2147.59962024731,-158.426160630354,281.199131388194,-40.9774238018649,701.754973656331,-72.2995200977665,1858.10252159404,150.85657223348,560.466856037397,-80.4648903264809,387.013077794598,-34.0931930690591,875.023926569266,47.2815632891317,644.589943826663,-23.2119633018039,588.445846906934,-67.5967929592911
596.80464974625,-55.968701055997,1616.46497541373,-217.765630438068,1425.1746887936,-155.414054919878,675.919801710886,-89.2445406280271,481.481925086249,-7.57344440256968,329.93278950859,-41.6741558333285,2163.79545780767,-158.640692732895,283.270110417901,-41.6134768767354,711.447763440783,-72.8835588658907,1874.48598133238,154.051012559618,576.365541494225,-84.6689216320623,403.996955587884,-36.3307309138111,896.89706148007,45.3818439499558,659.333127012169,-25.2843914238863,597.971605719033,-70.0981789001328
588.792738351922,-54.0444320263653,1583.03492922258,-201.601399371216,1421.64671726271,-158.666119987803,668.903313991601,-87.3536987152702,472.898054428764,-6.66678272653071,325.542166127077,-40.3406591290392,2144.64677572498,-157.631188969128,281.368709275444,-41.315742630628,699.172446650087,-72.2720014072065,1853.13117081402,151.717493262111,557.222353870441,-80.6076008442053,384.337632624399,-33.3267923939887,870.877646580908,47.5695672387618,644.067173545404,-23.237791988496,587.476687004338,-67.7672780621476
602.697815427855,-66.2747576288227,1614.01235195354,-217.467477755223,1410.44068619344,-145.386811256147,671.239853837685,-87.8392634446255,476.519668470166,-7.32494934785926,325.640375655407,-40.346409000029,2147.9825597586,-159.328369713193,281.063160065699,-41.2970703688466,703.487743822431,-73.476106664828,1857.19468380627,150.742487416089,564.777126368157,-81.4587985802668,393.45953805811,-34.7921437084816,877.62051338744,47.3550844469935,650.281311169903,-24.0495420922281,591.851973045624,-68.7725075141697
601.989082656235,-59.3161963547537,1634.64480598573,-222.926687894484,1435.67939990465,-160.205763365709,675.753525022174,-87.3277862589123,486.559216898884,-8.30757995298818,329.543683806224,-40.5946698838817,2178.88225280083,-162.566401553879,284.262639473088,-41.7763815292248,722.800149018949,-77.8019386022907,1890.13664859473,147.416484003776,583.43786674216,-85.7044738689537,412.104354225504,-38.0659626503525,900.060754406271,46.0777029029088,665.9034834745,-26.8066715230814,600.850503948367,-70.4812839085103
598.164222429992,-61.1453252184892,1591.9847825066,-213.32307129438,1420.84473450615,-160.150652840801,665.734686200786,-86.2116677475395,475.530450453806,-6.66831454946971,325.506196825915,-39.9166071591156,2150.07189080693,-159.804274217146,281.468926656276,-41.1383677318989,704.674847742292,-73.0788310528099,1859.35627910618,152.0794356472,564.332131086332,-82.0157050608792,393.921929913609,-34.9537508984925,881.5972305279,45.373262090303,651.829175693253,-25.1066404172499,591.429142106576,-67.8321981705044
594.388776909334,-57.1409964547601,1609.1835012807,-218.285802520576,1426.99850499114,-162.666908826248,670.287877058785,-86.4123821597565,480.628431599294,-7.7913698010305,326.290468594243,-40.5199703086653,2158.00914735108,-158.47642776274,282.394398954408,-41.9005153559454,708.249440059697,-73.6989546283724,1869.84492290158,148.413831070188,573.802322781111,-83.4731054264597,401.531764889168,-36.2945388044949,888.070021914289,46.5937679234731,657.550969879297,-25.2910644489986,598.367048588598,-69.4594296197965
604.317657980618,-63.5248373415476,1644.17886758516,-225.36473317167,1430.22483325901,-156.548139022219,678.175699359468,-89.4902954904635,478.890191227505,-6.87658302855865,325.653099027576,-39.0790378432749,2150.35451014328,-159.738485448478,281.471759568938,-41.0412900209522,702.240265260844,-71.297308796834,1851.83769577245,153.165892109576,555.713045678798,-80.6416476851391,384.638069439544,-33.5824873812804,870.1877069604,47.3317274871602,644.813259651199,-23.5171945372209,589.85211436992,-68.5363938958525
600.255803615858,-59.7429287843441,1594.98111201217,-213.431325528022,1429.49404698175,-155.395580729436,666.435813907742,-86.4853022627349,477.445823719204,-6.65473809383066,327.330906379359,-40.3667857320666,2152.82099185731,-161.926098202047,280.406590292076,-40.9128914661097,706.138395192404,-74.7373989039462,1854.88201502386,152.567998276485,561.357681425944,-80.4933519265749,391.883019884953,-34.5129325743816,875.676256940998,48.783325942091,650.661669598258,-24.7729039671046,594.17855774485,-68.9238615132153
606.636033656485,-62.2047466063399,1633.41998130865,-224.744573532335,1441.14117535737,-168.544484877231,670.578883487509,-87.3007343868171,484.702120160321,-8.07351506299878,327.4092018379,-40.4187203679441,2169.15874389143,-161.547240870741,282.994409424335,-41.530316178005,714.515236238267,-74.3471983293327,1881.71699664188,147.911071130718,579.323866564536,-85.1017621576559,410.763254414695,-37.8555073218522,894.693540587666,44.9067473319206,665.089339022295,-25.936985591656,603.025053554296,-70.372251579917
592.090304777801,-59.3077226062016,1586.5539418047,-204.923083394977,1413.74309072569,-154.472790350584,660.611500118762,-84.3995609925824,473.348229940566,-6.33868332171824,326.982291126109,-40.2053185446668,2138.62472475279,-155.019513747749,279.740093291499,-40.6506830787372,698.70867726617,-71.9407854906331,1853.3944112705,152.60795109806,553.370729626838,-78.0541809262057,386.708682737996,-33.7542349044025,862.679662149673,51.2592856039901,645.987052217527,-23.3300991655641,593.637439354277,-69.3785857716207
586.639305518442,-58.018786431398,1594.12288209185,-212.88772794834,1430.52537466505,-156.426175554606,658.602045756753,-82.836417828336,476.152002940455,-6.53828737618386,325.684508263908,-39.5586606390112,2143.7395544346,-155.467216677015,279.074646557591,-40.3149341024483,703.023167938557,-72.4529413570404,1849.70230968491,152.312923036124,558.296177379411,-78.2030232680414,394.455758477156,-35.1304312393025,873.610556659767,47.9584251628498,651.277086311018,-23.8489018831183,596.155646863842,-69.305453532154
594.893179510122,-59.2924302921378,1614.3771994114,-213.204525034192,1422.53492940846,-152.117967059219,668.948485517758,-86.2295987288241,486.149477100978,-8.29312552122529,330.840958226147,-42.1011784167029,2178.66819344207,-167.652372727638,282.772186545426,-41.5934459332692,717.757601659849,-75.5185994718928,1877.9091131983,152.316217082568,568.84960240003,-81.8376965425185,401.943325506974,-36.2500025466647,878.092273642008,47.3161096806912,653.030402502655,-24.8745830881904,597.651155282379,-69.8626599234446
589.060001260513,-54.9201559701749,1578.95373513167,-206.573077306476,1412.91254628106,-149.733684501032,656.655199365149,-85.8300558530755,474.540526353778,-6.68814644865941,325.479375881013,-40.7497286793886,2136.85340684866,-158.990034524626,278.208934833154,-40.5229157396483,698.498675420524,-71.945685057197,1843.93788388476,150.612420979275,552.364997667285,-76.7508186399336,390.256108619722,-34.0377469967866,866.743306295435,47.0332900528429,646.491422589111,-23.3501504619079,595.064900356636,-69.5631001221606
592.446473998768,-58.5202053698683,1598.66888497001,-218.224862560207,1423.7302323455,-153.703302236307,656.439479713015,-84.2307446560984,478.287999281386,-7.12500664546014,326.903333529076,-41.3007655014066,2144.44593159741,-157.329895920422,279.028808842016,-40.6657580923814,704.976849520718,-73.5629467570717,1855.35165400117,149.981262757627,563.702251359915,-80.0217206556134,400.965240244689,-35.4764799368624,875.431165303375,48.1326790605338,657.233557814483,-24.9645771792561,603.063639093449,-71.2196394310411
586.530822605706,-55.5471401669544,1572.64056769468,-203.63967305477,1415.06615857862,-156.129755930517,648.409411844604,-81.4170959199631,470.306220137185,-6.76648155066944,323.99153280676,-39.2484925899024,2124.46324507454,-154.845335009306,277.34283507599,-40.1952697740576,693.226779076897,-72.5486708400603,1832.55775871867,151.283287716099,545.85179117863,-78.1047640800836,382.657199738406,-32.7139239969634,854.277764376799,51.1000906005576,642.424573560693,-23.1996371283609,592.793628038395,-69.0145108944842
594.00053359039,-60.8104210024219,1569.80708109894,-211.307071449457,1422.41804249419,-160.082438632416,650.446455393224,-82.7164605847034,471.837192268275,-5.90269210314935,323.552469694633,-39.3212311411826,2127.58386620431,-158.936551054862,276.770523449438,-40.2907303184234,695.544319478181,-71.0552486997455,1833.30646931077,152.980431650606,553.996992848737,-79.9448832395985,390.305766231819,-34.2679106590503,861.358941766846,50.0222777049482,646.361780418156,-23.0781931502201,596.786129762014,-69.711238533204
586.696861268097,-56.6447082664561,1603.85786428905,-213.21503520529,1418.3863380454,-157.802365528249,656.132413104003,-83.7687498333837,479.997136353384,-7.11731181186057,326.946816079094,-40.3831091396619,2152.00783631807,-159.98609652847,279.484296970983,-40.7477940546178,711.043424529281,-74.2112304396583,1854.49921758111,149.689976455425,554.524638827255,-79.3835250962344,390.941669666871,-33.6188119243956,855.208238116762,50.5776042539655,643.571322670145,-23.3340443274768,594.449812280203,-69.3320632310509
581.564769850626,-54.6230041587364,1553.25888698455,-194.150835547658,1401.22478985596,-155.543844475429,642.773755679698,-80.4541972443846,469.584196529152,-5.7383428800064,322.793924905495,-40.3101101732973,2112.74231446044,-149.73353225107,274.98596011394,-39.5954280336906,691.960431129067,-69.6140470532458,1820.80514207168,154.047361324129,545.39276220464,-77.7828674013442,384.299303361239,-32.8480087129522,847.385365099698,52.3082919173323,640.713226956099,-22.5146160670569,593.766446620389,-69.0539934538473
583.767401350233,-57.7323758605024,1549.10311683423,-200.158926315833,1405.12030869046,-154.924627447147,644.850610041331,-83.1519096640718,473.237612807122,-6.7579313720076,322.956651941733,-40.3812255133123,2124.31071504056,-155.818403309261,275.773030180915,-39.9769852779087,694.915446648512,-71.2391154329052,1832.15807764781,153.816949032946,555.971910680609,-80.0328509540618,396.208391709057,-35.2590454836855,864.545163951375,47.9546732819389,650.526415090426,-24.0269327756185,599.85555669764,-70.1143214900021
585.25211529893,-60.0363238016367,1546.11092860263,-204.804370743919,1394.19418213981,-154.033336987264,635.750447704402,-80.0794488341679,461.105940558914,-4.78392175680159,319.627374700443,-39.1857036908136,2086.81270662564,-147.592088226435,272.05832626156,-38.8871919609349,680.001042824737,-69.0895231807719,1801.08618735564,153.340293341347,534.709317932595,-75.0834887449839,375.211901470409,-31.4308343569943,831.755502213788,53.0713580096118,633.243910876603,-21.6316987703459,588.638477318437,-67.9871577127041
565.360815458702,-47.2444003042737,1512.58762416331,-187.012827234004,1384.09745620351,-146.326827866377,633.066465130269,-79.2353827335015,463.18481953053,-4.79269960939615,318.711430646986,-39.1459166275444,2087.89727097313,-148.416286131375,271.963260588319,-39.1670547576446,681.533202115091,-68.2427944378237,1806.71030958281,153.293645270169,539.95603170179,-76.6220523884192,382.33699689205,-32.8963262970675,840.816442565354,51.0039775624545,636.489343723169,-21.6210887751022,592.917961334495,-69.023447423829
568.748212624843,-45.9914630009162,1563.17695283412,-211.096512986111,1415.80866234622,-165.308988409087,640.379060749995,-80.1657787056553,469.096750036557,-5.95006245965413,318.668900254053,-37.9288096443898,2091.33920199292,-149.005696043008,272.66941210036,-39.4111547511314,680.629961019655,-68.9553078546831,1805.37348445377,151.12419353452,525.217162311889,-73.0190234086078,369.220220931467,-30.2907445486901,824.891024081453,52.2659972398559,624.784817290572,-20.3358422390956,584.581050510936,-67.1564296503152
565.566399784204,-51.9430876445329,1520.17728171641,-198.573979269778,1364.8098602701,-147.654452585068,629.527189579352,-79.4206867913362,458.811523896711,-5.08270357566288,314.854790478564,-37.7781556695476,2060.2402143419,-141.451611831959,269.413662003476,-38.6450889541348,670.959166308016,-68.3217853029906,1783.19797655399,154.673743301131,528.805027578576,-73.6769158290626,371.716144212114,-30.9519149654462,820.104152266078,53.3993529503318,625.825890650794,-20.7841765226229,586.284789031948,-67.9516247342567
569.420496779334,-49.8771447816695,1518.32633350604,-191.675408530428,1382.86885513072,-149.951202836755,628.894787050085,-78.8772355688408,464.482238724416,-5.55402269934369,318.273415647847,-38.0096961090136,2074.03976242162,-143.946478873985,270.858287260482,-38.7520528943666,675.51184516273,-65.6880615249893,1795.14416990573,158.147640155524,541.751187510412,-75.6488595036348,385.711557072496,-33.2730592232029,836.781080304751,51.7964856343465,636.909341761111,-22.2894289119817,593.128599317513,-68.5505449045763
565.165626784033,-51.8043285106801,1526.30888980278,-204.513142202862,1361.62478438022,-143.967470497483,616.566534173435,-74.6888807717643,453.399556698083,-4.30866782770363,313.541306459708,-37.919278195733,2039.74314825821,-138.381208809701,266.435418062694,-37.7509329845926,661.084794083962,-66.1556549825521,1765.11435775299,159.779345421159,522.446261156797,-73.0683085984512,366.127685543578,-29.9944243330586,811.039768161358,54.846827829462,619.987348043002,-19.6475641255147,582.017693733443,-66.8205983087757
564.72343179039,-56.1347976769885,1500.05497736574,-194.844778686072,1362.16301327062,-143.729626087993,622.577082000523,-77.3395783104453,456.306020413889,-4.34659885022374,312.873365034455,-36.8978196971565,2042.8762179006,-139.39095551655,267.367011419498,-38.0917461380703,663.545576845809,-64.5299917960249,1777.81925967994,156.708211661008,529.743650934479,-73.3918146612677,373.617123876629,-30.8703865343182,820.57267161975,52.3943808374175,625.008717707934,-20.2469294631721,586.34596489008,-67.4671896397613
565.704066016831,-52.8019830631847,1521.8440596864,-192.313580955255,1374.24297778537,-149.503299745884,630.288045871062,-78.0087893103427,457.712281200833,-4.50842266502534,315.467026059839,-38.4296466482603,2040.87158995328,-136.110750556283,268.083057427978,-38.2719496468332,659.633354190623,-63.3267932874781,1772.23860091368,158.166252158696,517.576072872515,-71.4940423823005,361.907698791534,-29.3014569707562,804.801382572646,53.9976367435147,614.081185627624,-18.6819472459979,578.85443764868,-65.4733569430772
563.426064869161,-49.4527571191818,1489.87996628343,-186.508955613557,1360.27040474262,-144.479476352886,622.801867640045,-77.564466978749,454.844010902436,-4.34727478277371,314.359041566385,-38.6979994752404,2038.33868502104,-140.745792920178,266.952391541273,-37.9844610003622,657.773567542044,-63.7167430682541,1774.60041596381,154.930131961054,523.737516331364,-73.7741441801488,367.840900660737,-30.4835678869474,811.566008786156,52.9908856093591,618.587531826036,-19.484367729916,581.607119923215,-66.602824461729
557.129167194183,-52.6142111132478,1525.05943897093,-198.429631573226,1364.05543210974,-143.35300985431,628.567905397608,-79.9518996593039,461.41303998547,-5.39034204683923,314.787983387551,-37.3492447561028,2062.13980721891,-143.272154492681,270.295769806601,-38.8544769891133,673.439237104356,-68.8309677764756,1796.60374271715,157.301827950798,538.732263487961,-75.0348980857637,382.826816404433,-33.0597231182506,827.304402150578,52.006740967529,630.082135144707,-20.9123101824983,588.023582159008,-68.0744809387221
551.383586089652,-48.7287015585501,1498.28344263141,-196.317613066733,1353.20590966007,-141.638069584841,620.313511195253,-76.4271436483466,452.604381804472,-4.30795672157606,311.106167515268,-36.8192286482522,2034.04635017771,-137.555517800024,267.554976744349,-37.9766748245261,656.891588457373,-64.8117303431947,1779.71470038973,152.954039742856,522.837526841841,-72.1998749959185,368.495417952949,-30.6432912403002,812.210441536472,53.7111483409839,618.410634359329,-19.5904152549526,578.940643994712,-65.7363034507913
551.127055805769,-47.171065996544,1512.93255086107,-197.997109081092,1365.89951845743,-147.6567755973,625.458690917021,-79.1844604495163,456.496844292669,-5.01194442601333,314.882692060545,-38.1725070639058,2042.65068299582,-140.630954733834,268.526696860159,-38.3487417467051,660.763556093218,-63.469455854594,1785.53879284194,155.861657266528,533.966901879602,-76.538614648346,375.359480972067,-31.7433947792122,817.352029785226,53.2109556967916,626.377816235629,-20.8731097779998,583.865385023507,-66.6608284059222
549.935038447854,-49.9374261672854,1491.84301039769,-187.518617914363,1367.52381892301,-144.424336594872,625.210763412761,-78.1128676340003,450.096829081751,-4.5607170497352,312.469492992894,-37.7864517500945,2024.80387562317,-136.707101387236,268.073865241545,-38.3901811290964,653.570119550722,-63.825532859511,1774.84806777972,157.118070274714,517.169187079599,-72.1628292530336,360.778499814584,-29.4710688964725,802.016165712167,54.2669643948191,613.868950803915,-18.9484821445306,574.805005067999,-64.6495656048774
547.874360372351,-50.6234940987543,1490.78984122512,-189.235379918596,1361.03183945323,-145.93563609628,627.462312321886,-79.7722790461214,451.886161092759,-4.33430418519276,313.920767883985,-38.3485923463283,2031.26753010452,-139.202515937353,268.778521827457,-38.3511005577135,656.843780947316,-65.0015406551164,1787.62058900647,153.509101428947,524.423509223386,-73.7984586881193,368.087633740898,-30.9240055662835,815.690320442131,52.1463523535377,619.710740688458,-19.5608292712008,577.196549373676,-65.5366676583197
544.616555852992,-41.6736846287782,1523.50124209526,-205.953637766757,1390.43557222371,-158.593078917594,633.944661320538,-79.97854473633,461.086232552516,-5.73092670839398,318.99649224885,-39.6805776596226,2063.3414765235,-142.394926829861,271.848399607316,-38.7203492310677,670.790930654625,-66.8899863942438,1813.92614040976,150.97154756951,533.293060419563,-77.0438304247673,369.63931719627,-30.4355326462303,813.776560570508,53.5698716340135,620.322016925394,-20.5172751784031,575.882119254806,-64.986402560113
538.447130513567,-42.4185845276366,1486.70958332493,-190.357045534277,1369.96793012984,-146.104976912288,627.99933176375,-78.812480304787,450.774558385342,-4.73554063710078,314.684859800921,-37.5779725843737,2032.23435999693,-139.721042637493,269.834876262208,-38.7979729542867,655.807693419704,-63.6697280966563,1787.86539707952,156.673207680007,521.634080192213,-71.7882797556895,365.482635973693,-30.3472509105325,811.741659261178,53.0774215678927,617.5252846169,-19.4921908811342,573.401976809631,-64.5615328295319
551.585357139927,-48.1000440496718,1505.83392563016,-196.109863214487,1369.79405866722,-151.9971835667,632.19062457839,-80.7914548422821,456.071649693733,-5.07111674479885,317.593108867715,-38.9882536811933,2052.44803151317,-141.27818482649,272.340153221737,-39.5179231917107,666.827827924922,-66.5343874583981,1802.82659252208,157.315563641858,536.835435788906,-76.2058077656752,377.799394946321,-32.2786624312221,830.102033780194,50.6841242923533,630.260149473425,-21.3247857622116,580.216111604075,-65.6914663754304
549.771840472961,-46.2056845673523,1509.71091919754,-191.087501451722,1372.82195140497,-149.026997258274,638.851377967571,-82.4478509068219,452.020362229977,-5.19048196144801,317.468441880917,-39.09381030586,2038.50816845769,-139.063971577676,271.191502304972,-38.7233253519967,657.745413079485,-64.3904963296034,1800.54255145996,150.388615322092,522.350244887221,-73.2121631966992,362.546031100688,-30.1819183714093,814.683965738384,50.891111998225,618.70142990653,-19.8883459748036,572.106678900245,-64.6899217368834
552.016951347908,-53.1207676002812,1507.87929961279,-205.694679315802,1361.03204834531,-146.341415639906,635.048476974488,-80.5262202835444,453.553800077938,-5.4350675684368,316.500159779111,-37.2915700842878,2039.83748580567,-139.171271984534,271.906191431345,-38.9160441104751,661.930582215322,-66.2154625779156,1806.97359212216,149.22014143859,529.855693998193,-74.6464490717172,369.318739390237,-31.10860217156,824.644458564001,50.0715683743231,624.754758346131,-20.339037033834,573.41585459389,-64.6891326887903
559.669421502678,-54.8721082998421,1497.3541093126,-184.444411928048,1382.95155414864,-154.033728121701,642.398957291007,-81.7960269180586,462.175637100572,-6.35946245353336,317.819225344173,-37.7474895483981,2073.28938150993,-147.274621875939,275.555753372319,-39.8596931210327,678.450398865459,-68.914606986758,1826.51946745674,156.080380750739,546.946187479191,-77.730604999362,388.509634433263,-34.3486685166097,849.022314293655,47.6781085393479,641.011540707264,-22.888349982029,583.122135451881,-66.5674066194249
550.136911242938,-52.1146014548149,1523.91835557972,-207.496096153003,1350.94897492253,-135.816772929812,640.640967352219,-82.3102873945215,454.799602570163,-5.6417025211413,317.736698905934,-38.5142383619918,2053.07713059724,-142.032298423677,273.034323244466,-38.9846683057615,663.812600448346,-64.2010189128266,1818.53084732981,152.357096687015,533.334851710741,-75.6806764035441,372.061980453093,-31.0893121647657,834.059637141096,49.783763514339,629.445047784259,-21.0861351413785,574.432385339143,-64.984395444726
556.070675387403,-54.4817291647915,1501.47981044578,-192.94558411861,1369.16769884428,-150.781093574726,641.787454784973,-80.0948049306581,459.206469960528,-5.60152584292063,320.108968782779,-39.78486192783,2072.03788423008,-149.147605614276,275.105805147267,-39.3272224150002,676.897322766128,-70.3500527757143,1828.63571447732,154.539180644974,541.840354470583,-75.9950706903446,383.603443584693,-33.6481696305063,848.477260281785,46.7652315980323,638.743511015191,-22.9997268069722,578.668110132327,-65.4740715181888
