16.2435110684378,30.8616553246024,63.8620703643876,3.95007973289427,17.770271126105,7.7843865706738,87.761298587513,15.9302231772105,376.10300757884,-25.5715576705544,727.000924317664,132.83221389686,1631.60092476547,-136.981919638521,2106.233757259,-115.063725049309,799.1484096035,-10.7389343929614,139.54122137554,72.12539092694,434.472097814558,-58.7514342434794,286.382608531644,-1.14105343485379,304.935967163865,45.5636947614979,1318.79324293192,15.9209597591745,1573.61281286433,-242.776067653041
25.1657929091775,23.1495799029197,66.7978475446666,5.34984347970612,26.7737125557687,2.26807823922987,89.9269194340585,16.7517997989063,394.229727307504,-33.0729504989939,736.655823839891,130.356065191154,1667.51182856742,-144.992415102266,2123.81253520259,-113.785184588832,795.67688004934,-3.9323336270019,143.651429653368,77.2609942000439,433.037974585735,-57.0863125997418,290.723362200175,-2.67910817439358,305.308516604798,54.4094660054034,1330.78999143944,10.886682763061,1566.12203659842,-236.76549745836
25.9477676436358,21.2805784411649,55.0484603951995,9.08015454160631,15.8035996291319,5.44418323191563,82.547792976058,14.1673444687723,374.222424471811,-28.4295510021189,707.164926632415,133.677378652663,1597.67581798078,-127.105212304456,2047.0293163482,-100.66712519195,783.810758295711,-10.844054640627,129.343304769698,75.3599272229346,416.284658968623,-50.1470352225108,278.809658193138,-1.07495285865875,277.021362950147,64.3272948102868,1274.59910469326,21.0925569518625,1539.91002662599,-228.800308932247
17.8939166757493,28.3338441038866,58.7133869684431,7.59353559561179,14.1193724004441,8.69783731181708,84.5091426079949,13.0582750314628,374.163127485869,-25.4442699463729,715.016563117548,122.324825929918,1592.31134643294,-129.414158631704,2043.51210250221,-104.135035721561,764.652964288635,2.79503018367391,132.695856554923,77.3404913934328,416.825013323277,-52.4770660551588,281.902513328099,-2.04737110119627,288.342260770807,54.2297403388452,1267.3051874323,18.7800547504026,1524.65867635543,-222.837594938463
20.000897884948,22.5682109100498,60.9295992816486,6.39322692142553,18.0798090003697,6.78474258061298,82.7030686461723,16.0970316934356,369.195390466475,-22.3171747515469,723.082855301071,121.389322155059,1632.96599855271,-137.981756121706,2093.35924108241,-121.587361676087,789.525471910717,-7.44344350307578,136.812669672626,75.5273283674296,440.663575608645,-62.0411269427058,288.611628873405,-3.2703095827275,305.770520274909,47.7591690759865,1278.522400983,19.130771124993,1555.68659435979,-239.302909361374
22.6691983499556,21.9453884652602,57.1039049987876,7.18306462387219,12.7610247379743,9.47175050265856,84.7665220151624,11.0643887557028,360.158163100668,-24.1406662668578,702.185548938597,126.431643008626,1563.10645774243,-117.405747900038,1991.10287788277,-98.6847698956267,744.064074626099,3.61504371708632,143.131177746504,67.0136075278043,398.767805320879,-47.0736319622655,271.498869030018,-0.0909964920471434,290.890723717354,45.7637378460793,1272.8768708617,16.0671532933402,1531.57324082566,-228.247512209556
26.8899009256868,21.6166111911233,61.5790254833778,5.63237879344152,11.2026348983606,11.1660628495366,76.7846275311428,20.7256962422895,352.117801195922,-21.4288066078372,677.51734415122,140.100317871055,1539.74685661667,-109.304925598281,1972.91608435561,-88.7353456887539,743.619515182082,0.29508770662092,123.809290480918,80.2746439731352,408.249199237525,-55.8393157430092,272.273893974297,-2.07058606350923,283.525217481218,49.0956049014019,1235.77742789071,29.1730909373494,1534.0135412674,-236.428549707431
20.4624514996836,22.0912569094003,55.1142753687556,8.69427658558321,15.3992730117053,4.55027425614662,90.2799443977045,9.66910977149269,374.413644606845,-30.3946622475109,712.634574382984,120.409425091497,1574.99422577492,-116.469452348513,2033.87441994703,-108.893046276174,756.3633713272,-5.32217556058141,132.460037435919,76.2884147855525,423.288562529932,-60.3099102762312,276.072592936109,-1.98023208018157,288.614645397964,45.9798549081306,1242.74371648826,19.7629620228788,1571.13997463324,-242.899480120421
27.3637931640348,21.1254229335861,60.0333073775689,3.74868306246281,17.8394800668651,5.76759271844648,85.0407955547706,14.2002581409501,352.513686372449,-25.0748792153913,705.296744184409,117.695493895102,1557.00522465576,-127.012959099576,1979.42867000053,-99.0266682494067,744.065100191159,-6.12004055587683,130.752188098591,65.9392218738136,406.564676800933,-54.1532579508116,270.788112083983,-1.99891944492568,274.376903944362,50.858671344975,1242.14039019494,8.31612989104385,1543.15845917312,-234.380554593113
17.93722978836,23.2975413468627,57.624667824532,7.16858555751734,23.165243595279,2.54013784742376,78.8716495769278,16.1617738799461,368.797280438465,-35.6350767833628,690.909716988422,123.164350924558,1536.21567660817,-120.500210194723,1981.96229545123,-101.907520861808,744.901357609354,-5.30291724505183,127.84808978134,75.7624618252542,403.369878921224,-51.2133705543602,272.654790919438,-2.54537652418231,276.521623604767,50.3670678664777,1252.28776308284,3.04901488910544,1561.44269448385,-242.048061362058
20.1489936198917,22.5046780777935,60.4740208358893,6.75243086287997,12.945318700556,11.4866380843855,92.5050623509235,9.2242696248349,363.442801987598,-26.578175837638,697.306787927853,129.883130017278,1555.69479577527,-120.769760861929,1993.76283989322,-103.118684016692,749.102656397977,-5.47383698688337,131.130567838151,78.8420252468471,419.474061286043,-57.1781493201026,277.022270274722,-1.71756779835099,283.606005840392,47.565421973149,1254.01754568463,14.3864072792341,1576.60165519999,-234.173031517936
16.3090574680272,23.371907651247,49.9616193935824,8.91377007167764,10.6191605552668,9.69800999054615,81.2017299847673,12.1475997163011,357.467902036022,-21.8562094748693,678.789388510115,126.988093599407,1540.08663648495,-121.046773235533,1954.78030594742,-91.6617595360506,729.891623225114,3.31255556110775,115.597433412653,75.2078898426164,399.586473370435,-49.2791557376055,267.254490566266,0.0257967387447364,290.147169698082,40.8651658715088,1229.2982437652,8.98361125617518,1551.10986966765,-239.473767742918
26.1680776186885,20.233759015098,59.9756094236483,4.14323365563282,22.0625306683972,4.61641948573156,77.6233463801873,20.1345275686447,359.267163946085,-24.7440548126342,668.812855786252,136.548967877883,1540.63726452795,-125.36158335148,1965.11620923995,-105.468886496532,723.943861871884,4.36845962044585,131.827924957836,67.2370529966463,406.346339601653,-52.2877379661977,273.942159503644,-2.33993729648058,281.489819123581,41.9405992805453,1238.35493603293,11.1047294153663,1568.44182498473,-237.563770835022
19.9188076498708,22.3518492082588,47.9162533131259,11.0289694818853,18.8379473903846,1.08802224375305,87.6178780053052,15.747173186992,358.959086410501,-22.409437772309,690.454470182033,128.356241759142,1554.86358744365,-117.779000635311,1971.22786723516,-88.7984034608826,758.181498870142,-6.40131642797048,129.614399164327,79.290489724969,417.406112784983,-55.0627081300881,278.642074339506,-1.72643731311076,276.920840185973,58.7688196554988,1251.0944441659,9.47228978994102,1581.38560213759,-233.919128223255
32.8274145039005,16.7131584013369,64.073097309852,-1.59698422901342,12.8740253486345,9.14095523769836,81.1915511874858,16.4174123043862,359.711791417695,-25.2029625713521,672.218685920042,131.502384598107,1524.22544457937,-113.582990504801,1927.89695674471,-73.4518508879951,723.980116834282,4.28322563502824,116.683508566181,75.5236768592774,398.003834740592,-47.2627283127051,268.662933564588,-1.97722979230575,268.933468714112,48.4992343779832,1228.67991961993,14.3035752626291,1566.88766348259,-232.244446747794
16.3617685621887,26.9116754387112,49.4296160131665,12.8241961891938,12.0156970567872,10.9509611173107,85.1680864008535,12.6665413967603,359.815039037686,-31.7529243033489,670.938972247112,132.49611466294,1514.72581276496,-107.896104660226,1929.55128942914,-80.6420925227726,728.003463617595,1.23351912002735,115.876526262474,75.3556826719037,397.296762538216,-45.9026519616991,270.183259978536,-1.33847673141555,271.774331966304,51.4038055086932,1223.06482079776,27.2331244663051,1548.04010646595,-224.147813180748
18.5823445030201,23.7580652084147,53.9413860456302,7.21682277144993,22.1328746921708,2.70865220497836,76.3369927134901,17.7501614328617,355.829488007587,-21.7274829059656,677.902838028924,132.835286495528,1559.85379205202,-125.26185071708,1973.07874171876,-99.5334407033598,745.742379588775,-2.30632963452675,126.022948537986,79.9015212983005,412.096901542955,-50.6752803284417,277.470884329429,-1.979864542257,282.408653091952,47.2897723123259,1256.78794455617,11.1970060097839,1588.00413687155,-229.878900210688
24.7399689357726,22.448248210654,52.2942198940925,3.95266992119678,11.0985073786207,9.67326223941289,70.7186648999809,16.9666802511768,352.444238946395,-20.3456616423626,675.492811338687,126.317917090067,1523.7854339752,-116.904595583931,1926.25486784087,-92.180601707736,734.144364323994,0.235209769251733,121.848199226441,69.5377013588711,414.263266795902,-59.601804341964,266.307836453722,1.26583884061987,278.657062463874,48.509189773543,1210.61701213138,20.4365391655946,1555.46155269905,-237.733924007688
26.5327170303802,19.1358407981542,59.9622851711423,6.29372072948857,11.4951336059368,11.2837607763003,78.0994011367779,15.3646709066039,357.932988418107,-27.6157805632983,680.592427915221,118.47548603443,1528.15969777674,-120.602074784189,1951.18877973878,-106.392462028134,736.915190691604,-2.84315309531094,124.459251859136,70.7471238306581,404.275630293419,-54.5184406456092,270.531008880321,-0.491935039923777,275.832703976224,47.8149235377588,1231.31622370505,13.6562590596028,1580.09054709236,-232.346924311785
26.1207285153666,19.3707945292678,63.7110022908667,4.49496976339397,22.0340718219423,5.55093370009619,73.7095682824315,19.1851914184104,364.201573853434,-25.5919736147308,673.488467361652,130.07132395971,1560.74091390589,-132.789418958536,1962.27766685319,-92.8324717133417,746.07257434468,-2.26416206095377,142.500214730032,62.364543994277,416.010651340753,-54.4218063670678,276.016832233898,-1.09483267371244,269.182637890339,61.7396118381713,1229.43143462131,17.8673696123932,1582.5993493771,-240.116069338786
29.292276519926,20.4936311371079,58.6177960037515,7.05213253898758,16.0681433829017,7.13029217982633,89.7650358816712,10.0975214631129,348.348770049935,-21.7938494483621,675.290481116175,124.133018710083,1533.27039164567,-109.15645738177,1917.26263965254,-77.8577894723271,742.631228224401,-7.44786243490257,113.205747733414,76.3593170834832,408.494226650472,-53.1464650352281,268.573233536629,0.155212139346753,281.481956488974,42.3705023206037,1219.02282293622,19.047114196003,1556.54238364504,-224.407198463585
25.384166628267,19.8231424120535,54.6689844252694,9.21145975384225,16.7235740077312,7.81737465873106,76.6551364524028,14.6008391510371,367.27494072677,-27.7027465523343,665.688855610029,139.230158398478,1539.59088785559,-115.546704895633,1906.26356861217,-76.6044461086137,739.880933392554,-1.15368286796096,123.540262585782,74.4860541378333,420.431572550647,-61.5623072113003,271.878859030275,-1.62165104934737,268.296153710886,50.7114963789253,1225.83004433119,12.6673693291846,1561.82141027857,-232.23114646724
25.6104238817482,20.1157896056833,52.5408974356375,11.2576929310661,18.5353940758235,4.63202090024272,88.0197710157462,11.3027564756702,360.888176482292,-24.5102947603177,691.324109555656,127.354488857177,1579.24240917306,-138.341199819466,1951.23786992509,-87.5407708293418,754.360651455138,-4.20748995841693,137.040725524973,68.2301675092166,421.998035256335,-52.8086916421543,277.077945962627,-0.860964960967944,270.716794538337,54.6183998582284,1237.92090611244,8.98226807708813,1574.53855497754,-231.050493851105
15.973673620524,28.200114650699,48.4802578982244,12.0690763034038,16.7281541965201,9.35903580084759,77.1305332026655,14.3147946037781,368.946487610942,-28.9174701457981,690.051482658052,131.734883099965,1567.41018472405,-128.805067603737,1959.55774894935,-84.9044724676396,747.824714667962,0.331019429329626,124.808616941775,73.3309707535365,406.184602196042,-48.4769151044361,271.386573709779,-0.70044864317753,270.964676389953,58.189663080425,1213.50200849771,15.1484400964725,1579.21228876031,-245.266646787543
24.6485829625023,17.6605356359276,59.1429181200261,-0.265643858017288,8.44306759972278,14.4395415081247,75.2773519266481,18.1302165431864,359.828388092056,-27.0049870251084,680.630888610489,125.673901820243,1552.11012291738,-125.622068778875,1937.7200028761,-85.72967186522,747.308927888339,-5.66777203428025,123.801713519703,73.3106156132966,409.077695575774,-50.1657622065033,272.566954052081,-2.15376131575397,274.271774620212,44.8893760753576,1198.98080837759,25.5208493779037,1551.67582165418,-223.638135857502
26.5190537844478,18.9643294806178,57.3708008729722,5.79927356580297,11.1950038247053,13.382707363534,72.8554460518394,18.8409810194276,358.46627293166,-22.4993706117188,687.952741090733,131.119080105704,1545.78370704888,-115.344739848852,1954.65603726683,-83.6272536066259,757.854105380912,-11.4063504596451,133.08208822037,69.8066077224803,419.113076204649,-52.7846312474591,279.24777739628,-2.64293599841204,288.509304394945,45.681249434846,1231.76274877359,8.51275694645529,1579.90259076966,-239.2842988831
21.1142220806201,25.5378741951378,50.0501114059042,12.4977567802749,17.1644496274162,7.75872874080428,76.7993763399134,19.8243329726665,379.596879131694,-37.4795712871341,702.756120633544,126.119094663019,1593.76407952679,-125.083022795133,2007.47656781909,-91.365102583007,772.422188789882,-7.13444860467983,123.083809713746,92.0955699928057,436.680034857783,-59.1937758201423,282.160276379751,-3.33105546449359,286.986966927534,47.5681254370244,1229.85756462267,20.0854588028515,1581.64042703313,-242.782965084737
15.8207043686248,24.2342942733378,50.097092585803,10.5625502758643,18.0757266355269,6.01928251651953,78.0221664629023,14.9036282403368,362.641729853788,-26.5183409468087,683.15968830736,123.821989880079,1542.36320936764,-104.244805095438,1951.18148873057,-92.8619736197462,749.872879734624,-4.29935405201859,126.115886869625,71.4655351558949,420.816791453909,-58.3122093786958,272.620363057694,-0.675558734631671,269.380806157769,51.0492501370111,1212.41369993344,15.8919119754592,1569.8163100931,-242.701030412981
20.2493895403448,19.4420693759529,56.822479278426,4.63490225874383,20.59596810866,2.61565398734286,78.2738832159289,13.8349225011798,366.749853440023,-25.4044602730786,682.361230698841,130.141553503588,1564.67310827652,-123.885423008044,1961.93306586532,-87.1454214527413,748.425857156743,1.92254557641468,124.269869900723,75.7090157103745,428.336226128493,-57.0680349373359,279.167572920859,-2.73816818755168,276.459374080738,52.3669831796984,1230.22723818836,8.96618433352621,1585.01631431315,-246.117665310742
20.9390362612665,24.8857110022461,67.6697198245587,-0.456608266119206,11.486567322138,8.86633489999257,86.1009856819033,14.6040951810635,380.174882524765,-31.8685979303271,703.052535388068,127.357349574606,1600.22647921121,-129.25019986254,2022.06538057344,-100.29952204217,773.300295314099,-3.59791533182876,148.987420871831,67.8369476337113,437.0277700803,-58.9305325036758,286.116664899508,-3.35952463538386,291.981636405736,49.8985601568101,1245.21793759379,12.9617338935412,1606.83774587545,-249.448330974392
21.6168357104481,20.1942111538389,52.9723588047813,13.3300491965679,11.5366512936431,7.62080558316115,85.1491487102887,10.3725953428039,360.254542716984,-21.218531598843,695.602677113143,126.747038388112,1553.28484025815,-106.766830229346,1958.18230247406,-94.0475933953586,744.808231002897,4.52048579891031,129.338780007952,74.1272760114143,427.244226168631,-57.4633744622987,278.660445872849,-3.59920359783953,268.359334033807,58.984220040487,1220.80644954907,15.1676408128497,1567.72289814268,-234.989745866883
22.0864029491668,21.8903529493319,61.8978269448078,2.11574198913018,17.593636881091,5.50572843952164,86.1179102098936,12.6657486750423,367.423688941318,-24.1384615106661,678.378143129732,137.464065629352,1579.6047691694,-123.527642556978,1980.92557159193,-92.0086770775597,768.854345469341,-6.81528041355205,125.155453927611,76.3921915633894,427.929605001517,-54.3464112094181,281.292582383731,-2.06815965786438,286.38354060313,49.5328256275234,1235.66492913031,16.8301811389567,1571.14381880062,-231.584413500523
22.7847184147937,24.0251032940197,57.1190250428395,10.1047825603245,10.4893851267846,11.5453408822333,85.8953975364286,15.5314752491449,379.203117392229,-32.6037387906737,720.913016349122,125.838427281344,1613.47702414179,-125.42466457266,2030.44481980197,-107.01216129805,774.88170545977,-2.31281478258995,143.326845719488,73.1168078372286,448.848991798198,-58.155942499932,289.254190173312,-3.44997282419741,284.577034680085,57.9874277265985,1247.82020659123,16.1904892999205,1615.03345015542,-245.606972093787
27.3467680790926,18.826248826779,51.7735849667213,9.14291422820756,12.7117697811204,12.2976279192005,80.2481071772344,15.0424800297712,364.01880890659,-25.6104288364518,709.221616055468,118.058606811019,1579.84812124175,-118.312371948529,1978.634500515,-97.3260884834912,765.848134413934,-8.22789883196689,135.210249093378,72.2287985185434,427.313184684962,-50.7939978040461,278.036244763398,-1.63124034863115,275.830001261218,57.6381906969074,1232.38084055625,11.1626032585806,1550.04511960861,-227.285573947415
31.2226871080415,15.8960554479987,59.7299055914552,6.70196907536498,23.1830648767443,2.54277834479302,80.7298913279557,15.0635810631914,355.342681521414,-16.2321013771191,694.513176612987,134.80419835769,1602.18814881201,-137.229136719911,1979.9129426367,-91.8872409824443,764.774591316311,-4.926425236915,137.487959178728,71.5494734906207,439.731826110449,-61.8019883138145,281.641791923826,-2.48300866970291,290.815233065169,51.3850935934124,1251.09270228189,6.61518731300394,1568.32465528584,-234.195654627871
18.8675139404424,29.0805446714797,65.3871262968685,2.8433564624949,14.9979307455003,7.83171315770507,91.0264674293196,13.8437999270893,370.773960835226,-26.2199351307657,711.226798791432,131.824662376253,1612.12808981881,-122.453608911427,2010.34060488198,-88.9817663203743,782.526656632884,-6.64023187394103,136.716689884455,78.2594021997161,446.897841904723,-57.373484117205,290.576632229936,-3.65184535028616,303.792123671111,48.6187593995488,1256.08880576791,10.8619299303235,1598.11578813996,-241.246695529102
23.0326947018481,23.5552497657416,57.2343777113143,8.98741055251773,14.3710995715712,8.35524070961872,81.47248334467,19.5805658968058,371.68493116546,-24.6346808006762,716.697736665696,126.949344989393,1609.15678118048,-130.456247852181,2030.14076885576,-105.245492015745,782.643221866944,-6.86134074364574,126.82053458307,74.6759202918993,444.677223408128,-59.3234475642443,286.233005190324,-4.10942870111058,293.043755781449,52.2664741874141,1247.9581526836,19.2979929619619,1561.37211954606,-227.093697508601
18.9823002633639,26.328406067285,59.9629068497244,5.43581719682385,18.5985818486451,6.3764614535286,96.6588453601998,10.8575749216596,373.163500882603,-24.96674991182,722.375184150905,117.977548874394,1618.65335142125,-134.475709254041,1998.29222693757,-89.1919491691418,781.986364062602,-11.779412172532,124.471939295784,82.348640072359,446.420769171263,-54.1296327222466,286.917820763522,-2.87418971371811,296.618649686452,51.02810142839,1245.59011120377,20.1053970526123,1588.40048460155,-252.128147554202
29.7292564179577,20.038519252742,58.6173114167772,6.48603991542321,14.2043987951732,7.52778674372161,94.0284444914248,11.8638445738496,373.450004854312,-26.8111399855119,722.20541821039,123.375387631527,1637.13037610872,-133.237427816129,2046.84660905875,-108.780242976728,796.30926950464,-7.4211989662948,131.186329236055,80.9486237079115,458.239088358471,-61.6955790076266,291.62141019768,-3.05200680072426,294.263434881165,56.0952840680959,1272.4418637163,15.01464291201,1589.15354953396,-233.332819572632
23.046717338236,27.7203746669859,55.3391344595519,9.94393796031769,16.8050842760981,7.74619362992369,90.417150887509,16.6222352911521,383.897759202114,-25.2712767483612,750.283372370026,118.154732475609,1651.13512986691,-125.427138720284,2087.93343462971,-107.097957288469,799.80007774144,-6.73819669333843,143.751889012054,76.8557847698439,465.216744762769,-67.9020774899313,293.057941061313,-4.11894673189631,310.999052994972,52.1252869794589,1277.24647860562,14.5587358727154,1596.76655129585,-242.208016762031
28.3493015872701,22.5312106347352,58.4035162447798,7.29221313887661,24.7506478259511,2.34506827160431,93.4797754349016,11.5050883295676,383.462335297906,-32.190221034241,728.113510897278,126.676852674359,1623.94146504205,-122.484230373721,2021.5448129769,-96.888229793347,801.400640326164,-16.6343479098277,136.550078558556,76.053716225839,458.387848607792,-60.2971742467267,290.248746743258,-3.47372598654704,304.353756233981,47.8590175564059,1283.47599413157,15.3423305507842,1572.69433191707,-228.771708565984
25.9238858496427,19.6560758864326,61.1355827028245,6.25866094898794,18.658003907824,2.9409831145547,89.9950650428554,15.8382070786149,384.360034593673,-28.1701952191587,741.077269223859,118.892330621352,1658.64440213842,-141.702329638645,2049.03147172389,-98.851727144119,812.309664472328,-15.0241033060705,145.606566299269,76.2183105733717,465.512838907385,-64.362241435963,296.604332648722,-4.22625033007793,309.527455619789,53.7078583389196,1296.4908176987,11.0980547518978,1604.96335497978,-248.637495878985
27.5208028981193,24.5455919625038,59.3346628567871,5.42393861385875,19.3948282447711,6.3213046995217,83.248852429368,18.6942849300013,391.10246762576,-28.6223436523766,756.394846317272,122.558790923619,1685.54705554395,-129.70483525856,2123.87817553331,-115.977136507629,835.066851395304,-20.3598959243795,157.848144231238,74.429952554174,488.053063390328,-76.1721874149466,302.495219898511,-4.26394399292114,328.154985512023,42.5411771709345,1316.11829297129,10.7997469370439,1627.00781438944,-248.700130854719
22.601819347295,25.1684848840083,66.224298656861,6.35442390285061,18.3484235163849,8.88746409105097,84.065834470488,21.7036658126168,384.963801121804,-26.9494471280377,740.848696122344,129.121921759101,1652.75724448673,-128.362708331637,2057.4636247098,-114.161561228593,804.186345173948,-13.1498497614336,139.200070152175,74.1397484529771,467.993650498117,-63.1389508591996,293.173667782243,-2.76022701645249,308.245838749425,49.0081757792266,1312.348793221,3.89084029899693,1583.13007581239,-239.02011054984
26.679261670273,19.6889352581746,50.1617874649964,17.10647084127,19.3751716997952,4.61110336594221,89.9635035663911,14.9337608477296,386.865381033287,-26.4103703333319,735.501327621645,127.841890110373,1654.77106460958,-128.234710591981,2075.40394476317,-112.149084261974,804.821406180134,-8.00524136911231,146.589318294141,75.5983230982504,468.497775993882,-63.1789911660733,297.792559865641,-4.30187357906815,314.913242392754,54.3066699936411,1307.35951055075,8.8513093448743,1622.72187239168,-255.831342605956
26.936164320486,23.9260164320899,68.3973126782401,4.23025162849222,20.2873806185609,7.2100258185902,91.1606526949957,14.8932204636201,404.795252838136,-35.4466445660779,759.166645119278,131.952812468257,1718.12204525185,-152.373932833512,2111.92426446061,-105.520075776513,838.603586008783,-15.852515119053,157.063755623317,76.7680615945669,494.370848788391,-69.5265177216046,303.942703184773,-4.42799943332721,329.051244454278,45.986446556264,1310.55793303582,13.4475829860184,1625.97287092138,-246.163886761159
26.1504434200423,24.2239851842267,56.5399897806113,6.2865150031517,17.2677413023821,6.93910018300494,91.5396227476437,14.6703679966268,401.289392592203,-35.3870888825625,755.630364513201,122.059561737018,1676.79405104246,-144.685676147621,2084.16119094182,-107.431818343428,798.414565403202,-1.82538188618116,133.601474170113,78.1729736302267,468.062275242483,-63.5490278125633,293.716633655344,-1.34126685215368,315.231170890641,51.7378877523307,1303.01881326898,10.9501742568864,1604.75758760743,-241.926448353806
26.2991245513493,24.9442001038169,75.1593168036293,1.02439930083388,19.5849610241565,5.51672847237447,85.8629309715426,22.1369824176968,395.285243705865,-34.561369788556,748.204563383776,120.126925182985,1686.37176409289,-145.459335892762,2099.43242398257,-116.421777972325,822.901504508084,-13.6475677708445,141.503129605888,77.4321930002697,478.52470678785,-65.8240274816029,298.435439094045,-3.78839196963908,325.467028642358,49.6874536697279,1310.63047275631,10.8401766548682,1603.40012099628,-242.333588260542
25.6085860529759,20.2032919992372,67.065905127626,2.85145285300153,13.8036402483935,14.4081528562529,98.459605621255,8.42555115753154,406.484756837091,-35.449760290664,761.799549889701,127.890027774589,1725.4825077087,-155.886759476432,2113.76996373848,-114.46528725275,841.411337695966,-18.5537370758226,156.451323727148,77.8512490955307,491.470046420115,-73.4787255110845,305.164809512384,-4.84480928456877,328.617339634706,51.1900478415991,1333.17409501468,4.67832306956832,1615.59633684317,-241.637131785716
29.0871353683231,22.8461984937571,63.0700227685965,8.67864113050935,15.8657736340671,8.03343473831144,94.555640054966,10.1452224977718,394.310602334454,-25.2524436151782,762.977557908341,133.163499727828,1718.49182446272,-151.27516043836,2121.30069525702,-105.038682285806,832.995563393394,-20.2869519060253,152.047936928614,76.6644214210896,480.055902301568,-67.8863539741663,299.993138762961,-4.50203593426406,322.57300903001,50.3696984982464,1311.95232650104,8.2282995225,1608.08901452202,-236.907730116275
31.1417334108347,20.5784400057964,75.548530801984,-2.33717874250412,21.4442054674216,3.79816918960402,94.2547328575311,19.1690492780965,405.307571358199,-37.3630256826267,750.115718755039,130.921988220277,1682.26344446713,-132.866810917871,2095.32799130434,-105.486023936078,819.111554209679,-4.30362994797393,149.771589974815,75.2258449996755,475.603534914038,-61.6859943937011,300.429576963412,-4.5579213590779,314.684039227627,56.8205117119271,1303.24183741148,14.5358627807455,1611.41909018147,-241.562554861784
31.2630087537751,22.2176110083672,52.9528984354194,14.3679228188904,16.7923534212407,6.72575130412194,95.9574464583861,13.2748733720757,388.322436207273,-25.2756230028376,779.429396544604,120.018106741792,1721.6375114291,-141.487779812983,2143.38983927397,-119.333782922645,828.989254179319,-9.87083728812212,150.233401004256,81.131374438087,486.26269593884,-67.9497932506151,306.442691920912,-6.52649353070228,333.072007471134,50.994169200991,1337.5436416916,0.0907919705724633,1650.32309089516,-264.121574399737
32.0569677476718,23.2355927677053,65.4394489464457,9.21213783837262,18.5005288325338,9.47247317225267,100.386761840455,14.645583269691,417.964597885148,-34.6586468164426,792.502586057526,120.375096909949,1753.94420689179,-166.584875641595,2195.55407492457,-134.52976613492,850.009103371068,-15.8715074605554,165.732625625134,80.2039554433042,485.07140007735,-67.4244274101966,306.006000823785,-4.6428627593882,332.414371036127,53.1513913623997,1328.32239589039,5.61447848041027,1639.01840712473,-243.26118602572
31.8831593651179,20.6645838530296,70.2610436696203,1.28889205679857,24.2920819797646,3.18652738841242,84.594555281812,19.5233355067936,397.579222606991,-25.8339203854071,773.686804246186,121.060562008322,1693.34360101423,-145.64022378664,2118.98551684257,-111.854503368,844.328624042793,-17.4129349194887,144.697138360408,76.6176165684609,479.589632843548,-68.5257591401336,298.087875430282,-3.73188888450919,323.719535853928,49.2956135105973,1305.18721180715,14.0260595542155,1622.99816261643,-240.215843944746
28.0408495121734,22.68755042306,59.824094337439,6.21682811406047,27.6594517030544,1.1160765085419,89.2216363683384,19.8510743226706,399.513435838517,-28.8463385379544,762.819488941092,130.832104606911,1704.84918595822,-146.11373621465,2114.6394597636,-108.745196732901,832.082821260993,-17.1188653546017,146.097590102854,78.2701786749777,487.111172183367,-67.3945678446175,303.054863162649,-4.76484166085319,331.948322686338,49.7506918017063,1317.33785615491,7.56919507300801,1622.53706326063,-243.389506856542
30.1758835720943,23.9735218169606,56.5233658190845,11.9304153904519,14.4270158651449,10.6803937572439,90.6060968574998,16.81354027187,422.414457792215,-39.6170341535753,774.020395409172,130.27935156824,1736.35986945069,-142.327717757582,2183.21115316295,-139.715878938167,846.932273893809,-14.3725714905096,151.713667827434,84.9694849636284,489.703112646468,-68.557160280587,312.706677403438,-6.17607752142915,332.279438471417,49.2309173666006,1348.86959296473,-5.11053346980393,1662.53932957072,-248.636301341498
27.1023019040852,26.3866821524186,63.6721025262962,10.5891525030678,28.578751871033,3.51758643117367,87.6016603380054,14.003738002927,414.60603098734,-34.8865249740563,771.108850979771,122.486920850231,1691.42333852338,-144.203915379325,2128.07673571548,-122.272282847478,822.051676231252,-10.9037688029923,136.381643943458,81.6426144817263,494.559523041383,-74.1548419401989,299.394919122386,-3.62207559757207,323.874061570447,48.1773637270186,1316.89478845501,5.24867639428933,1630.11704761803,-241.606374215878
35.9066373003951,20.7599250248618,70.4755547675498,3.0750635392584,18.0945663576433,6.92506942479883,86.6481054669184,17.7080648211042,401.789393718014,-27.9181239113924,757.77241424223,129.324011347812,1703.17741530465,-151.777988271014,2111.49680830969,-106.144381967108,828.995193041532,-10.5933345660509,144.885453577831,81.3353882775994,495.608717841478,-72.1870544903026,304.099420995382,-5.75553713294701,315.191482136813,55.1085980651986,1303.25972388215,9.45725486745509,1630.61305568593,-247.836346611632
33.6054873890838,21.8832196180421,65.4584641506702,9.98638293556802,19.6756255424796,8.9777955241824,97.5741783509097,17.4974020156582,401.640019255639,-26.343424108563,778.896087284896,119.985290165044,1714.73807467113,-143.889549484266,2132.36913515276,-111.781114107267,843.786367964154,-14.6377332705808,155.939782794002,77.8916332705931,501.520744239226,-74.4668654163515,309.148953081759,-5.18974908798913,332.251616076943,52.2723048656043,1330.05789695086,7.85625557202664,1671.71179559431,-260.825410058139
22.2548385223655,29.4474833871276,59.0787133426349,7.28931493269347,21.6882361869763,7.32265599366595,95.2944445202115,13.0851365835667,394.590835593462,-26.294171011333,772.406198003761,117.604149776447,1704.59271166018,-143.132879122448,2132.69148547721,-118.14570672253,831.986199366694,-13.2550159772791,150.149961632632,75.5453964071333,487.875422256292,-70.0426094548851,302.782286524983,-4.06541398669492,328.677701734096,51.779049993288,1325.11547572643,7.39737245855664,1620.57811860637,-228.570149725785
32.9334685488314,24.9062362690435,59.4150715505805,8.48448385413251,11.6941561867022,12.2501284262739,85.5598517945089,15.046087483992,405.98205169751,-33.5480915454473,770.917403619093,121.945028702742,1703.86910142932,-146.696549853493,2115.25930999088,-117.652446102992,831.448078876298,-10.9121670825624,151.287279388194,71.8772582418782,488.656790139182,-66.992517720024,303.105127092175,-4.00687524389204,317.100303475607,59.5735667177218,1320.86057141887,6.24676412990075,1658.01953822569,-257.016661205677
23.5556472226877,28.6120567145324,64.9013617203926,7.23818841643697,22.4310649542087,4.56358302459832,95.8007484078878,14.2798118973091,405.353187763805,-29.2079092828393,778.393284061616,121.413269866358,1719.05402925894,-144.239922761611,2154.19199334125,-115.850820010452,847.327436256659,-14.146832021545,156.009475398978,77.907060292677,491.464255537023,-66.2104915353476,311.973440407103,-5.06561793249619,329.643537352334,57.1764392496333,1339.30124194461,10.0901677343398,1676.96512757344,-250.710582448532
28.5040800240291,27.9499560782287,67.3416577763315,4.77842634831527,26.0193887553381,4.39633090274117,96.2500000161261,16.8317175005117,414.154830953747,-33.7949737961911,797.990191305378,115.73457707536,1744.54192758941,-159.085836716223,2189.63127628476,-122.970279046528,855.456233307233,-17.7484378499026,152.05375214621,78.9367111545148,487.330051006943,-64.4523568984776,306.037338576296,-3.49206738505751,326.2957219652,54.687267067299,1341.38158883784,3.83790227712392,1664.65040693271,-258.648958188385
23.9019515482028,26.5986858551615,61.8219477221192,11.4754354175915,22.3669842935306,3.12005606238787,98.6077127609045,10.2436101423916,406.586941337061,-31.7646016584592,761.015200954697,127.218680038785,1726.84379556474,-166.522839811862,2143.64256933104,-119.352118717801,845.780254043419,-14.9842999935843,149.70175259103,72.7258941486971,496.408826274767,-70.9474965542684,305.906875408627,-5.69722202577579,328.132262150422,56.7032995093005,1325.51536378211,9.23842071189973,1650.58168787006,-251.13273071706
31.9213794224073,23.6082328456354,59.448801756735,6.45291394185162,15.9813977959591,10.3828252040733,98.5613660588853,14.9896809792053,409.211762249546,-37.3578030880069,772.202502325328,129.163940310249,1718.62918901335,-144.481305664392,2169.04876447404,-129.467325811934,840.841023726431,-11.9625975076012,151.732492906141,83.761655118717,498.677053206288,-70.5137961988501,310.053322114453,-4.88721431394319,333.136226822826,51.2860624764483,1338.53152321034,7.76833099799693,1668.70664315939,-252.291350295995
25.2722047038841,23.7208394529351,71.0512022170699,6.63867543545483,23.6480555026309,6.92850805396817,107.833069997711,9.89388241138058,415.56871306424,-34.4429389893529,795.137644695883,126.540066764887,1761.91215087733,-157.081497388553,2187.22212852203,-119.432872071439,861.677161647267,-18.221605002733,163.283997102965,80.600093362436,511.995795017883,-71.6394189204348,320.497984775384,-7.37471098760504,350.744036013765,47.1615588085559,1374.82109592213,11.6108212188124,1684.18549712635,-251.632113407048
21.8881434023443,27.8291773445876,73.5761793000173,6.3893696026547,19.4224843863709,11.1883586455089,100.20634591787,8.98705745884967,413.214083872409,-34.8886340253973,769.408008810534,126.122920712227,1727.01352473654,-155.554667734227,2148.80050084031,-120.411762552812,844.025417474718,-15.8447533384207,153.758564929495,75.8517192774408,490.425922990392,-68.1875715858007,311.681467444243,-6.43810202513394,327.980383613857,50.8434266032786,1346.21200248108,2.18370009222432,1683.70133887488,-270.781721926453
20.8811150161948,30.5976334611039,68.985976334561,6.21663835056038,17.7205454709087,8.671002452825,92.6654195425455,17.5131381956398,404.27273461314,-37.621767427627,784.329422927136,117.454202214938,1753.35355166101,-166.334647538362,2136.59583008527,-113.348032914865,852.3190884423,-17.5489229068788,156.170924296162,73.6078268910172,497.599137135666,-72.8440946152886,312.829079601553,-6.31688441321858,337.765197717468,49.9294482761226,1355.22040224794,10.8325662169066,1698.74179514898,-263.581927184079
30.5076610966372,22.3383224378787,60.5747590826541,5.98948448481657,15.1006592276674,8.64529635433725,99.1593420278606,12.0042500867217,410.852637872182,-30.7196879178997,802.047418108281,124.4093127005,1776.08312550198,-162.67672334379,2187.86013532281,-125.649936886232,871.728375935373,-19.4464774012132,164.681094823927,80.7358606454606,510.394381590569,-73.956438605432,317.584060656784,-6.59721945972394,338.492948799732,61.9012162372864,1387.6874623966,-0.107073682183785,1725.03834816595,-275.849650585232
30.1489774387088,25.2761522293221,76.6028260567618,0.551484729496093,18.8922394970758,6.05418186056823,100.089170701753,16.5861042650864,408.977548065443,-38.9089445010613,782.969428919588,128.596460777173,1755.84620828089,-155.044933883167,2149.22420861122,-112.421114530071,865.412578576781,-16.5389603017831,152.150502671993,80.8740592679562,500.781385449762,-74.1641628516687,309.175488538965,-4.94905844053301,354.677988332941,42.0423283818533,1385.26749444884,0.559385894750202,1671.64346046113,-247.883315533202
33.2585097956589,22.512265995225,67.0402181503736,7.16336427880893,20.8352934446801,7.17412960293771,101.458725651961,16.4529545627595,395.406949241492,-28.1754685291695,792.119320075768,126.827769629951,1769.53908593162,-157.943930881022,2141.28798009531,-113.693869346022,864.05663205251,-16.6044187761956,157.892410042356,77.3335908282955,500.598491814873,-74.0111293531434,313.69197227436,-7.07291047023014,342.305540417745,60.7513548079176,1391.51941970684,3.56347377805308,1700.94321197498,-263.382181738137
29.9914847827642,25.2176327615783,68.0203836516812,1.92652579814123,21.8056485946656,8.0391832361458,101.383888269843,12.0464618921581,419.414176023599,-42.2252380973052,797.988607575435,124.010898360452,1756.91457001527,-149.29673803881,2188.81151364253,-124.936612914572,858.315450404216,-14.015066906349,164.316477752742,76.6531844173582,512.94580972625,-78.8025879017226,317.838302411137,-7.38354309322989,339.776314526516,54.9679140608902,1408.01299542628,-6.96210024349873,1730.27929711123,-279.425670228034
24.9478360587234,29.3540231051138,63.9313806925768,7.37058935985084,27.8720219887302,2.69092130593416,95.6438950629545,13.1154325211275,415.800304842726,-35.3353204655368,788.250528995096,120.672325878532,1729.19216396881,-153.877062313099,2140.1571174547,-106.975217044348,846.043600460957,-20.6817287733048,144.132616241639,79.5788967017459,493.912569277327,-69.5753752796738,308.193129176517,-6.16683828426969,328.462321513784,52.6126789813371,1374.32807260405,1.63914569072305,1687.47944909497,-261.172560835989
28.0947718223295,25.683369180673,63.4594536872219,3.19358447909701,23.9203636511521,4.79533289785001,95.4128136436852,15.3053358668634,413.571581915093,-32.1912577004593,779.50832983623,126.160845743501,1714.5822031309,-151.372026289851,2158.16739391488,-131.806897691428,832.505513975355,-15.4844134796832,155.847267537788,77.6971206596555,494.953367005838,-72.0277839149975,309.281976252105,-5.01436414087478,337.163365786056,43.0052503413865,1367.38239209275,0.864852234292845,1697.70388595663,-260.43700444672
37.1324747296512,18.774749836936,65.5412435637657,8.15174886023855,26.5983891051353,3.88314348595127,91.2231357219956,18.8175527397981,424.604164377054,-41.7344341749334,797.849589374176,125.457862492466,1744.26322320312,-159.424647429746,2196.30966249643,-130.495807765808,829.343900923871,-13.3822163453054,157.593633327754,77.9924508326312,505.454664535107,-73.7491031776211,315.596804238754,-6.51431726685859,336.400454043047,53.3089358852685,1365.75527736552,8.82392094300733,1711.07678527473,-256.180093410686
37.1459555881906,20.345437414603,64.0190617636585,9.23843844734431,27.4530703788182,2.0748786757938,106.510733620983,10.9435021717619,415.306967495709,-36.7112077557289,795.476936909514,123.493465988406,1766.26551567877,-163.383979464313,2186.71945628747,-128.080903353583,843.887262876586,-19.4341609222692,148.517761417501,77.0814799843373,485.131439957454,-67.4358748365331,307.2774648733,-4.66126095424957,329.863234402392,47.0801384493461,1360.06534508585,7.44372592655627,1721.77523859326,-276.259000923164
26.4789851115964,24.6808657848617,63.614643401705,9.66304067843714,28.2581108820889,4.93624644369128,96.4128715796893,16.9914521788149,398.438989876837,-23.6435395530774,776.093566113793,124.489584474345,1726.90641154582,-152.221882092688,2156.67694263956,-125.673416476286,834.559070010563,-15.9156249401792,146.172375247466,79.5893743379293,486.806510316289,-64.1746866603977,307.545390239343,-5.72230553342161,328.561962151005,52.8841676228942,1338.26321048772,10.0377345992591,1690.38494577915,-267.881260863135
21.0762351403616,29.6714268877929,66.2036450312379,7.05238518599357,19.038546913706,8.53832357857695,99.4239674735877,14.5701820506859,408.53483592874,-28.9597667818954,798.320575899177,113.309178523128,1738.44433845811,-153.819092712538,2163.5971497005,-115.341645119347,832.593932602069,-16.1868714106345,157.264650062741,73.2968597451453,492.985912323326,-68.3064826715196,311.460012093404,-5.54730041190388,339.711503901407,44.0118727065508,1370.41390162017,-2.27407318970768,1742.79076237993,-285.74922066648
31.8143343343649,22.1449606193691,62.7049459028003,7.51749635944289,20.3156430819897,9.56820275916312,99.4212904003137,15.8538750884242,428.309224639384,-39.1488651100679,809.71586877942,112.833470078267,1761.25829958499,-158.911168274328,2210.5431577027,-127.764797866079,852.324934440237,-20.5047555566905,154.73379533018,78.5587497951169,496.023031504703,-68.9291478686206,311.696552647883,-6.02693822267906,323.055322889729,52.7356526830683,1322.69179623544,24.0059861175704,1733.91433221951,-278.867069181674
27.5313849111415,27.0607926101331,58.6048235148996,14.7155617601724,28.2338837657896,0.00310550771956358,92.395787768402,16.5052241119461,417.382046319452,-36.7124674606023,789.598878873543,115.557414213278,1723.89393680472,-155.67939651247,2171.71562610076,-121.331453176399,825.710053617043,-10.868722235004,154.095281053744,77.3955574015274,495.570356992757,-69.9897157652063,306.391211561001,-5.05045931411134,324.000432472145,50.6066491958551,1350.94472310221,-1.14908110754666,1730.76464449975,-275.662359717459
30.8596973273659,20.8655512648027,71.0391731533187,1.94992847917539,12.3245912407011,11.8415511156964,102.342012217513,14.9262036971982,420.443740876496,-36.2206775874032,789.233706360807,121.753365980072,1729.43367715562,-152.172446856312,2165.83291539814,-113.403694419808,829.232355149941,-15.600022596981,154.054925437445,71.1599705624819,495.881157108697,-73.751306862557,313.101087762358,-7.0936217510939,317.846135811035,56.2472833050423,1355.42806464865,-4.24853334072878,1735.99954525663,-278.639450052152
32.9418152126834,22.0222973700979,71.4739563130543,5.05308814627068,25.550475205146,6.55247217676936,101.573768488394,14.3170456106926,426.240880672329,-37.5965866906668,800.946304181491,125.255002562582,1782.43042115871,-167.042024994095,2221.12197766777,-121.4635664973,848.202896185366,-16.0112562864803,150.207812302875,82.7308885182771,511.838611915783,-75.1370911207424,319.465920927466,-7.92021153985583,344.991992717639,49.8764858639857,1358.65584431556,7.46684559114585,1745.72203043939,-281.656463387645
25.4521666735521,27.5026507930624,64.0256107580324,7.30678819996391,23.4272934432466,8.32326762222375,98.8807640955792,16.8672316560793,426.50721227007,-42.5480778252765,787.472260038203,114.300615524102,1721.72550737683,-148.272675685865,2169.19733853302,-122.943064785987,837.416656199284,-20.5343216486039,154.661570636609,72.6353180963444,491.557957215944,-64.8056154476944,309.614474274202,-4.96622131476222,319.336161266331,57.2899434076013,1340.66884280714,8.49402643832934,1714.44521852205,-271.914436330035
21.7050374822882,28.9757052326774,69.6319324018385,3.03766120904042,21.9726363404628,8.16927600020008,96.4810404943377,15.8805237826431,420.240911852129,-40.0273516597703,799.527281920964,118.98801990894,1730.93166479257,-156.683663230456,2164.89142887004,-121.962862248368,840.906431533219,-18.0718432381924,143.260707358178,81.1766534663714,509.446768615673,-78.0934869758525,313.909772354046,-7.37725043983294,341.04249082586,46.5733258461075,1361.63162236905,-5.72018768487509,1738.03376239876,-268.801620585526
29.1671410879968,25.6917395935917,63.2099803171803,9.0831523597147,28.165231881142,7.06324231022267,104.582458181111,14.0352615600807,425.664671409834,-35.6998910530659,802.865145453818,121.427447094464,1777.20813840035,-164.328894996329,2230.4076296757,-137.554780790874,856.746091195349,-17.1171012455199,169.14664358628,73.8251527026779,505.870541102284,-69.2843719714648,320.564284537474,-7.45036017723633,339.513435799814,51.0707662025594,1374.89923572459,-3.13834708423459,1755.56143183876,-277.284866244426
34.8245569054175,18.2427018541446,72.3834999644011,1.78887686444124,24.4709718694297,5.47588211730093,98.8200155292297,14.8340768568534,413.862781019542,-33.2038030243689,789.993706617976,121.256753558839,1723.98505769306,-150.208046717047,2157.38488858756,-122.262334178276,843.236983674686,-17.3962228135161,145.822458517705,82.5485917726501,499.284493045535,-76.2189956282184,308.578120188311,-5.439641017351,324.79244139981,55.0364104883263,1360.8564499454,-0.0686072612968982,1743.77210094972,-282.957089007324
32.1838249144151,20.9957573354725,64.9946960353489,7.3316127160207,20.9645175322354,8.96748348909931,95.9680580555706,14.1329577643813,420.866849175124,-34.074599103086,797.338317897065,118.961871283948,1732.91542053171,-157.471499563363,2191.66744607511,-127.512309655986,844.931329124707,-25.6524741774461,145.569297761541,83.3433856573433,509.245141731861,-75.412709502573,314.206073302608,-6.62562391554134,337.01050793848,47.5871101873133,1351.88842470015,6.95530789143837,1760.50847445981,-280.182678262669
24.81545579273,25.1838775877336,72.9270644662457,3.80507175953109,22.8993236193564,3.16964130349392,101.422818402138,11.566720843238,426.888071577802,-39.465965818954,819.718790069347,114.31835988297,1776.18109439141,-168.631771726239,2216.51765731898,-136.471666636362,852.516597316847,-19.6628408581108,159.783940033813,83.5156303943426,509.989741533427,-70.8651848579274,321.99142280834,-8.16950519611753,341.441366402119,54.6731935754701,1385.75798745126,2.15412257331335,1792.50368802477,-293.680532895319
24.2751111414976,27.8748075049706,74.9579969289838,4.09594136376222,12.0982187407951,6.95946070198331,92.7391648273738,16.1164629750023,420.01498924182,-38.5546227851293,787.621810276422,117.603314866016,1721.50715063034,-146.425085361935,2163.44705179125,-134.983088111379,837.632725853232,-16.8986281698717,151.522801734909,75.437151766947,500.276754120175,-73.7808253272974,312.518853957174,-7.18578065691901,337.766548257607,48.7299760814112,1340.31627457661,9.57622902350976,1748.54744934652,-282.798629006545
27.6726120262429,25.9710798316757,71.3045192106338,0.540465368947809,21.9175235902131,5.62156791117681,102.817342517162,7.41808783171197,421.950204478593,-38.9712287271454,777.015367894556,126.370715927727,1711.39000298539,-143.386144695873,2185.49900470688,-127.084006454431,845.636342852253,-17.9456950069727,155.090082512911,74.3477750796369,494.754726813754,-72.5843680165041,311.843629228775,-6.3004915664391,335.357132565597,48.4928023212059,1364.8409486831,1.40255148007576,1770.45550398829,-289.904836796884
33.4157232912963,22.1301790915283,60.6264177324932,10.4190412115553,16.7462606118174,10.4240055870496,99.0940593548345,14.7459937598322,414.134528901069,-29.7020244294496,798.594318668436,120.515186755627,1758.9551063299,-159.737875227805,2187.92736028046,-118.036415600243,855.493596260983,-20.960367140898,163.978990312836,76.6813371852966,520.885395495773,-80.1526969848504,320.28046397537,-7.61488992178429,343.357732115196,46.4392108868648,1384.0602247753,9.40980151627538,1776.26031460972,-284.564062663403
28.9942682872322,23.9397183744977,63.5195212140727,9.14871592724026,24.6894448677758,5.99408697764153,95.0721485666805,18.4993001512062,419.631886105232,-37.7613588147314,779.192916210583,125.650200626672,1726.77029856379,-150.243098686806,2171.47647218849,-127.939129296021,836.628928774099,-16.634379980651,147.150769819568,71.4522649012456,496.793177247629,-65.1033213645506,310.096482546216,-5.12350897845126,329.692768445503,51.8280322106998,1354.92178855196,3.05293684097093,1752.09909994942,-286.328558326204
32.5956665477968,22.2613915515576,63.5566163945363,12.3951692965491,23.9849310589217,5.27378345227794,108.025683016565,10.2307145717537,429.173800099119,-43.8001693913548,781.569647617861,118.750915395454,1733.1654780949,-156.957034729781,2166.9977618333,-132.670798658275,836.340282201544,-14.9891264386712,152.022948904686,73.6335150545508,504.568718664834,-72.4637062204569,313.102575690222,-6.93272014651926,343.36157484674,44.5506748149424,1371.89386822496,-1.91622860001958,1755.91265932702,-282.771443626932
36.6554839496742,20.3223289835838,60.2453273092405,9.36876896523891,26.9799511046048,0.788217924444058,107.558020898573,12.2781403096247,416.524869924428,-28.5346976408397,803.887786519101,112.897458212338,1762.71748133167,-156.698664079658,2192.49471261021,-123.080739894769,859.251114682855,-22.3808619396867,167.935305485109,73.2732849955668,507.270926270908,-75.0959067333451,319.252713176806,-7.14213129595289,342.895642014607,48.8630844050464,1376.79684946259,8.39300730176335,1765.5775024723,-274.918229112185
30.9358649757923,22.6463176924273,63.405156979707,9.15919883026925,23.229680741231,7.51057954785458,96.3844536830741,13.4485501027232,417.047002276191,-38.3554138199194,798.724747448019,113.722128001669,1719.92864838926,-156.606949657641,2160.35049278052,-120.074321154847,841.315251063706,-12.6940786783319,155.716783904171,70.8562557175236,501.937507522462,-72.8947770856757,312.404482582858,-7.4469447505195,331.789533844048,53.5496711126634,1367.95362506734,8.80618273266579,1747.39906800697,-279.884614317469
21.7182197914924,27.5523892247127,71.6328443567717,3.62463588673677,23.8937027540731,4.38600572409068,100.301742160725,10.9488222276588,421.081553666369,-35.4085611247214,791.893965366884,115.313025560619,1721.45121734543,-144.767944691731,2154.67139029789,-120.527690574736,843.554315225358,-21.587168289463,156.838873327462,79.3450158595464,497.79410843891,-69.4918190447309,314.74844840628,-7.13151228974964,339.407066681424,50.4198072160181,1376.44428207308,-0.0821944229536381,1769.64136037813,-282.35482509151
31.6524210842655,26.7814623430312,61.9852673501391,10.2419682150983,28.3155313028552,2.23875267421432,105.666433243085,10.9515609991124,437.763073009134,-44.7107211560145,814.122051594483,109.270335126594,1771.1405502858,-167.866810488645,2209.1159486672,-124.16566807883,860.35376851374,-17.9144830404123,158.101016553159,78.6627286165276,511.059861696437,-75.3182307347527,319.488819588716,-7.0736034949349,351.64487705902,48.0716206405409,1398.26423973748,-8.70748296246705,1799.03089551342,-301.8828577868
33.0321241612501,21.7601863093643,60.9333185015626,6.24756367967129,12.8191055958092,8.0211568334482,96.4146600978951,15.702666411836,409.477408420597,-32.4740816216115,772.315774274971,125.657916439125,1730.29187246102,-150.350292754941,2161.65789957994,-121.630376234897,841.851547669283,-16.756919389038,152.956633927812,74.966102034698,498.907763238023,-72.3178136931023,312.074414931228,-5.80296590878255,330.686259131587,51.5838026403766,1356.1994310396,12.0866176302389,1750.07052858118,-274.042521424924
