274.187498620684,13.9298704488424,518.770442851805,44.9718315150319,37.7792243862577,-3.3680781253149,1201.19643750095,-128.032931553436,602.550811246568,-35.7253414541214,57.2787071683586,-3.79745635912192,302.859433049906,-29.086113272046,948.109175444927,-147.380631494297,607.880769953099,-112.181253443728,848.724995863223,55.9034233574663,260.196320169234,-41.8939230326583,719.08382793999,-181.524744874425,1595.42120743366,37.5126503431321,1907.41249759712,-205.117236081618,371.193476413151,10.7819380745753
279.760465721292,10.1757351560212,525.274407081748,37.7341675915534,44.5205123796197,-10.86354030452,1234.29490724611,-141.658891051548,613.36775994227,-40.9187049223011,58.4051785286564,-8.38305747463651,305.645633466741,-29.9495040856863,961.240463362599,-151.129601267584,611.425868928046,-110.763044653217,845.796142916456,62.1637707591841,263.484735028006,-45.2908921739394,728.118854005441,-189.483653570343,1595.00096167982,43.7774925941775,1912.6354988897,-201.137611071547,374.129538531446,9.23367768357255
262.808372846436,21.0259385920489,518.756911451013,39.6341696277507,48.6979352772562,-10.0550293918405,1194.75975801573,-123.615768998761,599.295470788258,-33.8010680956768,58.3168157522118,-6.51894108960396,301.195969719172,-28.6522638244252,942.134695182298,-146.921824075708,610.429734855686,-117.27655722148,836.65340505899,48.2971467378163,260.677085472242,-46.6330547947596,712.563026872708,-179.303814501124,1583.29145013952,34.9319165585832,1889.70511345324,-202.216432362433,367.595675739667,10.5659209674929
280.559240078656,6.95468868056189,513.884237123791,47.693412955381,39.7110716841295,-3.94862564522189,1201.27912533228,-122.444229806767,600.839600127755,-35.3366123446905,57.9415364145942,-12.2152063398586,301.522300214773,-30.045188214034,949.750669070048,-151.146950293922,611.057299097418,-115.849040622853,834.495658364692,60.8681045836879,255.858997226856,-40.2855693357148,719.032803551014,-181.838042283907,1575.3495912868,49.7620161668968,1858.05259427723,-179.524113893309,370.154171478327,10.3907543468096
271.560540571645,21.2088177357123,520.225848000344,42.402484642803,41.7044215636586,-4.32496269140488,1204.1813496212,-128.167887904452,606.416128114506,-38.4858472616602,54.6804688454232,-4.92499060209014,304.549963168459,-29.1243605841014,957.828461360059,-150.00669925285,605.62041448933,-113.23624134655,851.833605832448,62.7997540322262,261.34368123813,-45.1533276212762,720.493781726707,-180.265778119205,1605.95312397788,35.3599985676586,1887.49067056121,-202.330908411331,376.162329867784,9.18413327613055
268.287542623172,17.4394039522343,517.082607410535,41.6428530045878,35.398947457141,-5.46297037523018,1206.58076804267,-128.984705135137,602.296995825598,-36.4548782637621,59.1035413148121,-11.7204020716386,301.86403001895,-29.0399224573771,948.514974509713,-149.709885518356,605.948757775232,-112.573753923976,838.621342116889,59.0445274520718,254.582157950912,-41.235806179724,716.543344415977,-179.569346725616,1565.44399280089,36.1950720972111,1870.12551286792,-200.270708980494,368.822280433334,9.60725540453654
268.808874460569,16.3100721559632,518.809807069498,35.0115950403725,42.0408576715716,-6.09240607394423,1193.51740785024,-127.185015368384,595.602162988896,-34.4680441985535,61.4078759901954,-11.4693940010701,298.007744836865,-27.3353386295429,941.952565584783,-148.682786513208,594.163164947861,-110.302369941248,818.380210016005,71.9859246923325,252.084836257662,-39.360896561182,707.7542070164,-177.968100584509,1553.15073220794,49.7309997352205,1845.32431455893,-183.413339865255,369.690052608638,9.82083843303387
269.11870456166,18.155274242957,510.146462969502,44.543661062348,33.8702837667514,-2.34632982746207,1196.38016522102,-128.599746224335,600.27353484325,-36.1498224602395,58.1403885691572,-6.22052165206287,302.046925527934,-29.5027110341604,952.66914592048,-152.399796319607,600.724576646108,-108.799399247837,852.286185504635,52.576713201639,249.494037002897,-37.8194468028197,710.070005492386,-178.762040936342,1584.23389349605,48.2024083825672,1871.21703675553,-184.116950536045,374.659036368143,8.94943213157134
284.608260112426,10.2061092604572,538.518862121588,23.6004374173829,37.3399527803454,-2.54240262005578,1214.62037103725,-132.279269394876,606.798115130763,-38.7187792352538,61.3583733276026,-10.4485260332515,306.674506174523,-30.2312605296569,964.245424607623,-153.509479885737,617.124905204328,-111.16769527174,864.12701822597,55.9312050305275,256.868916817934,-42.5992873746431,727.527328415551,-181.852979997254,1623.55057676288,37.3277691223325,1923.49344216947,-204.054960823823,378.881484725835,8.68036764557596
271.082015665416,15.4119576918507,520.353870064737,37.125153079778,35.7891134261896,0.0824523176978774,1205.99150028176,-134.135405455537,596.462064185547,-34.749481081028,61.1190574282291,-9.22488878907571,301.529482326676,-30.0732035596226,946.192648458916,-149.031591158056,616.152697184771,-118.523912977471,827.139426034976,57.9666986047607,250.638514084751,-43.585323368111,711.097588725332,-173.67404496853,1557.61378671854,43.9007939262322,1876.22719385962,-196.617292719598,371.659240674275,8.91036305716725
270.319877066919,5.27316411831722,515.489552743981,37.848674282102,45.2786322508014,-5.63828380955872,1185.44306484057,-115.426596383393,594.507651995373,-35.2001639485114,55.1790661854931,-6.95524774868553,299.669978755628,-28.6612993439257,946.076946387693,-148.930154377454,599.834641290504,-107.242541874443,845.310925228963,50.5813616773756,250.434937711471,-40.2036868693448,717.193553819657,-175.873163904728,1596.34738131673,33.1882624970733,1886.58876934088,-189.213455034117,373.73359290986,9.54051961747551
280.383897275253,12.5455538981175,528.727777542043,33.6922242386531,41.262273361116,-3.32954775746362,1217.12336704045,-145.805860989115,600.331910041514,-37.5786901562371,57.2083967119317,-5.06746908268076,302.089225915879,-28.9098426600565,956.275222402059,-151.495475731456,613.483327054522,-116.213728857606,860.800234527372,48.0411553484561,252.2204816318,-41.073391266568,708.974707558258,-173.930595996976,1602.78648749757,40.5540545090441,1907.96367254719,-192.426907646759,379.320884057451,7.63218030453192
270.853801144393,17.655318319507,523.937846122092,41.500004773582,40.4593746474768,-0.812855768160211,1207.12368001406,-122.93663520423,600.666468716669,-37.4433097825663,52.6269026459024,-6.86702412112864,301.985796718428,-29.2739415399166,953.581973001164,-152.007590479258,613.632246532342,-116.869185286706,827.704179088732,65.0092234833376,256.960350646605,-47.0959000935182,715.847741702992,-180.569125244904,1565.54853784259,41.4138286252272,1885.99454464641,-206.850166200651,373.055993976282,8.47148715182045
268.44351985752,16.5371238837069,494.593865417843,45.9862648931641,35.0815526619426,-1.47462849511845,1181.9308790588,-120.230470796158,593.267889357208,-35.2043828691834,61.1395894728493,-11.19248745793,299.022923740137,-28.8106646229974,945.421840451118,-148.053066318292,601.694619072638,-111.245848019394,825.668808283918,60.4245442293434,245.669869139327,-40.3043625307135,709.84368350253,-178.407395783402,1556.74552909573,43.2776873985282,1877.80211379985,-197.749650305457,374.088695748203,8.03920598890383
276.194147166247,13.6281791211578,505.238939510394,47.8939862970783,49.2143088987373,-8.67771745609018,1191.10925551082,-126.310160000706,595.47117208685,-35.5414417204099,60.9051592555113,-12.6577588986622,300.396194219766,-29.3142769082317,956.521164204042,-151.938259267795,600.245610703592,-108.926253037167,840.515000257031,53.2529026005481,248.17744699049,-37.44403861722,725.060983609523,-180.773843868904,1591.7298390308,37.0732980792401,1881.91056459887,-198.34571817805,377.080936222055,8.39241694851884
270.766698274498,20.4572583538303,516.715977667168,45.8260755615483,40.9410919132124,-4.11361163476762,1193.45553700252,-118.825567018353,604.82871352689,-37.8634139959082,56.7103873754389,-8.04036148618844,303.07457253742,-28.6636415224671,964.674596089391,-152.705157778793,621.145012595035,-118.825093926696,850.565891035709,53.2364029206781,251.069338156436,-37.1665272855548,715.79940744041,-179.154409515598,1573.24282677516,43.8515247183557,1880.97615153077,-200.472253016149,374.746949305953,8.48398810426832
275.229361022819,15.1251077178999,502.793900691402,43.6108646653918,47.8255192657011,-8.79951572265822,1169.45252280839,-120.115770724916,589.882650330028,-34.3089712847188,55.8123405474989,-8.20188276637672,294.056440165265,-27.9666770816938,940.230093833229,-147.739115144252,615.204501817792,-120.030163874679,798.985802593342,65.3206890578909,246.502837510487,-37.4920799534029,705.090441808239,-176.062710803492,1523.91318103572,52.316240662778,1846.81281135304,-188.631483578924,368.764385288227,9.78062142386769
273.440146336099,12.8557207872602,512.146326088771,37.230313500579,47.7039125552973,-10.3229691714922,1164.1769442483,-120.879050719456,590.732074375836,-36.1972285356487,54.9851837299702,-7.67457813972549,297.643956618768,-30.114044173204,940.637976826152,-146.923371167797,606.923714738986,-114.235747152836,819.325071211659,62.2381255209906,249.974534923031,-42.9098562634847,704.303351058097,-175.734193337264,1535.69229054911,58.4089970841201,1850.23249205647,-188.363666666605,371.172158928806,10.0639212146918
282.914136108337,6.73651429953503,517.656261820203,40.1851896870927,47.4292674125072,-9.42099027194904,1179.57828633916,-119.593024314105,597.414226810606,-36.6033306657958,63.417621288237,-12.671874123177,300.801931580826,-30.2970970144184,951.842280118763,-151.038293386686,609.932875574637,-113.091571787318,825.762002286567,60.9760043046827,253.635591214938,-46.2051047510689,712.242562162408,-179.236907580582,1586.52920228162,36.3516003952921,1873.82049048663,-189.455187130046,376.488076416256,8.9796304687125
266.497476972042,18.4507740439405,506.361516725443,44.3782000895701,31.7354871974967,1.1065263471419,1174.15446718727,-129.132272689787,587.428241033102,-31.4586389764932,56.3576862736558,-8.71133955230294,293.881585794202,-28.0560924059846,938.389638793992,-146.123136830433,618.417844957442,-120.503620520141,813.735668899318,56.0838569941324,258.71225727532,-43.9899760418741,709.620799494096,-179.818637651284,1525.80301249173,54.4580217326099,1871.54370306484,-203.706359294126,367.404061756433,9.91353125240159
273.97334296244,16.1521195612724,496.712352694939,45.3139837313019,41.7617412956341,-4.87534595072787,1140.79415479742,-109.002688988986,581.942564859552,-31.9067078200326,68.0105624487826,-15.5162179012508,289.242563455473,-26.0364089459019,934.015463537162,-145.073237439742,592.701931035621,-107.159311246448,790.345899336036,57.713651707376,244.139819911643,-38.5683930555661,712.37668667407,-182.670919537938,1526.61234645611,57.4478009487094,1861.03419196881,-188.593336364451,367.141922937902,11.0690188541053
276.605114136008,12.7924605707209,486.004468202744,49.5705418119235,28.6315062800475,2.52749690816423,1160.0352389568,-120.928118496508,585.272893356757,-33.3927129479176,61.320489445333,-8.7808502821302,291.242424499599,-26.8520544908727,938.687437290501,-145.779500247526,604.090373378498,-115.881842233217,813.240059775447,61.7656233108498,247.532257398145,-39.7311738504324,701.904811603503,-173.229817771128,1562.03565326635,43.1146656272534,1890.96868262976,-196.344416836158,371.327256323693,10.1782440947586
263.322045211008,23.1861666090875,511.697331340177,41.8081144752697,53.0911504792147,-13.6505685083945,1164.36359000643,-109.886082879431,594.917876583337,-35.8719926417842,54.3940780789825,-8.8842367810933,294.074611206292,-26.5260616834306,955.186134465281,-152.509005370213,611.131583599212,-114.775237623278,822.000379077758,65.1692989804666,255.823624426048,-45.6759632851029,718.664818797512,-179.197878930433,1593.85391247846,34.3671385025943,1910.60764981385,-206.702136615218,372.886679387664,10.2394286749104
265.35034951973,16.8355297727665,497.059596210267,49.9503314759445,35.4086379011956,-2.25514270276985,1148.98024767917,-116.560260227647,583.207410713889,-31.8414087548177,62.2462602213776,-13.0129580182453,291.10529706796,-27.0485763583495,934.69878878245,-143.493688863804,614.746939951236,-118.541745851812,790.505808742986,67.3709410835697,246.788916436758,-36.9013092829082,716.956812894205,-178.491179958062,1521.80118419247,52.1523421664564,1879.63770700398,-198.857896748121,367.477325648597,11.4418564141481
267.688828186767,15.5384817507409,492.559597346837,52.2344807805248,40.3413403994845,-2.36906321358372,1146.19929163256,-118.239649395696,585.304315947724,-32.8940950380436,63.8079604943289,-11.6418182921209,289.518535618235,-26.6552615959837,936.990712717745,-144.432127276931,606.058157758799,-114.956731970743,792.863555655298,68.1788492594517,247.184001720589,-39.095363028844,722.086184304618,-182.090514351345,1529.69081401813,51.3497060937606,1864.16756989115,-187.485745537358,369.253185733045,11.5122827258024
272.017311151556,12.3162908784644,510.680301529911,40.9987197242444,35.6197766031062,0.06631405644214,1153.29971209852,-110.179021517954,592.288457911663,-36.3791650929343,54.476247081483,-4.83366038079206,292.69175329283,-26.5345417876006,953.966615366229,-150.845716140508,616.374936328636,-115.613358129667,804.835068077044,64.8492254226121,251.314224982869,-43.572927297876,731.773813881931,-186.014472384105,1559.53590307212,46.4167379581205,1922.6372630984,-213.784066509808,374.397834364894,11.0841690800728
263.597590425294,17.3823246115744,516.362431694199,41.6135790631207,37.8622006201492,-3.87808955767035,1136.99013239665,-115.752600894438,591.609560021851,-34.1971493008229,64.3652998274861,-10.4725915513742,289.99599219311,-25.9022179299492,936.890143170329,-144.167803566959,607.412805495977,-113.692834511753,775.087156356361,74.715353144385,250.039541692538,-43.145374748536,716.551618748669,-178.598797028411,1503.91312128305,59.3017550121172,1873.24848786141,-194.127137539819,365.935622599053,11.7912233343121
263.799474687007,14.6492919955104,490.980323032978,52.8990395139685,41.4557049266458,-6.5440385387592,1136.4329641112,-103.746128460098,584.885403540617,-33.0331656380683,63.8767700362298,-7.39973866804373,284.703861400739,-24.2590231742815,932.251233899655,-144.705268103025,612.337052991437,-120.798711433844,769.278925486244,69.1576612137687,247.682472207379,-37.229635278659,710.18736844519,-172.901848608134,1509.25391848557,57.4945776546749,1870.47575349116,-191.921515148384,367.122813211949,12.0357510288795
266.62323375479,15.0273701111483,497.010265997529,43.2347356005014,39.7798517457529,-4.91978435212824,1150.73627220233,-119.982043106476,590.452701282579,-34.8212054590871,56.4360579196444,-5.43491433920224,288.709869149098,-25.5901006898877,946.362853455609,-149.616498851753,599.756624903715,-106.532356799348,787.555695478954,66.0636708994157,243.615239840615,-36.8728134357421,717.358494043448,-185.792102928766,1523.72877458436,58.6278411263697,1901.23266073615,-200.746128296917,371.061701356394,11.7293584457579
269.625224360011,16.3468378865836,510.644820396532,41.3778827791713,37.4615537121117,-4.53589020791314,1163.81162903176,-119.250827578539,597.379822389138,-35.2797295804117,55.854899620301,-5.79382811533451,292.65474169127,-26.3823225407995,955.086729277803,-148.747342843342,609.529359784332,-112.62105860201,815.515381433092,58.6307438488314,258.934486247952,-45.224668610525,722.337588207453,-178.358776195613,1537.06454256076,55.248132281138,1899.86890581667,-200.560914850503,369.317256803723,11.2846384673597
271.46268576053,9.38073333788968,489.807674336648,48.335395675472,44.1390238119017,-7.53123194467465,1129.56011159052,-107.973260120663,586.171317130064,-33.2428195198546,52.8843845413954,-4.98488158159407,283.426063244535,-24.5481835200118,932.669985010005,-145.15351499576,599.783089280928,-107.186339681024,773.270211118282,63.8504667778171,247.670724457051,-36.0700485940551,712.784960044693,-172.977489059865,1484.68007015475,65.6463618905909,1863.29839108014,-195.136225199468,363.535570600476,12.7722371881948
269.86636844397,16.1231164668848,503.102395329184,43.48370753858,41.3756884609727,-6.13476756508119,1116.59786484236,-101.627114859188,585.220904676789,-33.0806526945052,57.180277642733,-6.88375974570488,284.99597772848,-24.4137566502247,935.143141731103,-144.71630197253,601.333213910952,-110.129423964806,766.167048191586,77.7404798649931,258.797342568974,-47.0853983430006,707.388178176309,-176.989752038371,1505.30542329789,58.4891322648691,1891.87511731297,-206.683566392948,367.084584494324,12.8872792122678
276.293920466847,14.3201598450536,493.504118673972,48.5668111508453,42.8042754700324,-1.76763305781381,1132.46120654176,-106.505527929594,585.929374629296,-31.6796672843606,61.3319817939189,-9.59995001088662,287.023810579304,-24.4808468412649,944.821881350974,-147.075788640884,607.954740220691,-114.360119515672,797.960611119475,62.0393236422256,254.107790142536,-42.2605272092638,734.423940686111,-186.542414399086,1533.60332970213,53.4112627121422,1908.24507091968,-199.292405216094,371.948401301425,11.6818949413504
282.854015291792,8.96011855908719,507.701141569842,36.988521690242,25.7608011768321,3.16275679353185,1122.1591391132,-100.171119345827,585.845698913044,-33.6666952132414,58.9293985364945,-8.6685299208494,284.288208717209,-24.8889904022315,937.633675115701,-145.082697223481,616.706173553064,-122.256627538177,753.038520074614,73.4349135833792,247.32897179164,-40.1922686671765,725.344215597595,-179.712391612078,1502.92590909444,60.9278505189443,1879.38536694437,-193.444834784636,364.478753230562,12.5816877848101
266.804693171093,20.3375714427368,500.470530153978,41.2515345123226,46.1978732908556,-11.0022704318793,1109.39217413206,-101.268328286135,582.633600447533,-33.6666259567397,62.1123545070159,-11.3495549559969,281.207776933604,-23.8630084990031,930.340255968144,-144.704656246373,601.977058482749,-112.345926003004,753.035961324993,73.3880013013738,239.227303218802,-37.1095689250395,711.943063060477,-173.560486126087,1493.60914469385,60.4972924465527,1891.94938856306,-197.879391738958,365.157267423378,12.7658286282186
267.181233666102,12.9448969461392,508.614276559425,36.2345754443982,48.1889662159091,-11.0220435693625,1131.78485486378,-115.430983760035,581.284536833026,-31.0069079909292,56.4628924540232,-7.12343869107318,283.183432955813,-23.8174153624906,934.434584384525,-141.698018012419,609.787683461964,-111.994819120462,769.588323148909,66.0588439393783,236.495409898985,-35.9834731372315,725.440732208905,-179.752939018495,1503.42308974973,66.711963650155,1929.11939676217,-210.115224578454,369.373322901539,12.8097384464254
275.222130175324,10.090967757554,495.457721436397,44.0517161613549,35.763640671346,0.703349683088986,1127.81736454122,-103.128901251155,587.401889157791,-33.7987237358281,58.4112600718237,-4.98818038646902,285.691035603201,-23.42635225442,946.498797070049,-147.039940221356,608.652127339711,-110.811131645532,777.117497781288,66.1626796125079,242.25968108939,-37.272692752589,721.532181764609,-183.439733511803,1499.26610648282,68.9431930495362,1902.60449909797,-200.58983402325,366.875306365105,13.0969195131913
259.777756947341,17.0147389151516,488.887361901612,48.8504129799705,49.2571757101861,-7.72300135200898,1115.12155935896,-104.862635958822,576.790830083957,-30.4392211717757,58.2824080735067,-6.56449384546904,279.058082867263,-22.8178144604762,926.740907204925,-142.798185898814,613.609708008739,-120.666997845771,761.264956061841,69.5000304572273,254.067147927387,-44.3913311792168,716.569053437127,-178.430882439797,1506.16073526715,46.5739571338039,1897.19323479906,-199.827047835184,364.247623051763,13.3362009745624
272.113056841603,11.8667779272003,485.886602125058,42.9188845496944,42.1688979769301,-7.05946104184785,1123.82301036268,-111.705711447728,577.388508109426,-31.5834890899458,59.2368825912375,-7.80344298347621,280.956134972522,-23.4119878015766,930.866202766249,-142.616494738582,610.469938861037,-113.19341354163,742.061341625195,79.3832348146088,244.722562397184,-36.1799864902434,726.215600641009,-185.12616325689,1504.13862211137,55.237156094514,1893.12032776263,-197.912482985963,367.552140164184,13.1322404949304
258.606127333719,22.7362808790581,497.261144173962,47.0112145637974,44.1917903673854,-4.55365464571555,1124.9623228375,-100.898311164123,585.094137941458,-33.1522194731233,58.0106400758767,-8.04432650896412,285.380441313612,-25.001898677083,945.541682806891,-147.106822915554,609.962153153149,-116.42099382196,757.746295878345,82.7828355298247,251.485456850412,-40.6135946421721,716.749712313166,-179.847179455969,1536.97203461605,54.583291129744,1922.31167978081,-206.248160924914,373.309785141152,11.5944303080453
270.045598153772,11.6598116099724,479.527199011607,54.1677067327454,45.3187302292759,-9.88967130336924,1100.26941920947,-95.2568866061834,574.09353614699,-30.4271361848936,62.9587940481088,-13.7542522194605,278.065367195797,-22.745823144956,928.922875619045,-145.161289174407,596.103991513539,-107.301235115603,740.831107563743,67.3935394255396,251.266943210216,-40.7534585432595,721.934837009498,-182.325290532644,1467.81741041262,62.8228652236623,1883.81779086258,-196.176537472204,362.778656109389,13.698340239512
256.538666153142,19.9162650403529,484.626037551749,46.5644456186313,46.3616716004569,-6.77651788000193,1098.18665463302,-98.6550133222347,573.384203002168,-31.2847140876693,54.9581353516183,-9.66299312470071,275.768479036259,-22.5697496685992,925.705082753087,-142.142697104663,603.834941253323,-112.664182527531,727.189202218382,76.8530810396438,239.120520587563,-36.2307596012147,715.422896828299,-180.84784132235,1482.91811790085,59.9942196235926,1871.99596259879,-201.518273322151,364.674962699338,13.2382511850962
261.577511456233,19.1362110841739,483.745472077925,48.0304479567975,34.6922710102381,-3.56408112103341,1113.70177147268,-109.644423792246,577.936328930106,-30.6618592843125,58.9845228637542,-9.6518519345245,279.581181281786,-23.7316970811386,934.479629811175,-143.144424508476,602.031152391564,-112.816595266318,757.539878560107,65.4243840367101,250.935533430004,-40.9781506155493,731.249233757644,-188.165187176364,1484.44535448956,72.9511338392901,1889.34552806632,-200.091567828557,369.764754172013,12.8527285461541
267.758578343375,14.4726594455634,475.646659565762,54.8747054330186,46.021271388082,-5.58391091071835,1113.38112237141,-105.329803089019,574.774641988608,-28.8974511995212,58.0792490596776,-10.7026073439051,276.475513688668,-21.7658054731173,931.331734265869,-144.003575679026,599.380617938984,-107.478699015812,722.061295627535,80.1934418155529,248.026369511207,-36.8413887789658,717.081807949501,-182.620438777419,1453.38501267404,72.6440104342203,1872.08302355154,-199.068903929627,363.87936449726,12.5745495723702
262.030534075382,19.0876768752339,472.642419682434,47.940907965808,32.9345321217736,0.535379877128811,1083.88825667524,-87.5194351511936,568.595703641455,-30.0285145749196,62.5683329087471,-8.73016170463695,273.556301983127,-21.8049141288295,915.087537666084,-139.787643670407,602.399351530512,-116.844344082272,720.618929517614,79.1546512767988,241.76823450358,-41.9091077278215,700.829429855938,-174.873195063052,1438.41380675849,73.958949372448,1858.96562741303,-192.021232337829,362.064926343801,13.7549387917338
260.590743657159,20.6089731927207,483.044776731244,44.5018591126823,42.3509953230751,-5.63848685501382,1100.04854746718,-104.614855746654,569.955891671525,-29.1983543395762,57.7669963471949,-7.38673779773256,276.809388087774,-22.6330525651176,923.42880445593,-140.69608747438,590.845742049228,-103.973040965878,729.788635829573,81.3709861194698,244.417932110473,-38.9286489665642,710.234726984691,-171.672306185513,1476.01830467145,69.5683167297897,1884.18353019966,-198.127913729414,365.434209163355,13.6405396111275
270.253749404392,12.2344397656687,483.443210603499,49.041499816137,34.1183858468104,-4.20577319635375,1113.37388784109,-102.801481026491,575.636990148342,-30.6573805154274,56.5472288711737,-5.53887811298304,278.079389494256,-22.3083699052765,937.657138853106,-145.462243847843,612.978256808891,-113.939576735224,740.194512194104,78.4714146198472,244.454083141748,-36.0686593044949,720.920192586018,-183.24402202449,1490.65744349589,67.7578317901193,1895.99238680494,-188.225573165868,369.02943541552,12.1854092827033
259.706703528977,19.5932271995211,469.368470856327,53.2509261525999,43.7621629265736,-6.6302757506436,1094.10497198179,-102.321778097219,564.70790947228,-27.0101111882437,63.4808768990496,-12.6105906285295,270.400148439797,-20.0056852928364,917.202363608685,-140.605102972265,596.21700223136,-107.458168557629,718.170456560817,77.3092460772965,234.94764777508,-33.7455064255034,703.093577195216,-176.527218394058,1475.89324655592,54.7628156518319,1865.54698908583,-188.245111929757,362.475309713365,13.4292613614988
262.3376431181,14.3221456567981,463.20259709684,53.2381566272195,41.3394182519081,-5.7869887715131,1083.71556639203,-89.488733976149,566.356338945182,-27.6383709980299,63.0240396962624,-11.8593833358614,271.403391388544,-20.3525493923204,921.107822417527,-141.574366254577,594.890979730769,-108.658319482749,711.826631369203,83.7600025058949,239.974303082582,-39.4966170231669,705.564698847415,-177.658721850179,1463.47125085347,76.2687127877982,1889.25349357181,-194.600647078943,364.174736276158,13.7372861822073
254.918151732939,23.004499166371,465.514956871505,60.6622398169026,43.7550198509148,-5.43934662572338,1106.22158099796,-100.14959621383,568.460552446819,-28.2557319066913,53.7552649190408,-2.09119940768402,275.220600051024,-22.1337639032981,934.124110797567,-145.46981952754,596.181558720655,-112.030687129136,730.58566596308,86.0983501267563,234.194508918134,-31.545779766223,707.483792441055,-171.903644822286,1490.8836746727,60.7295551766117,1904.86655620592,-201.940360865076,368.822845838607,12.8206587897949
259.408204569863,15.6918635565596,481.159246844216,48.8318695801174,48.6799060192319,-9.84815371990505,1102.00002512882,-103.273713061369,566.800184865351,-28.2220587957085,63.9277203800582,-14.2574770030214,269.923753485294,-19.9563438526673,922.197668194938,-141.84510464352,612.044500449182,-117.528437832245,691.965128787805,90.5032877637746,245.68005309528,-45.0759687365094,700.984762480005,-175.48574097695,1428.32781125838,82.2885829919963,1850.14547744736,-182.993922843059,361.106257833908,13.9410693887298
260.112825213259,18.8273800800289,469.112554792861,57.2245073437169,38.5735328177568,-3.79743156353665,1095.07738131462,-98.2056458413981,563.516086669928,-26.0451112707368,58.4895760471393,-10.9068388359949,268.118754677468,-18.5687571216299,918.194240109482,-140.018934483041,597.23908950622,-112.070333508394,709.497816109623,84.8679862884356,243.031217879892,-41.0476315321528,702.646094676733,-175.115634382773,1435.53217074587,75.2518982656486,1862.3376336691,-192.858994351097,363.885060378216,13.130647321392
274.68563440479,12.4113764305719,478.236244386945,50.1015434914799,35.0258432753134,-2.74238562395284,1103.88615296008,-99.105599518805,567.859562406387,-27.3751281257463,49.8893240408448,-5.9807225480103,271.594341881296,-20.0285194886409,930.045307720235,-141.405670231631,599.869173515182,-113.664386194931,724.12404479808,88.7098194872747,242.188447836864,-38.6451606075538,703.211055073251,-170.38176093225,1467.66362225931,63.2290777374047,1900.75381152632,-205.304913342812,367.917001206441,12.9267624569652
265.538634512958,15.5379723241973,483.103741520693,50.2047940344735,29.9377668233554,1.38013712290295,1098.38273867115,-96.8753856198262,572.288796952886,-28.2840899901644,59.1570976995253,-10.7813576778979,273.829305234181,-21.227800245544,927.735731137008,-140.904722685731,604.657734300841,-112.301868175112,719.769907906614,77.9816563615856,244.492585092972,-36.995905404029,703.971061686132,-174.001084637397,1436.04878867857,82.0232444396557,1855.3936757256,-189.656798338309,362.225675401882,13.2004392420345
268.626456570009,16.4546312288539,480.984081794542,44.8663068707388,34.9667865937116,-2.28636343423744,1070.13793177748,-88.7203821207891,564.20054052353,-25.9967568720485,53.5132976477429,-5.75038070211015,269.942359119049,-21.125655903438,919.053137664904,-141.172156394358,611.393568281045,-114.933038046558,691.259734909173,93.1281012707217,239.296689453666,-40.9218089306465,716.541326064807,-180.005135569019,1423.13657439442,81.292043649814,1840.09947529274,-194.010581324568,360.620523108212,13.4902200098138
275.558861175035,7.24211629163888,459.161653502645,64.3435234473626,33.0075809149611,0.256429413802377,1081.92417880067,-91.0381493371643,570.499999612976,-28.4792190930323,65.6848438379165,-11.9103943320306,270.477852124283,-19.6335883776843,926.475110501868,-142.212172827725,608.258416271409,-115.902512306384,715.037827940557,86.5449482239566,234.524220851798,-30.1180293741401,707.505568080074,-177.011342024317,1446.60701195144,69.6599221682567,1864.0715686685,-193.761978235477,365.528685761405,13.1575115077167
274.40714426092,10.1543890961006,479.841950708479,48.3579160397045,39.5963858007243,-5.00222307303225,1102.8415022599,-93.2337639521125,574.609332177787,-28.7721386489549,61.9997441143145,-12.5431989248942,276.596365820596,-21.1589082948062,938.754140108659,-143.921656689385,609.949935127356,-112.379480422492,739.697335004877,80.3064992372801,244.294498671479,-36.3940124260693,724.702380635637,-178.872357198656,1473.85383381585,80.7706771824812,1925.9280655691,-210.746391230608,370.019605818434,12.950496722061
269.050350147669,14.7441470819619,490.091657696142,47.5570620374111,35.2910910756021,-2.37904008769795,1080.87251211539,-90.2483984473452,573.600407921888,-28.2344251712117,62.0223135798479,-11.8216141687884,272.179507023768,-21.3165797188035,924.211346303787,-141.777202460897,602.886190902887,-112.917448384053,688.544679498861,93.2267086233003,233.275702571169,-31.1948977354996,731.073110332361,-185.897072688432,1435.4031334539,77.9775727372601,1903.5941327459,-203.545705900527,362.254041763072,13.1928884584143
266.347730962501,13.1551008866005,478.84942470839,53.4104148617916,41.7558632566123,-5.92608397278769,1077.96260475311,-86.3611496319261,569.21781849635,-28.8341444857153,50.1392328604293,-3.39989831005408,272.740893169967,-20.8313343123511,920.64294806395,-138.965982080345,611.132469750266,-115.459299516233,713.431056722405,84.7205282897943,241.155504030506,-34.0579949768958,719.537072863322,-176.593110899006,1465.60218297596,71.6093276163338,1923.26718506944,-213.068335825406,364.198841594889,13.4365297874341
258.180662719044,18.1322018434416,481.760805013841,51.037516061975,39.8898687394183,-3.841861127021,1102.0203811986,-97.9392985785007,576.070871252183,-28.4443721661447,56.6547978630266,-8.1509451054899,275.850152372543,-21.6502111911863,936.113467969838,-144.952234061431,603.496852811627,-106.926550405256,731.338754940317,80.9559259062257,244.7508241131,-40.7780623248328,729.930153832008,-186.784318249365,1473.76074264807,73.0300224266128,1911.07785410026,-195.58080873936,369.866606089856,12.3553568551131
268.8050367655,13.5563524712549,492.766295580963,42.9974583250455,46.3742404676444,-6.25709406709102,1101.44554994916,-94.8200323865285,578.612581745067,-27.2441035497706,61.7178431348393,-9.45761456616751,275.361853326959,-19.458567654686,935.284871339079,-142.653961960671,612.132830697259,-109.074494430882,709.682933410807,86.8977299370478,244.777740046936,-39.9696670361706,728.498918676516,-183.28730029776,1472.13668159541,73.5526051216346,1918.72689570061,-204.610082896364,365.966867601408,12.7935700423018
268.524567191314,16.5804468947836,491.132279099511,46.0458909778035,38.8522660360431,-4.36266320160373,1085.59444057193,-83.9167550683642,574.953169244633,-27.3977630046108,62.9218495501837,-13.2017016545871,272.035767401249,-20.604125543366,933.109156896126,-143.205906286196,606.628726695655,-110.550025114153,704.289186310803,98.612803119811,235.101582501291,-35.9012139530678,716.648309107661,-184.316769109483,1470.31729470469,76.1266445168336,1912.21137716362,-194.195922289713,367.301430508536,12.8213199088399
265.474528593969,17.9008748304792,481.738122332255,50.6979801890941,46.1730702687553,-8.06626419710689,1087.6918341279,-88.6653098036607,579.614228004254,-30.2328068037557,56.5306684003294,-9.66621538721094,277.544663436612,-23.3332134388412,942.097024373359,-144.053299665935,606.680551431235,-113.939316533945,720.800992896097,95.0904616151468,251.171146236058,-42.3465499183429,726.652241975794,-182.218351741793,1483.05451309409,77.1745336906821,1933.48487869901,-201.770343446181,373.089981681482,11.7146324416518
259.834441251284,20.2323048379938,490.49112437155,49.3984405078705,42.2957003440617,-5.73152971545586,1131.81760428758,-104.045396629559,591.93187613795,-31.9590763691853,59.110685980112,-9.42043464701951,280.186866280453,-21.5790351392096,957.727622939271,-148.221495403776,615.749646639484,-111.946946788858,763.327614070108,75.856713652801,241.151640211898,-41.5527671704252,744.857254890014,-193.428111262948,1494.62387609446,70.6799321705516,1928.93205722081,-199.62741248459,375.009998325955,10.8227648027227
265.072275111429,13.4106426563765,468.030135574556,56.684937369114,27.9002096471314,3.35945979752136,1104.01338560275,-90.7312922971735,580.018159052138,-28.9953907994517,56.2453436338432,-9.41453169130025,272.815831818615,-22.0192499137282,932.927166896816,-143.3276902998,614.648566908744,-116.914605696974,706.775451924355,94.6069274441456,244.165101091171,-38.3912247320421,721.491613316237,-184.587361943452,1449.11478759543,84.9672567817905,1890.43183488143,-200.245506965077,369.975662441697,11.5533454373545
264.606091099477,17.8174970243454,478.110751280127,48.2210801396515,43.3504045690221,-7.83196424516517,1096.89755651866,-94.2517816900804,582.97682064072,-30.3488905164763,54.8974401342189,-5.73322238408406,274.877190553097,-21.5744036788247,934.168703330322,-142.50539558534,609.507292975501,-114.065211833272,719.099259573167,97.8339126001485,239.044745958655,-33.6757930854369,723.46691091853,-183.27224953783,1465.73965265054,82.3036809279099,1888.85237158264,-192.81017597608,374.067486811655,10.4802772671209
273.388810249443,13.590176762135,488.327218274737,47.1343218258822,45.8689472768583,-8.77638327063653,1103.08621322832,-96.7087351471027,585.811076028212,-29.9764514087666,63.3618407534495,-12.2636523115878,276.472695597988,-20.7539268112023,948.82371798746,-147.777411535718,612.619844368143,-116.74947666298,745.557196051679,85.0217801663283,251.188088166759,-39.1400944996607,726.127279863281,-177.747565542079,1486.14162966285,72.3121286791254,1926.38300672091,-203.672648748449,379.184503436171,9.82956753456499
260.083663267528,21.79815241027,483.585872810626,52.419736980116,35.5128695134571,-2.61880413786895,1114.41702865821,-97.7671402340996,583.611156716035,-29.4918121330357,50.2020492762844,-6.83881184556547,272.76074368116,-20.7617596124784,937.317820036804,-144.374596664432,614.293568685073,-117.286483355068,725.492783061345,82.7662565049076,240.404961412136,-34.9897502742628,722.933083234234,-178.92891107283,1460.10921957974,73.0848898892163,1896.21485871215,-201.24357203676,371.133928424743,11.0020489111974
268.773545154173,15.8519592325773,482.948515378295,47.5525903523526,46.7348253561949,-5.21741431748444,1099.57556426378,-96.1945620397585,576.772785356973,-28.6829599964888,61.8141173771384,-11.515003629195,268.432723165632,-19.9267116131611,929.701884589139,-143.292122996229,602.86981780262,-110.221638485602,722.870299686671,87.6168043796552,241.171012771466,-37.5812892383885,712.479748065424,-179.156393018929,1442.67361318367,82.2221751793337,1897.13985918861,-202.192068366251,371.424348344322,10.909884712932
267.457475348961,14.0835396002382,484.72209446096,48.0161900956956,36.9158219341002,-6.18904234039248,1104.50235156182,-98.3287728589206,580.298690310421,-28.5839848209938,55.3157455214812,-6.36615269457462,274.208307845995,-20.7929662104128,936.808151941249,-143.565900491345,607.873717091599,-112.053179252672,745.902602149111,80.6932130915772,248.824720937273,-39.4880618762303,724.274073985127,-185.016313106937,1497.04912826734,67.4205979025886,1910.09093828879,-194.253333570338,375.654660738184,10.6674989161416
272.843546083302,19.189917060275,499.986950133802,42.5026026968172,36.2033397649898,-0.644863074263695,1109.92548387557,-94.2838369745783,586.951985218728,-30.2961538717438,58.5948092696248,-9.34014705156766,278.726003334924,-22.1539519008784,951.832694037341,-147.595515605278,617.714556336581,-117.976267965716,765.928941573957,76.6500741460398,243.013400511835,-36.7054281308482,737.869100035953,-191.720651576702,1496.2084766797,69.9597276589497,1917.66496153767,-187.583012018873,374.806832441054,10.5436103699468
273.859900610076,12.988066086832,478.052958461151,59.9278912434953,44.4655077420104,-5.28645113189874,1101.05269092787,-91.7392712120922,578.324974811763,-30.5941760503936,50.2455114805724,-2.21220155461212,270.896270814331,-20.2318655755051,932.391285395328,-143.165179373249,614.220479552658,-112.252662338678,710.543503892474,91.2695760540995,239.965464433816,-37.6601017972112,710.52572320323,-171.083290071392,1455.56139998561,79.8009373158246,1916.29182850849,-203.491136075803,372.14175939163,10.3131973613914
274.260627739197,12.9465985848919,477.172570196386,54.108908985261,42.5426375052092,-6.40555473998222,1117.13165337421,-99.2035923329163,576.300386977052,-28.8430477634704,62.3964572767874,-10.9727285560768,273.858301393618,-21.3424601100289,932.798472142277,-143.13730145001,614.510954183517,-118.685374605928,735.753566384076,86.7948979378659,241.701522613446,-38.8937324783116,727.779980805941,-185.935517264568,1484.1391616916,77.2398225373408,1938.09923286866,-206.240557586496,375.099236855423,10.5572153957689
276.22355538164,11.6292442044502,483.545960432404,57.4361515213986,36.4358722878256,-0.635494883288307,1128.74472460901,-105.877121368881,584.738034539307,-30.9058294900244,61.6880160462905,-11.3023753541734,277.92025608732,-21.7034402660057,943.328692104383,-143.997051116707,616.645463899518,-114.187883587257,755.026609776558,82.9461674458503,249.479036963381,-37.3798424804767,728.981425298281,-189.484425236149,1528.88992476529,59.3460262022843,1929.87615359707,-196.38537983895,380.048425152726,8.98522736456742
266.882360990045,15.9205507519924,484.526835554598,52.2999792385797,44.2539611226869,-6.8190017422837,1098.86073622757,-86.9154888830459,583.969095922635,-31.915870400674,57.1610587315548,-9.53272742739235,273.721100697326,-21.4595875782159,935.538586207242,-144.359890837021,605.973305548737,-108.303601425514,736.215348958366,84.9424814718892,243.226909837427,-34.0681985495718,722.733320190153,-183.681489910017,1476.99671049031,74.7939418505962,1902.95767655674,-194.785608491551,371.868305682838,11.2233583973112
278.023717028394,10.5694770048088,477.054613494108,53.5287708019886,42.1647531982712,-6.01440489333243,1115.27062278422,-95.8794589131276,579.050201909275,-28.8389619025339,58.0569347410613,-8.45977088374481,274.782272199887,-20.9549056344929,941.294614672918,-144.942318657163,603.760597292223,-110.569033918678,743.22753543197,87.636204925358,248.459596622318,-41.4800727368851,721.768948570629,-183.72341599324,1481.24796820244,78.3368341132831,1895.4400901324,-194.85440853277,375.242039323025,10.6235221636293
265.457205929596,16.9652774048697,498.062349767397,44.231958931702,36.656330939287,-3.11802334170453,1129.46268753268,-94.9946977237976,587.107449639787,-31.586634807505,54.8616556593497,-8.82348074458476,279.917085283573,-22.292650042709,950.620069412125,-145.722684285779,611.252090769331,-119.224666237267,750.812199742276,88.3988158045083,253.037129684017,-42.2205592778692,726.526784767498,-176.183091215351,1514.88766264092,66.5724732704681,1926.85940890911,-208.051339392114,380.249998549423,9.44755152220962
255.410464694604,20.3405887979094,488.684581794051,50.9103903769161,42.9717921764337,-6.77532000246212,1117.06920888979,-101.453043019787,581.675066905977,-29.4420682416992,63.8027660771687,-13.1886451948491,274.088159638241,-20.801459675089,938.91813144474,-145.73857647161,608.21808872497,-113.423673286222,727.882682620859,91.2625189801749,245.103970847909,-40.1042125952671,707.526645364268,-171.691092670812,1482.91458505965,64.9171337321052,1869.50973754082,-190.581942629679,371.404685055671,10.6920050959759
269.612483493381,13.6853697289141,479.114922214785,51.7458431067488,47.7604253266212,-10.3332560525067,1114.50354602272,-96.9257038326108,581.089783334888,-31.0021519233739,57.5919267990566,-8.27349841123372,273.873025500383,-20.9350213839318,936.81174747706,-145.715915689723,607.876989636884,-118.223706767467,750.422396333626,83.2233316929645,234.336068428294,-32.729307665711,694.967774437347,-167.496278301781,1471.42579656603,76.5757418992625,1864.1431912426,-188.695170583265,372.530518123773,10.8384955067459
261.526030654368,17.6210512263732,492.010880765965,48.7713622916588,38.7990662595131,-3.04647315994363,1113.11402367288,-94.6733457574528,583.106706312612,-31.0705421734695,60.5152741637238,-11.7706405885795,276.551139798075,-20.095260943202,944.702094482201,-144.498433288054,611.761057359139,-113.34282466517,751.149653977235,84.3151579881927,241.623742229414,-37.6540640383913,714.757208797025,-180.341498577334,1501.19520942633,68.201806495496,1890.50843281587,-204.488232332808,376.012283586881,10.1065391779573
266.29274003046,17.0046190480885,509.620715902477,44.6724837673291,39.3524301309395,-7.30458358848242,1125.12394441052,-96.8363277282805,585.885275399151,-30.7799568888499,59.1125037287146,-8.97926712016738,276.97410708065,-20.6161099174562,950.800038419464,-147.776367507588,612.874472216937,-120.9592613957,761.786160387388,76.8888792891077,237.033628770606,-33.4931230839292,722.231226025171,-178.156300208296,1468.60588954479,79.0669294076358,1870.36817063515,-189.096325667229,371.569682769938,10.4187084429353
263.585306238712,18.4028487447526,481.08730639948,49.4539549572595,37.4246917252553,-4.81439514962716,1112.41028607227,-99.9158982897888,577.82248078454,-28.6925871955511,53.2807263921534,-6.76615689223111,273.979633800298,-21.1740528376155,934.142844474051,-143.708801739371,608.218553409818,-116.317874366052,731.107869169153,97.148219518694,239.115296000357,-40.1939545363815,713.516983461384,-181.508775542742,1476.20841046119,77.5647258807009,1856.18949940074,-190.199122663859,367.264050335149,11.888063339286
269.564788614527,13.4846869433593,483.373433384756,51.2835945240456,39.1467907474865,-4.94903037589966,1104.69646269951,-90.2384817741148,578.248910510471,-28.3838392570307,52.965944352195,-8.37410244557548,275.307897113405,-19.5275045948835,938.737424201266,-146.457670273318,608.145945917026,-116.719738243843,754.84321833649,82.2306951593213,242.774562111043,-42.8598619309339,707.731794537375,-176.5781991263,1494.1631007618,71.8021607789726,1880.39349382275,-190.812981174194,370.777652321687,11.6561021608036
269.022175070834,12.554407450445,481.808673813903,56.6122493229672,40.3026747118083,-6.03704740754839,1132.81737660447,-102.686683847535,584.937183104123,-30.1524567192752,57.0579410716124,-7.89927958304569,282.272181476902,-24.0177179805678,950.812014068326,-147.905106619008,608.023852066448,-117.034425927164,781.113567167122,78.0417170177039,246.340642066268,-38.4092889210316,711.510553458156,-176.360152200935,1521.86835696144,69.9476955209346,1910.04437597405,-204.615771542414,374.700531457034,10.5227088194878
277.536399465345,4.51967444493236,491.820965427254,46.1518967087412,30.32933061533,3.71470912286726,1117.13381240426,-97.1936919098191,578.492996527233,-28.7768456370996,63.131976484868,-12.0957014727632,276.938995397608,-21.9220901311004,933.323382754052,-143.267214649998,613.105493493918,-118.462044511009,741.126456337815,81.9589607310051,245.634934687343,-38.9410838501477,717.192552620137,-178.582347112222,1492.26730418273,69.1547059352078,1902.85302029109,-210.479839402394,366.075198074692,12.2701867206638
257.024159189616,23.7380221745732,493.097137441869,56.1147637173154,37.4193311892726,0.791822661111822,1113.87673483324,-95.7152742529229,580.847045044196,-30.1527814613757,53.3951052470164,-5.46480413262457,275.838393616504,-20.8880322108497,937.647713615819,-143.603168941822,599.128128136518,-109.326718199456,755.194461224646,83.3318135503022,248.130429545872,-38.4098341344202,719.256675624813,-176.714900297262,1507.38496446483,69.3119566181977,1889.60161856374,-189.108957940236,367.968759558559,12.5948923470227
266.35702985515,12.8651732783575,497.913653114357,47.1207175636978,34.1445403811567,-3.39930678824557,1133.43612618971,-104.913714060344,586.59303904986,-31.5068385023746,67.3816963625381,-13.0177098452169,282.138512289604,-21.9018634153184,952.703660072603,-149.905369901624,616.414461796614,-119.620764422462,773.319672197694,82.4491517060706,248.634359970314,-41.2353760364978,720.190597082261,-176.74473858788,1527.76852293599,68.7806027913708,1915.680138248,-209.550255165516,373.826287753248,10.6069386754335
264.396238237298,15.4354565774671,494.8981639784,47.1153443628911,42.762989974775,-5.56339244231788,1117.65777265038,-93.3186847878748,583.408920690921,-29.3330912276406,57.19982025542,-9.1791829484812,278.841806498827,-22.9527896563457,939.311394122945,-144.879299330572,602.408513728539,-111.034390329419,755.078375526936,83.0242934150384,241.041717580771,-34.7485125281626,701.011004065246,-167.404714665402,1482.96618824202,79.0858577644124,1878.97612828153,-194.228203096479,366.591289262401,12.088165387449
265.744394323214,16.6094418310949,485.086922725441,55.8203971223671,44.802956956099,-7.41098031340916,1126.94919351214,-102.937638563768,586.324930499337,-33.2510073288678,65.2160034325386,-12.0861167865399,282.347949147689,-24.4580982617657,941.78145621815,-146.654821993232,600.025533500957,-107.875655843848,765.905083216278,80.8085358007692,244.767524282302,-41.3072229691592,718.272408134344,-186.639851269655,1511.78420489903,65.2728854681744,1889.28182492417,-198.330383709425,367.292460320144,12.6748948332624
262.191630724703,20.0150672760644,495.055334300723,47.087000596469,40.5990635708847,-5.55662962366093,1139.94536721392,-101.831108395816,590.717405990562,-32.361448464123,54.4992163376224,-5.72333901159398,284.492153965519,-23.4751390972488,954.731107900904,-149.582755393615,614.851751904216,-119.194728551415,771.682710598071,86.1822693750446,248.978331640518,-36.6479754709249,727.135636100615,-182.024855858285,1535.03913862664,59.0892763590111,1914.18259116836,-207.767177418407,372.319080757822,11.7576625192081
267.594086674335,15.6080826054875,506.189090469482,40.6126948545438,39.1536211512735,-7.38617908155335,1143.79252135016,-108.087852510857,584.969247075735,-30.7749865078682,58.3711594457019,-8.06420528802001,280.385416905355,-22.35859177554,944.000884852364,-145.881103080135,608.773541938806,-117.405988222163,764.190538231258,81.8101167843398,236.807851970251,-36.2494429772687,713.147832411199,-175.587665305359,1492.83910200722,75.0881351594189,1856.91873985085,-182.598002034337,363.966416906621,12.331295228721
272.007464942631,10.8877931323565,484.358870466012,55.1278902877464,35.2106250908591,-3.41689220159538,1120.54831291679,-99.197688517748,583.570224193077,-30.9700659859987,53.4430723115569,-5.55804598879121,278.975080204235,-21.9789486283372,940.90071822683,-146.145965845633,600.909633446271,-113.151766156809,762.208596827058,85.8367514147295,239.723233792034,-37.4441573404034,711.698159363474,-180.72697732233,1501.55404003355,67.5599937603568,1843.7377280748,-173.272709938434,364.184295801691,13.6403383513215
259.564910773654,13.018067639116,494.382818666857,46.7122900276541,44.2678090674672,-6.63989027020123,1134.58768345209,-103.791264626804,587.014182552442,-31.7019305230212,52.762405303387,-4.69370031504504,284.667178609417,-23.5990250729455,948.052100867405,-147.049600685352,607.450363974846,-111.193409657786,788.642777033065,75.5238333680644,243.449571565195,-37.6124278179554,700.040382635343,-173.221884030861,1514.23896000675,65.800096769154,1876.066434306,-190.97565083825,367.639318935462,12.7347523779848
274.340977480417,9.74710823981848,513.087306378911,41.4816547544218,39.0639730884697,-4.98762283577627,1159.95729595867,-113.720179828862,592.091123441837,-32.9683739994269,55.8213781653439,-8.6764450000166,285.137168728096,-24.202052339727,949.268072283071,-147.603345407257,612.11695463061,-111.557520190111,793.750923838736,67.1676151737965,247.54562845056,-41.8466890141228,714.397256390992,-183.118497446984,1514.14227463158,57.9999813333652,1869.19664946412,-197.270964925797,363.587174478268,12.8856090528558
264.672262072325,14.6801306570703,498.163195433659,45.3482858490302,42.3953656226672,-5.57460685128737,1132.5418978663,-106.702478513562,582.454715953385,-30.6410842424482,51.6577374803945,-2.95410061155299,280.803862458201,-22.4316042154652,935.132786842526,-144.026312261336,610.886395284095,-117.62645204071,764.543214183672,77.0377761324712,239.292037518603,-34.2363039562361,700.369524850508,-175.208339680417,1504.05248557415,65.9873992579544,1848.34039931152,-191.914775223723,359.801653867552,14.3306101420062
269.196413438397,15.8487648924711,510.351650124111,42.541051230496,40.8872221229388,-7.68091406288171,1134.46330801333,-105.583846887918,586.458752470842,-30.8946999156696,50.9705737487323,-5.42011215765433,281.779870713012,-22.3445111652883,941.310663743812,-145.899054965233,608.683991682405,-115.296912110013,793.41253945624,72.6646992128659,252.129362862493,-40.6789848601643,691.359102931501,-165.807516902653,1527.73717465475,55.4437047529209,1852.45565215075,-185.321660938708,363.984689949186,13.1868209664182
265.692208146877,15.2663580110026,504.944630584629,48.3081646132096,43.657294812133,-6.85119215176734,1152.33809892875,-113.805645191266,593.751198008317,-33.2348247565233,59.393102453171,-6.25604586151149,290.057765344384,-25.2027171742988,954.461486444829,-149.623931110506,604.133327743439,-109.421637787287,806.623138245498,70.3243049805804,247.924996360268,-42.0334353304716,718.667221479758,-184.948126630143,1549.65170613411,58.2804351734695,1863.96793744045,-182.82993047937,366.974250999382,13.2843421935733
256.863347905272,20.5203372797847,503.200849212952,42.3107957610345,39.1395639155775,-5.62135013586168,1138.70511867085,-110.491429557691,586.1859220393,-30.7120871531707,61.5728589180705,-9.98422710445395,284.901957081317,-24.183288735709,935.649728354048,-143.441189708886,600.424718263424,-109.760255222245,778.259494151642,73.6299456180795,246.113728523396,-40.6897943777036,709.634972859628,-181.873243460736,1518.29584094481,58.8994535140143,1858.25289790789,-192.741507549481,359.611175373411,13.9069319791304
