607.174346815278,-67.8744963428823,1624.9204331041,-211.187355444761,1436.17759872349,-165.691230769461,678.340227742029,-90.2027055111908,494.103844183706,-11.4981517309136,329.740422185658,-43.0455196276043,2228.95633567742,-180.76342849262,285.304821360945,-42.8698699804937,739.689211253339,-84.5287170135403,1879.58862648881,139.186746177384,579.149765897385,-85.9480084520262,392.004265075866,-34.3852811373701,898.506248467641,38.1209609940987,647.194239443519,-25.987633737574,609.101401374881,-71.4866045099791
602.427192978112,-58.5251274092487,1654.66572706069,-219.986852552195,1468.4740637477,-180.86141503162,689.329993826614,-93.6827836259473,504.043412972257,-12.8525924093058,332.590999638056,-42.6535288596395,2261.82350246246,-190.267687175757,288.243402010501,-43.3565258746755,755.684281305549,-87.9255946796593,1896.11451637827,139.35793134444,578.977761493521,-86.4999443125869,386.90817898122,-33.8203786239795,882.90847688288,42.0630213761009,640.823304460753,-25.2995407582522,605.862113575326,-71.3127863985297
596.602987443132,-54.7305097022031,1613.29670251961,-212.567952243327,1430.58707537465,-161.877483279895,678.143845068463,-90.559827062565,490.375363619249,-10.5100891256794,329.31241319356,-42.3256542952333,2220.49641593315,-182.172734771514,284.005196391106,-42.2707884256651,735.306989743328,-83.2305811713068,1869.25050842788,137.551324509709,569.174614813465,-82.7413598798571,382.907466168706,-32.5888871035091,877.341287071993,43.8808682947144,638.687774740872,-24.5795814763017,603.951171312885,-70.7320878935559
603.877201110459,-65.5396093505267,1638.45870058495,-218.824536645392,1438.85995443906,-166.615706697526,676.484274794798,-90.0287488654683,494.639660027849,-11.4018003952445,328.123528363782,-41.9406231097096,2227.95627800969,-182.781181223221,285.272929140004,-42.7150279845203,741.406471832502,-84.0291527937402,1873.64164830475,141.235074017502,581.332854762798,-85.8285592306468,396.54712471441,-35.4883501011418,892.114783046398,41.5969753459794,649.353670793595,-26.531796298866,611.270158321529,-72.1417616045148
609.172947595308,-59.2775091705465,1667.37288336686,-235.341531659256,1461.93563653326,-178.175682488839,681.347763249733,-89.9211006507461,491.821697368712,-11.3847660224619,327.371948224276,-41.3607841227869,2212.93713684099,-178.325724785504,284.265324089584,-42.3485986506446,734.600443411006,-83.2765059487211,1856.29006251948,141.633453775047,562.340556656665,-82.898658280434,377.35047856027,-31.6354773435458,872.260335533918,43.4407109963132,634.663865403015,-24.3963889423538,602.494564779192,-70.5871207522374
604.95342271041,-63.1834057579706,1629.52489280655,-223.6815120052,1430.95033980603,-168.466004862861,673.787124687212,-89.9691180506537,487.831411784199,-9.78299483470865,327.054981849101,-41.6886507763901,2206.98673126172,-178.440497532634,282.556482164801,-42.2268778949476,728.587072431435,-81.5175807947761,1856.78443208285,140.668447858945,566.680830851902,-82.8129643432475,383.256016264939,-33.0636144874656,873.588902505457,45.1786805004741,637.854802505866,-24.4265890366498,604.175921825397,-70.5892715593587
603.988910673815,-59.937719399276,1638.63132825734,-215.684991635752,1449.3738839588,-168.555208895168,678.312903673392,-91.0101472563405,496.009672943395,-11.3364530686092,328.914248723711,-41.7525341457721,2223.77771647129,-181.038892138155,285.117992998814,-42.7281627254636,743.714986195647,-84.7719855392473,1878.71585641438,138.672437579925,583.253600859054,-85.9010271768831,400.033366082705,-36.0479345100603,891.081108142676,42.7571780212543,650.834742649908,-26.4956683585039,612.907874442679,-72.5854981283556
596.13801203659,-56.3607122595383,1607.28614533791,-210.396220283075,1437.50948802219,-163.478701098515,668.483084100757,-87.6603465145687,484.584917415225,-9.78597804488591,324.494871394706,-39.9753252017121,2191.84063556895,-173.542444878329,281.77378491517,-42.0188460876834,726.029110662329,-81.6489420314052,1840.83602467941,142.66852300382,560.07776073087,-82.0304481971256,377.431504474761,-32.0127722258839,862.179176177025,44.5713840194708,631.88166931774,-23.7995494039553,600.939423852266,-70.152801177006
585.586679427456,-54.8967658589094,1600.80853843452,-207.890414967587,1416.07434200335,-159.452787651132,667.230327694466,-88.8018916654795,484.971481839076,-9.87634905436747,325.077799263723,-40.7087789418755,2184.75094467327,-170.551501694574,280.892273732268,-41.4917828420509,722.803758102625,-78.6484486222247,1840.55531134742,142.128744373542,563.779786580573,-82.9958261283594,382.629497449321,-32.3929066527078,862.832651149836,47.2056717772495,635.266899981543,-24.4300740935083,604.083274937126,-70.9181632069275
603.977347484422,-62.7323701924064,1631.94320012543,-224.314798159023,1441.78280892116,-171.110688911566,671.445057976405,-87.4948977845972,493.277333586044,-10.5428452696733,329.118899295938,-42.8556116065746,2216.77904603111,-177.576335899583,283.958556974264,-42.3178482185659,738.889584175838,-82.7063561989052,1865.9001161749,139.071196884912,579.496559635925,-86.105063470077,398.03289871877,-34.994724277541,881.468494678653,44.1977441243629,645.81278930963,-25.2368496014677,610.627527358619,-72.1664658459289
593.505493338489,-60.8099634703082,1608.32613202967,-221.420499378859,1405.87742948283,-157.312644817996,660.979832074115,-86.8067104346911,478.870542721713,-8.69772963869397,323.287268668426,-42.0224398420119,2168.28741463036,-168.493401053143,278.601145619616,-41.3031232234966,713.888701658109,-78.6867529444342,1814.79356527284,144.338689622273,551.418003801827,-79.9893350259926,375.378104746743,-31.3858693959385,847.234895350693,44.2616092060755,625.698638912641,-22.7404664833645,598.267225355893,-69.92669252403
583.179965010181,-56.2322445389645,1586.91640877127,-207.599462446167,1407.13183388477,-156.209028184742,656.147018293524,-87.2189101463516,481.086207663148,-9.1354525424686,322.352412967935,-41.6142644262136,2169.96325898407,-167.691057937102,278.192944750258,-41.3292059309592,715.904102979359,-78.6512836829961,1822.13149729182,143.111376614651,558.385926745291,-81.8393248766423,381.302920465438,-32.510332835141,850.159984185436,45.0422164203959,629.375364281262,-23.7040889371746,600.714763452061,-70.0706037938121
604.618350859471,-66.4929684945798,1627.95049432392,-217.87600184249,1434.90901604719,-169.034911487698,661.683896062382,-86.1968645250591,488.609341667104,-10.6106929196179,326.652920453524,-41.9351067143127,2187.43762802338,-170.63611514386,280.124499093805,-41.5444355064585,722.5349028413,-79.030874801682,1819.54868287431,149.107229619114,549.21388757202,-79.4548898301198,373.625253384087,-31.2978377826322,835.376880108181,47.4420229227817,617.987949755688,-21.3717334074207,594.176198262607,-68.7655988886822
582.295673105634,-52.9407564736711,1577.67084152137,-207.542675023152,1400.90188559456,-158.77824322908,643.954180244297,-82.8417058859887,475.06074508296,-8.72119286894491,320.680422181625,-40.709190089829,2143.35457203101,-162.074971051032,274.898052476425,-40.3809085548864,700.388209074669,-74.5700766532564,1786.53674053127,144.484177900567,542.73506693835,-77.7665333744397,370.551927663462,-30.8618922031456,824.845254380963,48.1978676774279,614.796565157664,-21.2441589731543,591.091792562489,-68.452270038261
581.704859535001,-56.771114259853,1586.81561785261,-214.167061433998,1394.03086386049,-152.215723474869,650.909656655476,-86.7102053998098,478.096784855923,-8.3606219807203,318.849082797945,-38.7131587119533,2153.46758659518,-166.145308715297,276.502662569981,-40.8832532280089,708.629255926436,-77.5535911272153,1797.2378055183,146.369855755804,554.781652436912,-80.6869289356206,381.423045768841,-32.632555032513,838.103706299696,47.5736264300667,623.578994389386,-22.5063459176346,598.385416115903,-70.2750606838397
598.702896243742,-63.4902901544601,1605.53447080631,-218.675649371856,1417.51976920814,-161.745929087113,654.47246756606,-85.5600257313994,479.511214888957,-9.07144099379311,319.121401190767,-38.6937855828766,2155.88446654094,-166.405550654283,276.328343775261,-40.8025205967887,704.811147222898,-76.0005123382115,1786.66955407903,146.931525166549,540.817803582114,-78.8110681617281,366.102516710337,-29.8672534805548,815.152103670998,49.554178905322,609.98892884993,-20.3654519790135,587.508449082199,-67.4862078918764
586.719295221092,-58.3457521593652,1575.41972620793,-209.185910348996,1393.51559436665,-160.336960642652,642.536803289372,-84.0246589907939,471.917297730066,-7.55986003969221,317.768685438464,-40.7552863392446,2136.86365511495,-163.831479804679,273.396908771605,-40.0381254083979,696.342443062663,-73.2197126202103,1777.33331739493,147.357029478379,538.058426731186,-75.9211321748303,370.50038701204,-30.6724422404607,818.152747245614,48.7987652071572,612.477725411845,-21.6272705663911,587.75486569485,-66.9890034223769
577.69228831778,-53.3845904973629,1570.30940231264,-209.503729430941,1393.04628441553,-155.520064589406,644.649192986627,-82.4560087896065,478.622477564467,-8.94043086897728,320.980676083082,-41.4391128323573,2155.97516142,-166.781224640481,275.756785594008,-40.3244593254017,704.728645252559,-74.8008009971746,1792.5776384934,146.912374380513,554.167452769009,-79.8094719145181,384.451452866587,-33.068681650368,835.227316888308,46.5598535045515,624.557509103079,-23.051588428772,597.631422564806,-69.3177703581506
586.290600511275,-65.9961450458238,1576.14531661149,-210.369569919383,1394.44046423009,-157.277573247892,643.84045685407,-83.1262924262968,469.654833258392,-7.44838542895838,318.716991227425,-40.1596058622966,2137.92913641144,-163.369143576464,274.030675749341,-40.4674186507302,698.122972730936,-74.601927043004,1777.03645031657,144.807385178792,536.252880233018,-76.4851935537561,366.788543449336,-29.6957476149833,808.799424369485,50.1102986165303,609.662448406672,-20.9498471092578,587.948412905308,-67.8795686979073
583.316333546671,-61.1641669755924,1568.3541592757,-214.988862321648,1410.04426868597,-168.81019704882,641.144075672638,-82.1111194713565,471.181416146894,-7.25956030372485,318.689513698698,-40.1166005988215,2140.4848402023,-164.711515355114,274.234237987383,-40.4061301913555,697.200852769122,-75.6753387785356,1772.82229358658,146.021692142592,541.771468850287,-78.3940169062782,373.160471871274,-31.3247346776162,818.080750219452,46.1954420538189,613.964611729048,-21.6146541308279,589.109146004616,-67.988616560742
578.470652074643,-55.7838952466423,1596.44045909396,-215.753317347362,1406.89518328738,-161.935626796288,651.704270989031,-85.6954325620441,480.024914819924,-8.32668411358332,323.143562491067,-40.7355450371175,2182.14380159736,-175.975677451134,277.579834582087,-40.8087114191153,709.597992433321,-76.163065871296,1805.03788125423,146.250985423212,561.760920878293,-82.5595766492041,388.907219058318,-33.9478615833539,837.882305855065,46.5940912158342,628.973695578066,-24.5100021236139,599.385100807726,-69.8637895826283
581.819483435155,-58.0287048392986,1586.44080322551,-211.178441290432,1390.16871696059,-156.822369358554,641.635863954746,-82.7414041898776,470.712773661579,-7.65764940209327,321.532432287874,-40.3126399198317,2148.01788467532,-167.445389856445,274.650752679868,-40.6276994633936,694.19031567182,-73.0118002528383,1775.86938613008,148.959288733604,538.284255116764,-77.654753899025,369.314255132653,-30.5988079559896,812.483313490334,49.3816122467258,612.630872719854,-21.536264790325,588.118645183815,-67.7411366749448
580.114375161429,-52.1078073635321,1575.51541808673,-204.584996903433,1391.41923267496,-150.532778954117,645.639580941951,-84.5680712589051,473.04539540573,-7.80110197549883,322.113148103931,-40.2852482297316,2155.42849009365,-164.764116758804,275.819776541793,-40.3627369030936,700.533173920661,-74.394131627234,1788.4205978294,145.601705447172,548.529814579994,-79.9212322115724,378.038008676832,-32.0520108586955,819.964506464045,49.4956632162791,618.186513348217,-21.7966607678914,591.865421545687,-68.6068551595503
584.60821495472,-58.9154723257015,1605.38842898916,-213.195279767598,1419.60716057824,-166.228213708587,654.729101458658,-86.2875692521357,483.101029965751,-8.61306356537359,324.649886915982,-40.9480914246373,2195.61520313422,-172.375298865548,279.74602092276,-41.0865657772759,718.721898076716,-79.4263602203488,1825.73281566086,142.764676931193,565.25285508212,-83.0541607645474,392.527092595831,-34.0229534587919,844.130581281308,43.9224780307479,632.742855456806,-24.5510153693318,599.573294173814,-69.6709349434856
574.949959646265,-53.6071468984403,1572.39056454501,-209.925558944617,1410.98841281146,-161.760473804128,645.27218759805,-83.6499258840852,470.748375124419,-7.43367333028958,324.312292715605,-41.8302193008236,2154.09619918777,-161.590899733147,276.92975035265,-40.8593234706935,701.908063465785,-76.2179414016615,1795.68088613347,144.567393949966,542.594827867436,-78.1595735509784,374.548985051909,-31.6825216517753,819.818460053179,47.5282068214138,618.471465102489,-21.9302629879569,587.381777444131,-66.8127046296176
575.407398250255,-51.2925406572057,1577.14760072934,-200.790889411821,1415.05122693764,-157.541981713563,649.122903929085,-84.8647158505912,475.358970706674,-7.70163546057049,325.850251428509,-41.3949335629474,2174.46225125847,-171.558750532085,278.775780420302,-41.1691099840758,707.658437544201,-76.1824558910063,1804.53654832044,145.046628764594,551.317545399318,-79.6394872568482,384.077350703735,-33.2884229091816,829.949359684143,48.1946986816851,627.417943166581,-24.123503774895,594.537060941861,-68.8304781054324
594.05915479841,-55.1927723670777,1638.50992276761,-224.193793877193,1455.46950750099,-167.784275441703,660.257813654023,-86.6502584979921,486.226691223796,-9.59080068059748,329.047720438588,-42.0092424844573,2214.45307497791,-178.563470903956,283.574776541809,-42.317343245963,727.275482673614,-80.3410053455999,1839.25634709551,142.496750247153,566.037247561397,-82.3244960700486,394.560966470208,-34.8350287762449,841.938404726988,48.3776661760929,633.821449338379,-24.706058757982,596.062054762661,-69.4409594065857
576.096140521514,-51.2147037711866,1573.88705168829,-202.038833454705,1417.63615892845,-159.448443248878,647.924037557668,-81.9553614791871,473.645563998612,-7.78621264562487,326.968521257323,-42.4734069296028,2175.06980658077,-166.871188563518,279.760038193305,-41.3191130228226,710.111129572844,-76.7073291216475,1807.17800760576,148.123721583188,550.076964959866,-80.5073503031588,380.722575532127,-32.4784927462128,831.650823106216,46.2414004830737,626.047681171099,-23.2817056709413,590.139304857746,-68.2507402105431
584.979358188807,-56.3396422145332,1599.85815243581,-214.391224159527,1435.38150425341,-172.697088717614,652.572442724854,-84.6155382890133,477.897432044414,-7.98476094743478,326.134351936218,-40.9084512457384,2191.62806579212,-172.439139181613,281.578952982681,-41.8668357010411,716.384265903348,-77.5104032738535,1826.16710966979,144.332824087374,558.496977853975,-80.7615736257627,391.831965131774,-34.8183899029647,848.135459611111,44.2050065584829,636.656247254819,-24.4096861149497,597.477512575362,-69.5765404393332
598.985475097625,-60.1679011089683,1629.79749275451,-217.182032270743,1442.84848948429,-169.00333723959,664.005604488576,-86.4386062511879,488.726407987798,-9.59478102080112,329.924934367654,-41.775219335664,2225.16718297102,-179.023448593826,285.620164367084,-42.8772654296883,734.235420373963,-82.4636696517368,1853.32945288729,143.671373235483,560.506549302706,-82.6770975321077,390.984644358184,-34.7337955611255,843.437016850225,46.9449695935365,633.957501725717,-24.4164571683792,594.516179334627,-68.9364643520122
585.707922332979,-56.6972838957603,1602.66883432257,-211.777776472475,1410.52847856581,-153.362956809947,656.918236106402,-88.1182508486987,477.476728255179,-8.27211544351665,327.052661140192,-42.109025078114,2195.51322550396,-178.230579167357,282.186004123103,-41.9779981121904,719.097808555306,-79.1047939868671,1834.25652488039,142.889314094536,554.442511832223,-81.2095266993542,386.743742633902,-34.4184715049292,839.560558648194,47.5346107955917,634.33659526657,-24.5830755441198,593.126394030893,-69.2833444228587
581.692742104031,-50.7723400141384,1608.49082168338,-221.372248252647,1445.87600448951,-180.984460804025,654.56663824834,-84.4235563367474,481.948607203572,-8.63469967823146,327.32738708116,-41.2933502994704,2200.00640509108,-174.25940018105,283.581320926757,-42.1323146858065,729.950513432442,-83.0694759565983,1845.12300854183,141.017119989385,565.288642423188,-82.9158788498796,397.997949204388,-35.6550834348811,856.194963284611,44.2512163612473,646.59226037056,-26.4263467738701,599.083766397531,-69.5224349044366
602.106575797154,-63.576478871113,1631.37702628197,-217.358080766896,1433.88260319244,-168.559593181351,663.146289627443,-88.6883076373448,484.598543768265,-9.34305490488967,328.694715733012,-42.4358507127959,2201.57310185252,-174.939136930695,284.019314012687,-42.2510505953458,724.63331860754,-79.5307398458038,1835.55990398888,142.13735290217,548.684339383258,-80.0770762531521,382.046327394521,-33.2184241372871,844.409728846755,45.7053778670578,634.934748231506,-24.6100204975547,591.199284547672,-68.5970119330769
592.725764128135,-66.1856771007271,1601.14090614422,-217.82902007271,1421.6402937883,-162.893405578189,654.221694972703,-86.8087444100366,478.156281671412,-8.24058110418451,325.91547050064,-41.6509284327189,2182.79731797179,-173.261229125866,282.607083697026,-42.1807746052277,717.224054075439,-77.3251326938593,1831.83184421493,142.829286976015,553.404895405571,-80.8698681191155,387.50458667621,-33.9781182009414,848.957780992204,44.0895546553648,639.201333975621,-25.1370851727497,592.528348328719,-68.5579935734027
585.676399621252,-62.9183077082373,1620.14229590861,-225.723299652452,1420.66514817964,-161.486131294243,655.864195513128,-85.6355321272418,484.255570820789,-9.29556321317519,327.539931732579,-41.6035645305647,2203.0561272276,-176.536570316537,284.812410306005,-42.7310837683874,730.06240708073,-80.519430729089,1849.86380428593,143.605184742282,572.600066162446,-84.4372929294656,403.562472388826,-36.4283515533418,870.563075049527,41.3463340388084,653.241828917688,-27.5123667291738,602.338604534858,-71.1322919898819
586.664044939273,-57.2641213151833,1599.20500038079,-211.298271097579,1421.04755909947,-162.59871546628,652.434952313238,-84.8917955472465,474.613262596593,-7.47068656783051,325.483912512761,-41.7076920793493,2180.30044987495,-171.730925467256,282.760874444743,-42.1984753673417,719.170171257918,-78.0137473608767,1832.45149706663,142.941792799699,549.532910542405,-79.3792442122157,383.914029874978,-33.2418403443627,849.17643808197,44.9266672555929,637.803313724804,-25.1045012700721,591.480338918706,-68.1964213082699
583.56227590746,-64.0392099455363,1599.97694629563,-223.809149105674,1400.30968228656,-156.600170553155,649.544724972965,-84.857818142135,476.701758629647,-8.22085554371793,322.970268383701,-40.5632056268455,2173.25732588946,-166.091817883621,281.99509171052,-41.9550439444933,719.380402422778,-78.807850020999,1833.34940962334,141.923419841102,552.136879691416,-79.8648135849142,389.736129431293,-34.8508615782373,854.864610424151,43.5466038566531,641.033760384523,-24.9976476737477,593.393852769752,-68.3466451912421
584.755934226168,-58.4998004346966,1592.19492956713,-204.935933611582,1428.48584156648,-162.853381602531,655.585991081047,-86.7566482078596,485.114912583051,-8.77335010396839,326.959078127437,-41.5432140830669,2200.80267843643,-174.694926508534,285.364845016641,-42.7044279224737,738.290606557421,-83.9178886315702,1856.79581631936,141.248803982631,571.725692761418,-84.2307764633067,408.071238499531,-37.7768621247108,876.387147285521,40.2997684001415,656.761467643474,-28.1191658353745,603.910172606977,-71.2579975854493
583.644917447205,-63.5128259338442,1577.65084003109,-207.500648529286,1414.203537856,-170.873972356128,650.328751538288,-83.991382486352,475.166747339407,-8.09011017505616,324.329490493572,-40.9404164490331,2177.82143828554,-171.787329707281,281.911342375152,-42.0180264615256,719.496337452333,-79.288299816363,1828.49828673422,144.229764414259,548.110307165626,-79.7618433697115,385.052624961701,-33.5905139617362,851.753381117464,44.6891537644319,638.874193515076,-25.3875368738393,591.111945874221,-67.950491648402
581.77007455353,-60.0436531533716,1594.54034072885,-213.445455396147,1404.73443883239,-160.649440573045,649.674500168289,-84.1138539572379,477.962290163844,-8.80753173217822,325.29385444304,-41.1002642736666,2175.6081447358,-170.443921807739,282.278136281796,-42.035337860315,722.696813730677,-78.658889385622,1830.16929067468,145.943235978035,555.461347762692,-80.862685138203,394.232073372576,-35.408181505723,859.74304108371,45.4753706491704,645.887622859973,-26.3046313747062,597.438149597676,-69.9319636577017
583.241623968564,-60.7227951046571,1631.13011780771,-220.554939361984,1432.00906290787,-168.849688709998,663.121587778742,-87.7473909207603,487.743802843977,-9.51467278874967,329.343779279669,-41.859911537975,2213.96028419012,-180.667110967212,286.093839133425,-42.822976239599,740.6531711703,-82.2984764760968,1864.76189578899,140.625873924178,575.178429789324,-85.7505724828906,410.59213945547,-38.449224426248,879.269837879641,41.5957145970967,656.556660864984,-28.1172292982561,602.916121851037,-70.5600792928031
578.830125787876,-59.9611430492997,1596.22035374579,-219.557285306592,1413.27082519869,-163.579705334993,654.299432035706,-85.7121470535597,477.428902256332,-8.36356674535922,325.679786574958,-41.2370311544497,2173.83111734204,-171.760935618224,283.119961057071,-42.1307891341255,723.719689036976,-79.628556925609,1835.90172213054,144.16002039042,552.383361152853,-80.1756434364455,391.17548051773,-34.8229748430032,863.65526863568,41.458499821197,643.951806105084,-25.7249432420429,595.505021733507,-69.6323207025365
575.300745842152,-54.324892640264,1603.9679116876,-226.256099076839,1404.89709023883,-157.630429537517,659.599004381783,-88.4903303271077,481.013309283773,-7.80303870357571,326.64266644922,-42.3936846358613,2186.60033905817,-173.133034523241,283.735670394484,-41.8225543481098,732.278912428637,-83.1989373176606,1842.51695986043,144.309401211305,562.023433060866,-82.776014035537,400.702634965529,-36.4613630670075,874.87856669804,41.566684495605,652.361513292515,-27.1271506673002,601.262816451426,-70.0079256420236
592.43917161854,-60.2386010378859,1637.50614299618,-230.269661378406,1424.31763579944,-159.532667682044,668.478282221643,-87.9942398449009,484.782545794375,-9.53515608078406,328.971198141654,-42.2207082990404,2191.19434437087,-174.717568749311,285.04147168641,-42.4862939365176,732.531401623896,-82.754468634073,1843.62037042349,142.531968541581,545.4953753827,-77.7674237983155,384.161405332789,-33.5271453446314,858.467435177255,45.0270525017898,641.144888419604,-26.0006608544436,594.368008772272,-69.0658707521856
576.842991147856,-54.0723022812104,1614.67625901352,-221.99199052358,1416.44391148559,-168.679575369484,663.256289017496,-87.4668650967574,479.587263839299,-8.34466217436742,325.461178900202,-41.0638048790132,2178.92433861359,-172.404903838715,284.547354385759,-42.6024422704621,729.099065959612,-81.9372831058511,1841.62272187374,142.81867900673,552.255905180621,-81.1144536306753,389.879377222719,-34.9110504188696,865.598106477069,43.7641389758053,644.033219496295,-25.6693114893925,597.048882196793,-70.1435123858893
587.9222000576,-57.8477106644919,1604.64036265162,-221.254542294174,1431.57613360804,-163.810954166391,668.462483692387,-89.7286376118355,487.496339700235,-9.70114401091578,327.725893165142,-41.6606559410082,2200.99922298951,-176.728499169167,286.677212861048,-42.7957597977504,737.671470977019,-81.807281244515,1864.61221048489,139.359777002944,568.583548124978,-84.0540243558662,405.883643941599,-36.8956331541424,890.30411708127,38.2478212818911,658.335700102101,-28.135254220946,606.924701455271,-72.0842156920028
582.354336209909,-60.5933919246652,1581.36553128088,-205.802889864885,1399.50324713295,-156.100716804626,662.021981463203,-86.8609443978229,477.47573684563,-8.45761680199567,327.966212047441,-43.3566662644319,2175.51836553131,-172.790295820885,284.001378394687,-42.4945234630298,724.978121208633,-80.7279751054837,1843.36884424619,140.842433824369,548.186775758939,-80.3032578447666,384.779307404715,-33.7596706974671,862.134278922981,44.72928950648,642.207037851637,-25.8282915751147,596.502182947185,-69.9932985544851
582.444421228345,-58.5056760625537,1590.05737030701,-213.101797036438,1417.75415737608,-159.953841289074,665.976199631964,-88.3487915199015,482.257398288347,-9.37552175302414,327.26816890049,-42.3307125054693,2179.24784545618,-171.96806899961,284.481744855099,-42.2690501965379,728.912075147698,-81.7045072982751,1845.01907311207,144.908286993818,557.233519959363,-81.2675821077473,392.7874927239,-34.6672135812447,874.987471802991,42.9250781737994,648.203242902577,-26.5013567314944,600.75407338488,-70.5121972776524
592.7974443451,-64.9753079597734,1636.39030429972,-227.802556687112,1447.56428600113,-173.302158735103,677.916947149718,-91.8138134869261,492.533597595748,-10.5187137414474,329.135556778884,-41.8547573290748,2217.29741304321,-179.391318953731,288.948628926431,-43.918285537003,739.483933970189,-82.8512457639844,1872.85342718926,140.946195878383,552.267457617613,-78.9269120796655,388.315185354073,-33.8959409807281,873.022110612035,41.8722891571817,642.352389532814,-25.3899864895313,598.012402557472,-70.3511275242922
583.297468090356,-57.9366898964731,1592.68119997184,-216.694428557621,1421.25938126235,-163.032238134728,667.194999457044,-87.6290472233696,479.887996619266,-8.43208405659575,326.319414787076,-41.2551755433866,2181.99622595537,-173.516790525056,284.54842498221,-42.6006759570055,726.231635345208,-78.8598225004479,1847.45571894521,141.509978703082,547.712204906522,-79.4423656758349,385.436463378932,-33.5408146971614,869.43911130178,41.5371153451977,641.022445027751,-25.5100526100439,596.450608534194,-69.8507965602346
582.178469204779,-56.6263936117285,1610.48051991765,-221.919897366529,1416.80439654648,-159.76298785242,673.038906733646,-90.3056524882334,484.839150365647,-9.19448662091416,329.379163292583,-42.2845933788664,2193.65590249841,-175.434329097706,286.360949048819,-43.1070026063121,732.325687570343,-80.9689648922992,1858.37864264192,141.375630360352,560.092176296154,-81.6810698411833,397.416290085435,-35.6049142351144,884.22423404759,41.2038164462571,652.062949162283,-26.6948250360057,603.459028881597,-70.9168044176809
587.013128657939,-57.1653100149425,1636.76901999136,-233.970823152869,1427.71927283341,-165.404549169141,676.069582197322,-89.8457815141934,480.445081947617,-8.70511172738238,328.647853350115,-42.442891327517,2180.9898685581,-172.777017386334,285.689416424365,-42.8871862872243,726.431010763047,-80.1752759457961,1842.72942401836,143.209175520271,543.551955176699,-78.6212341293544,379.246993398106,-33.0841622057611,861.506882474598,45.8542055968094,638.846680598132,-25.2789417047933,594.972489296428,-69.2283082041371
584.207627482801,-53.9490738585406,1615.58636420345,-219.655478179291,1429.1215258939,-166.51225639783,670.400372478829,-89.2606287886943,481.358830172493,-9.10713835780181,326.94178457744,-40.9429318705999,2178.56947732407,-171.344055376835,285.090250360244,-42.7073497833877,724.995798064834,-80.5641372428325,1847.58225396028,141.484134848752,549.872805116935,-80.2109905245519,384.967229245195,-33.8594900111203,871.09375561088,43.3877899089766,642.574987904753,-25.3222183397066,597.91991600085,-70.1843196962346
598.680551993329,-61.5811962798518,1639.91469371096,-226.026245950517,1437.25274435929,-166.917435416393,678.431589395841,-91.6427205449323,489.522581663776,-9.95014294757551,331.411342892604,-43.6648134240678,2211.5834023935,-180.417011015773,288.124355722769,-43.4197227051343,740.190229491569,-81.9675737845635,1875.93824402189,140.432972208563,567.325844656309,-82.4098443401201,403.144308190369,-36.4454895791675,893.877708223082,42.1668016487169,658.944635433744,-28.1662795006863,607.689392739487,-72.4290833932336
595.959562474562,-61.7695073426657,1608.87355181353,-219.245663867171,1430.71145169305,-165.361634968333,674.363042624846,-89.8203270500952,480.685282151119,-9.14105386654062,330.144771175951,-43.2095182719825,2188.79571470213,-175.395787309187,285.700479708795,-42.6473013971221,726.722084895942,-79.7015638027767,1859.78149915007,139.026594061842,549.570085524607,-79.943608791887,382.344053270687,-33.0951462923546,872.891204425368,43.0751502138391,642.206587844318,-25.6091382131449,596.53683383657,-69.348460308348
592.520391944342,-60.5314721253881,1602.66907152694,-211.900738490356,1432.62481357859,-167.316427667133,674.013836849193,-89.4077550458202,484.957556881449,-9.91559431443934,328.5749039909,-42.751742548625,2190.45067156214,-172.091081089134,286.943559798831,-43.1912187850348,730.986310274388,-81.9171678579255,1859.80415724895,145.537812779736,555.518808107659,-79.9295700037578,390.52016883025,-34.4036288162463,884.465118669846,40.5910004787924,649.629153640464,-26.461425073978,601.238323539661,-70.2100599344938
606.63751515408,-66.8898124518884,1641.02630942385,-230.408515393806,1449.16519847202,-169.052212501443,683.866736938976,-91.7492977923351,494.449360202657,-10.738716016969,332.493082014082,-43.6146929277562,2228.85096427681,-181.091723397085,290.246320941854,-43.467931501571,750.285538052852,-83.6989195271898,1890.42910889825,141.91745287542,578.075341945915,-85.4123221422587,409.265085726294,-37.7833937050647,902.330055800867,42.0156197752257,664.615856423208,-28.5745778180143,610.019654631272,-72.1567487209459
588.734799952229,-57.6770595707808,1614.6583214879,-216.823570688553,1425.55869925386,-158.276647305677,677.192528388298,-89.9884263476647,484.516772349505,-9.71111531117934,329.811948429889,-41.5298390531517,2198.04422970514,-175.021897632229,287.507833744834,-43.0766478088159,733.865983532149,-82.7779801821763,1872.24433519606,140.392905413689,556.947387146466,-80.0112522389127,388.885385820154,-34.1005203444444,885.264606655778,43.2922202577516,650.316570825128,-26.5278038976806,600.672605859751,-70.1503456246163
600.211360831758,-66.3172997307048,1622.10525833553,-218.670339611046,1439.12879834205,-167.582986692368,678.193275065639,-90.7327600427203,488.067916133575,-9.7847674194233,330.378215929585,-42.6943312851713,2207.22766325014,-176.156426559346,288.146429329493,-43.1137578418611,738.349476974913,-83.7913491363074,1877.78136768319,141.944073275093,564.929272917743,-82.3172276997695,396.451754477371,-35.7498546997883,893.081616158559,42.0981383238824,656.097417782795,-27.0485884802101,604.942605252732,-71.3522413160808
603.617165038309,-61.86542796453,1658.72181859584,-232.133668450637,1434.62436616139,-167.344094423297,689.782799527132,-95.3935302385258,488.89582247333,-10.2356302447456,330.822515112458,-42.0908787649277,2207.69682134193,-179.006051851395,288.08312071795,-43.3926096027115,734.416095286237,-81.8955655928305,1873.07436364228,139.043342956052,548.264553649784,-79.1267295901983,379.357962965907,-32.810729008128,876.915932234899,43.9498295690766,643.528375661592,-25.7571590606772,598.73608839666,-70.2827780036671
590.753171993385,-53.9940398155431,1621.54387376666,-222.330976861399,1415.55316878161,-157.20332772836,677.242426227629,-91.2078894490444,484.632931535453,-9.67657485794493,329.199374997458,-42.4129654009672,2194.21924226691,-172.979987743044,287.246151679608,-43.123650887731,733.469440729888,-81.2862612163791,1869.67201156257,142.03503869077,556.145219843127,-81.2154840917114,384.659118260029,-33.2878560379101,882.933947503513,43.4623528627732,647.958067648021,-26.3601910396804,599.975351523433,-69.6759931666701
602.172466182031,-62.6806466288513,1630.37827257214,-224.083671780829,1432.92983587603,-164.028790440477,683.022189250823,-92.8067768779708,490.649831656219,-9.85155713540488,328.670777681445,-41.0114924488383,2216.05497727858,-177.18735103189,289.268325630758,-43.537878114311,741.990893782822,-83.1044688594091,1887.61319376669,142.458118752378,573.901167986702,-86.7233776908183,401.808842987159,-36.6905723867404,903.819934464079,40.5337713380934,662.478695872568,-28.4086352642376,609.31881781558,-72.2572139153206
595.679613263275,-62.4032307903261,1595.18925564872,-208.816128622762,1406.59292265741,-164.378167310551,672.038085798119,-87.826454130124,479.199918562024,-8.77840201130451,327.646701190257,-41.9984748124686,2175.87312693332,-171.01920366569,285.354364223015,-42.4899391734118,721.712005892867,-77.9389432347765,1861.41458986748,141.28837371214,551.055773286841,-79.6445213481402,379.88089660767,-32.6514411844853,879.559194858032,42.5757162564519,646.425139276118,-26.6340600400831,599.673072370925,-70.2358367239095
592.719148902675,-60.0544433423724,1609.5618510126,-219.767943938354,1412.29899802354,-163.10465035322,674.344109191439,-89.523321017373,481.883710769482,-8.87853300692034,326.454244547377,-41.2839781359023,2186.61094451896,-173.543001384313,285.965261089724,-42.8078679610209,728.698059976341,-81.1853238592815,1868.16032049609,144.357294263533,557.716124019639,-80.880641791386,386.724214306342,-33.3856448820185,886.564171594726,43.2817249000207,650.25261178265,-26.0874888220059,602.927215424044,-70.9163125761798
584.080074731277,-52.7711416822661,1640.06106245,-234.300338010419,1423.78505525743,-158.368940302937,684.83828113945,-93.0629275525628,491.705757066029,-10.1513682585729,329.351087852532,-41.2004049915157,2218.00901362954,-180.812563799265,288.948769435331,-43.7852285280997,737.862557673496,-82.9838062355959,1880.47725223399,142.27170288088,555.02820278976,-79.4406263811974,380.194450354376,-32.2481920081406,879.528671273688,42.3595300153148,642.873265808683,-25.97135284514,598.141033538565,-69.2402718545829
586.888753023915,-57.5114007665518,1602.7595180421,-223.805932308278,1406.58587486355,-165.679769578683,671.134763952144,-88.9088904549683,478.013808504913,-8.98000659708086,326.322049644665,-41.4470473678239,2175.37206532141,-172.583907355888,284.750231426149,-42.9508651865609,722.163426910889,-79.9473462534121,1856.35706646164,143.879222358274,544.794558910342,-77.2882983547126,376.377887110707,-31.9958086850016,873.246099660428,44.5280993732954,641.130456963808,-25.5267889655227,597.411247772798,-69.2638322732401
598.957709918803,-66.7358600339538,1603.06637706877,-216.629493268664,1405.90543540195,-158.617766842834,672.622069274388,-89.6491088975808,481.589826748607,-9.28944600996458,325.684691751777,-41.4318053883872,2186.88979712506,-174.724156569537,285.133544459017,-42.5887774718839,726.875574684151,-79.3651284666294,1868.71252087435,142.037456124408,558.532857812825,-80.9814332078585,387.383551254973,-33.2938502374055,885.836809741853,44.8823985768779,650.922473548382,-26.5086441402103,604.714152761408,-71.329646533292
605.851518546915,-64.3140956473358,1603.34169815855,-216.720275626263,1405.66646623394,-158.267004232852,672.901734117461,-89.7629185828982,474.634467721333,-8.19235976523173,326.66951285408,-42.2215680109078,2166.16199025624,-169.251447274439,283.428188290311,-42.036582023375,717.324412943304,-78.7773889393126,1849.10872358441,144.605118293635,541.892869369379,-77.8666603977126,369.218203181028,-30.9386666704792,866.282389755249,46.8905172054472,636.800658612334,-24.8732702186946,595.652595616505,-69.5160603827249
591.596771857403,-63.2701829891847,1604.69322771874,-227.566404915113,1384.33621600355,-149.438277838086,667.852779142651,-88.2818178036686,474.946526954984,-8.00503592463726,323.028021684622,-40.0201841587685,2158.21558066921,-167.478141092497,283.630073697568,-42.3769210152131,716.278775729427,-78.2282778633254,1850.79623551553,143.217368237225,546.718321922509,-78.6967840837704,375.474439396743,-31.5732427420435,874.484064998016,44.086076979345,639.558934881658,-24.5813200453701,599.522469457027,-70.5023168146883
595.95742070306,-62.1363177952247,1608.21842460428,-216.259878211545,1411.03786415134,-160.89243952709,673.112058030895,-88.4570123640713,483.804040084674,-9.5337943998019,326.360685442351,-41.1606275494935,2185.35910337784,-170.990972916022,286.049501121041,-42.774820067197,732.922206370057,-82.2239962653111,1873.54923021486,143.640190359263,563.986642065349,-81.7549574427172,391.667489108929,-34.2252172789713,893.748528002092,42.027678625957,655.53661007878,-27.7490474996442,607.28231950206,-71.4937365544114
583.456030696139,-60.0795185496246,1568.36163531763,-204.421796954411,1395.58545035506,-157.265732026725,666.341183035062,-87.1326567924046,471.480489666506,-7.68662125086279,324.931699277359,-41.7439968926347,2157.11149027451,-166.553290041545,282.237122783264,-41.7811744063381,713.759702848115,-77.5884660093967,1847.91452216478,142.821739380647,545.900540767097,-76.7911543848831,373.849148094508,-31.2982992529833,874.093779683359,44.0482175260257,640.060635256786,-24.5600219599001,599.364530086354,-70.6479478163887
582.049964818184,-58.9825502953458,1597.89246641852,-218.278500521261,1403.53301394344,-169.858240412948,670.090527420541,-89.5006910243737,475.607487045489,-8.13182167551315,324.451243615172,-40.874452110836,2165.12158226188,-167.527388191133,283.206487959886,-42.0290115242824,718.755083976788,-78.6195705563717,1853.53371395615,146.588186059403,554.736427045688,-80.3835293288628,379.793169182512,-32.2578015138185,879.500353881165,43.2296469756005,645.029168701843,-25.6710844639426,602.641158954127,-70.9019374631771
598.766759595928,-62.448050128568,1608.99108442499,-217.315543135861,1399.5341435129,-147.767756028053,674.215797412161,-88.664073558454,474.995395433233,-8.37628185734141,326.645253961721,-41.8667359953477,2158.32736250615,-166.319410562663,282.91446666079,-41.729477972448,716.001462096361,-78.1292095938042,1841.69115476839,143.776234122968,539.052188937191,-77.8509012649925,365.208281430024,-30.5757082247347,863.794672292648,44.7056163320139,631.473279285228,-23.4453750053849,595.201268596212,-69.6291688506136
575.190728911939,-53.5832997082876,1585.19892108025,-218.040708213197,1392.22051534167,-160.52354808523,665.905750349925,-87.6550317453383,470.699402772325,-8.05767441054849,323.473620321662,-40.7908062725835,2148.08814626335,-165.224305762803,281.545734019844,-42.0891076266417,708.68712753021,-75.5805012920118,1838.92399379822,144.918617664433,541.627697687039,-78.0320513814383,369.194020485352,-30.6663876948425,865.576375965487,46.0630981248339,634.464787574139,-24.2989804699609,596.87882825138,-69.7402233719459
572.772190323876,-46.8846644901776,1586.11866031265,-214.266613258213,1392.11839497157,-151.934061357618,671.2719545263,-89.2032275558829,475.859626682701,-8.40290852827206,326.611689698629,-41.5277935760476,2170.86064260107,-170.115030588435,283.500923109823,-42.2018855683916,720.998397740596,-78.1390159963186,1859.35439035596,142.945165645864,556.99924040096,-80.7194501836471,382.600828753942,-32.2584311887472,882.899552264831,44.8535196191313,647.009595216686,-25.5530777572689,605.503871705378,-71.5192474341628
571.29012820321,-47.9796421738341,1562.65311417577,-214.897997881596,1373.65495468021,-155.099636993132,662.91946783113,-87.8512786461808,463.4927027989,-6.84734260634752,323.537177026191,-41.8553038159023,2131.2983686745,-162.139419406462,279.863317365904,-41.3577622407185,701.833917356007,-74.6860417566918,1823.8576898462,148.016739374509,536.891803373728,-77.0819939920872,364.788269842875,-29.982604411705,860.136337971735,47.3436244633972,629.982611106544,-23.3233655212694,593.975024169021,-68.9864706746957
580.049633506214,-54.3155625203115,1557.03089009467,-205.461331981219,1376.67021931861,-153.422714945612,661.134459971774,-87.7893712258564,467.167414240516,-8.01917433952825,321.814101668968,-40.6258557661725,2144.26857378922,-164.350733425424,279.916618756509,-41.3435153057973,708.396651667831,-76.6829131763299,1830.84751828153,145.917945630391,545.366770092424,-78.8449869186121,370.376516671944,-30.3705936646351,868.524981123106,45.8104889808974,635.001718223304,-24.416598067019,598.740654860584,-70.4028517513361
591.600341333052,-56.6271955959535,1586.55629673078,-211.104038973135,1376.65495250759,-146.485107917187,669.424105287435,-88.3753200120207,475.404947011599,-8.2211830124523,326.45747379705,-42.2031356259785,2170.18578299788,-170.52997437441,282.660884018012,-42.0473950355311,716.626925964292,-77.0556595261219,1847.74844638796,144.807952863975,539.669636282344,-77.0196949148272,363.89327634766,-29.6231482255599,855.314528270537,47.4053363175267,626.557084152652,-22.9416978660305,592.91691223406,-69.1528577075629
577.707321993631,-61.9307442429154,1535.72565474302,-200.178629443352,1360.68289533738,-149.156661496709,653.826342598138,-85.0097196502704,461.774024231397,-6.85283813702328,320.612449264875,-39.6520457448548,2125.53651261231,-157.9295424338,278.536115362334,-40.9076296079613,702.544746259291,-76.6089732520124,1817.14566614428,145.455343828032,533.435306099493,-75.9889753964436,361.239624718253,-29.341886415521,854.38074150991,47.8565277942606,625.464459049336,-22.8643060114403,591.406200393915,-68.9719516415139
581.503546320502,-56.5076926948037,1558.58210012312,-208.161664083243,1370.96699779713,-152.547983567755,656.006730367243,-84.6621747560015,465.446604230554,-7.03889136620869,321.454066658371,-39.1518685447205,2145.44445038021,-164.228314378779,280.154159815729,-41.5282995595541,709.505081937176,-77.2457407295968,1825.29320965645,147.424426688399,547.534926042582,-78.6324283556708,372.825240415566,-30.8185139901432,872.030549264441,45.299926779886,636.318605394745,-24.9163557120423,598.271688128754,-69.7666452892757
580.823831817291,-60.4394911745472,1568.63877603904,-219.244864467558,1369.22498692292,-150.252694971409,658.411120664755,-87.2317753882189,458.090173134678,-5.97004268772933,322.840755542553,-41.9167237184512,2124.08878349703,-157.577549535904,278.503348595374,-40.9382246219063,701.141382697926,-75.8743442230814,1808.88661532905,148.207617655088,533.181632186686,-75.9074338025983,357.934250248094,-28.3869027412952,851.64401144413,47.9475907591048,622.155993923825,-22.5224796310632,590.202135441564,-68.669851534846
572.038318227055,-53.6459782086625,1553.64900495835,-199.56025725376,1366.76518879588,-152.101379423926,657.002047003765,-85.1276863248712,460.656905080022,-6.28330102408833,322.087608131849,-40.8800482556799,2135.85494654125,-163.149880491399,278.788179951674,-41.1956254083423,703.764274640911,-75.4643852419018,1812.99803933114,151.426669124359,537.045485909066,-76.346844286513,364.365776948762,-29.8935056823442,860.422067157773,46.5257390827287,627.371250258467,-22.8479317326986,591.336783593224,-67.9011295398535
575.525814019752,-52.8908530675885,1582.3030326941,-213.243260995577,1388.24166389677,-162.038583985593,664.265348571551,-88.9319673104034,468.475413444783,-7.04299440493894,324.199562946747,-40.389542546797,2164.59420075808,-164.576254408009,282.598095571876,-42.1400242432293,716.830305830639,-77.3184754323782,1846.83405075658,144.064782066719,556.209446706343,-80.2165629798181,381.722422447329,-32.9234036843013,880.903898451786,45.8543736357767,643.024428657653,-25.5799350586429,601.842474093682,-70.6065168519338
576.675669791125,-55.0411014911541,1575.7514934191,-216.309527521905,1370.26515974213,-149.77726154554,657.852989237724,-85.97432174542,459.789094758158,-6.36671557243716,325.169860584336,-42.740650533711,2147.63308042999,-165.511359783827,279.951265428494,-41.4354503124982,706.682123445836,-75.9389094181649,1826.22279926997,145.351225130301,540.175582261138,-78.0868323131063,364.605652677806,-30.0835517336542,861.618569985208,47.4512840160323,629.241428721229,-24.1223585638581,591.727611148244,-68.9081947737161
583.928335341109,-64.5638556071325,1577.57257099589,-211.342004071718,1376.89197903368,-151.08416225763,661.009173189635,-86.8039644288519,463.097235315425,-6.45394168234965,326.288554055896,-42.2876890685277,2156.23294115947,-166.52493659335,281.269050434665,-41.5224263900797,710.709836470751,-77.2753754530719,1836.76630953293,143.315706198372,546.107787654811,-77.0794092513952,372.637397068735,-31.2295398976116,871.488232429264,46.3591905479644,636.355978059905,-25.1420878936387,595.758355478928,-69.5986543459679
589.111766221774,-58.8263847725957,1577.3259694933,-204.243746481157,1397.53239638944,-166.660548697091,672.1247513451,-88.3871913606002,473.352612601059,-8.26859372313923,326.557713147647,-41.3008277188036,2186.93544014807,-167.676600778705,285.258102408191,-42.5335293246431,724.237508850224,-79.0392196298802,1865.28863540499,144.668370474762,555.049954214887,-79.8459658229139,376.371469385192,-32.0103419974078,878.330880760906,45.5543784163042,635.017869871272,-24.0930396321793,594.546095702439,-69.3644968998631
582.698022196296,-62.0463095125609,1575.60293946154,-206.724451260952,1378.70687590212,-153.968209704313,660.986423278346,-86.6817898460226,461.888969607174,-6.4565082628632,324.498890959262,-40.5152458487961,2160.46455666281,-167.771799293551,282.065771531483,-41.9163216528082,711.231883466512,-77.4028646723127,1842.54781714929,146.078859840116,546.748623626922,-78.7423434204777,368.381950678237,-30.2596998817338,874.880955627672,45.730324804294,632.585947023444,-24.5975405916811,591.586778920481,-68.6370386477841
584.284071544982,-58.125513785029,1579.04208659101,-208.297362515278,1375.9347803182,-145.283507575212,669.301472172549,-88.284926641772,467.83773911338,-7.07441667961682,326.924602052356,-41.8556420561843,2182.04850239337,-172.427502726012,284.514127548404,-42.26024153298,720.9472700836,-79.7383571616023,1856.7713448126,146.073591438045,554.97919240299,-78.8233263304193,380.047526266224,-32.5954383441383,891.496854045857,43.6095291987058,644.243891863313,-25.6110564552848,598.104888200315,-69.5549777698292
592.497584052323,-61.8150187577155,1618.38517205378,-224.77017936204,1405.88064027505,-161.836030734428,674.037623325515,-90.3591833247308,466.911005245357,-7.6557050394414,328.196073117492,-41.0767880034689,2172.14433062465,-169.34484184828,284.540938916064,-42.4578927722286,715.337155680837,-77.4914720807206,1853.12382054515,144.180875049995,541.951533800305,-77.0013674800097,365.48641243406,-30.2200519329126,876.826370657132,44.144728971735,633.077520636512,-23.9601492779157,590.949197545545,-68.6228104247419
586.609342685295,-63.0039885846393,1591.62417565082,-215.965471270985,1401.75120934622,-166.365712646261,666.461662757155,-86.8953884208079,466.28405766632,-7.21520369569722,326.002800895905,-40.901066617987,2170.06028545066,-168.165431981432,284.316839295024,-42.3690704908164,713.080881156628,-76.7595541053778,1855.54053231758,145.494132922248,550.625428692432,-79.4671217427224,372.311643061727,-31.3413413298897,883.862299349681,45.2652249066189,638.865729275047,-24.6556225061424,592.908089803719,-68.6533950619194
584.637640370058,-58.2548918109523,1619.78394592517,-226.436606180507,1385.67313573074,-152.017913465245,672.794839786936,-89.1446682648788,474.520366124238,-8.0082533526687,329.394514150326,-42.1414146853024,2193.36926982958,-172.468116756314,287.192574271851,-42.9154363959938,730.232847898268,-81.0884453855689,1882.76223376122,141.619917946253,570.262941464333,-83.6206856495298,390.033928886039,-34.2681168188817,908.978558183703,39.1646400612111,655.554755617259,-27.2680408422004,602.773161011842,-70.7577707921881
577.255394233647,-60.4308193660311,1597.22645686799,-212.723569164976,1395.61963596714,-158.321795459717,669.886467021494,-87.8507266069079,466.857400511276,-6.85380445608627,326.067186502931,-40.5909327777563,2168.11165001073,-167.585774148694,284.893599692034,-42.2913622419457,714.640109513153,-78.6530373156089,1859.02447853576,142.69250538517,549.136615967058,-80.0784947668805,371.716805135958,-31.1467925294143,887.478185296824,42.5123655657632,639.905731570776,-24.6093717084693,591.939628297779,-68.842064593631
579.027928763424,-53.4876696045856,1607.42715806616,-224.218034077487,1412.88072618932,-169.333417766419,670.352761156117,-89.6004810268239,471.735473684603,-8.05107132117238,326.821334608841,-40.8426932298372,2180.2155084934,-171.207924088181,286.123856646305,-42.7417230939625,722.827962957784,-79.9662325473924,1870.70734108673,144.355824607848,559.347915558867,-81.2419609598174,381.369294576136,-32.895891859595,897.633572479365,44.7965703911687,647.891430865123,-26.0521661337534,596.093408198591,-69.5610729036375
585.701212600737,-58.2872274795171,1616.10879071529,-216.026299933113,1417.0312118713,-163.741054862019,675.37471060342,-88.6818348099218,482.745754762295,-9.416903876103,328.819619483732,-41.054111151991,2212.18853664483,-175.140611456033,289.289439026079,-43.4678041677667,739.648189839674,-83.3787573543481,1903.85672163223,139.775595493083,581.887789178273,-86.4489422028597,400.67546047838,-36.4704335534705,923.328741697675,39.091119359977,663.773025040718,-28.5165816441982,605.612529686163,-71.9954528073042
586.508185706966,-55.0955156336026,1597.89252436038,-209.338541138852,1407.23330133683,-163.524137277972,672.465011324334,-89.1005118009349,473.796555665741,-8.07906321770928,328.551702785739,-42.0819673521862,2183.70903061721,-172.02488278005,285.391291871517,-42.2273787775996,723.96025829833,-80.4217955977542,1878.93582557221,138.15631604357,562.55791332574,-83.138645780087,382.981423859245,-33.2912206755824,899.642119557072,42.8062490527399,651.482676245653,-26.4938276652277,594.742202837115,-69.2591436736268
586.135033342633,-53.6844156650891,1609.88805982826,-209.947268501167,1399.98791852877,-159.988311654276,674.371276212694,-89.6812921750552,479.666930296669,-9.00550907684421,327.6527283071,-40.8373733216838,2194.94710069704,-171.589705189044,287.528831280026,-43.0552791787461,729.427862171059,-80.0164879549669,1881.74991071796,143.724645118455,570.058629176268,-84.0445721639532,391.488168103701,-34.3414381773041,911.858140792099,39.7843693709736,657.985747015854,-27.546590080365,599.541876170266,-70.2485907931169
603.743475314809,-61.5916263804283,1652.24405195722,-226.173751734643,1416.37057961622,-157.867735287357,677.953857870043,-90.068791468197,481.191983996161,-8.70004100627216,329.83954028041,-42.2425667031101,2196.99726246568,-175.686453847497,287.723389703867,-43.1064305585146,726.939126009334,-79.3090650329723,1876.71894864745,142.704953014364,560.373923483788,-83.0406537192919,378.705554937255,-32.5960251487445,902.003204324223,38.5731540835361,646.911025815959,-26.1090097239294,593.316827370649,-69.2736316383255
591.893129180983,-58.8309249686817,1633.80141217096,-224.905425366727,1403.49791237881,-155.688211606913,670.391235588897,-88.8763668831236,480.057618759785,-8.53991970169331,326.409007329927,-40.8285795019608,2180.05888301163,-168.275058207028,285.698598200509,-42.264304762855,725.880173143602,-80.4055301314462,1874.72685348755,144.067580683779,565.891910544384,-83.7914719170019,386.564617122806,-33.5797870970781,904.801748062961,40.0129484859524,652.754861264769,-27.0557158761298,595.08906600762,-69.8794343914335
