-0.154801492389131,4.65997885440833,37.3721062848053,-0.608341992157001,14.1305735706686,-3.00548267885509,552.258698189695,-1.5892462188414,934.519900858196,-55.6900977904373,1.7412424351983,1.82388759962512,104.399156057361,-14.3280179248985,119.711969938266,-26.4038242306048,24.4884383560017,-4.10952428379744,675.760363186395,208.093326396828,272.142463247254,-33.1504404872197,1935.8236903792,-334.463754178476,205.613608216841,-5.81638095090326,809.820340605431,-43.5193945316572,576.40874443559,-68.7142298931915
2.90723722732024,-0.010214591393699,37.7029424138528,4.39485421359017,3.55159639533864,5.63654115381124,560.229402297855,1.4022106386296,953.901722891212,-59.1770794883727,-2.04552771610205,3.88775646557862,100.610003579992,-10.2234323752188,118.829278624575,-30.071565125297,27.0918053167009,-3.40518336791291,685.676283638971,207.843442394797,274.469486634448,-33.9668616913968,1940.08149264956,-341.111192261714,205.599738467694,-5.8458610589229,814.172585622964,-45.3899463048195,568.889794108698,-67.1185441480509
1.71030105699799,1.31324248336263,40.8354248934727,-4.63920337924876,2.57521469761641,6.97092143953505,535.893082839907,9.99645542633495,928.920508088261,-53.9669990275991,2.80690094659324,1.56832568596689,99.9073314709707,-13.992303304197,110.609422114074,-23.6323358142797,21.9428760651303,-5.90121598400624,662.226895685046,209.947026562057,270.334410055188,-33.0875261042301,1912.80284294805,-328.683116335142,203.086050103231,-5.22435797913691,809.404832684926,-43.095874792287,564.163234054101,-66.6393351836156
7.90267192425533,-0.292703167097948,31.7291225442491,1.42573101755318,15.1131489841759,-3.70739744696448,551.909186215888,-0.319998023248986,936.57369222376,-55.5471515529516,5.07219272581298,-0.657223745263482,113.393750167753,-25.4697841506621,107.8955960612,-23.0044672764617,25.388661454415,-4.83713471997268,672.206052237063,210.01890799423,269.940463687422,-32.3927865739088,1945.8205733129,-344.008675578846,205.976971095285,-5.5065947218172,814.69957024261,-44.5020667000078,578.920633515762,-69.4874115861791
2.04021816396166,1.77185848812168,35.492752442877,4.57711036910819,9.77680206039916,-1.7130713901519,559.672500560565,1.79288860952068,957.845719873057,-61.0193027060845,1.41532460579027,1.80606798122453,110.562987761917,-19.365878188378,111.445984169584,-19.1575974394365,24.8484270648818,-3.19568691568007,677.469515102188,211.03638825288,273.162768641962,-33.1880807592772,1950.28861401523,-345.301435616735,204.567631783069,-5.41973821068824,816.877679007147,-44.7267798240004,566.528315299552,-67.4580232950193
12.1390925024728,-4.06667867491885,40.879690323959,-0.991502879883393,9.12517920409581,-2.4484272461676,554.4507052113,-0.557393274839874,928.341625355749,-51.3074367525858,0.796371683692506,1.79714758865257,105.380401368858,-15.556854030231,127.836941409571,-31.6455268283229,21.4301085781917,-5.79383987463634,666.448251361177,208.071393080873,269.656197563704,-33.0262450782681,1901.47043050565,-326.331670951119,204.022367845779,-5.18457680844245,807.828103081892,-43.7311152173213,565.540416541883,-68.25735459922
5.6477359924621,-0.0842026782952123,39.8905222084811,-0.947125210686427,0.401442157317235,1.14107376084264,560.839621418312,-2.42391652204314,940.986974783892,-57.6471998213381,1.53647758821407,2.59131738369818,95.0261971820815,-10.6015772370799,108.233983344834,-20.9668212974082,27.9769005949796,-5.34366130168533,673.167682171371,208.835169596026,272.069258879376,-32.0085988088929,1944.56413741399,-336.787137523143,206.530683036405,-5.93287031199364,819.09315347929,-46.8530844730427,582.616245696549,-70.4989609616226
3.37579804042131,2.47857904302389,38.7479280438287,-0.742644466010157,8.65925100675582,2.1637974020423,571.681154290165,-10.1889794010324,958.060385809698,-58.2913267319238,2.42895951684408,1.39651587188869,109.835217031242,-20.6215637306329,125.235224237014,-30.1792325370814,23.9218062751868,-6.33645361564761,680.762238295108,211.984700352777,275.53751857995,-33.7484601213193,1955.17450020659,-338.996795732205,206.31666356186,-5.26321790359052,817.30792672756,-45.5644864062141,570.216680500795,-66.714932113261
3.27780497257425,-0.065354576021488,42.0474048298266,-4.70740443682904,6.84600939839678,-1.83335724001529,557.204020161803,-0.541664607489601,922.368845825578,-51.9711550732489,6.63953875930978,-0.416611966550875,105.346522227962,-18.680916935469,123.128503099236,-26.6041612042695,21.2329339500401,-5.6963223363199,657.608654065033,209.340722971951,268.460022562942,-31.939917675581,1914.51146504261,-335.102744801026,202.759225462593,-5.37705471478609,811.024439376929,-45.6156899549098,558.889372670106,-63.9239442768625
1.49912270230418,2.73658953733994,30.8039087072125,2.51508369330899,8.92238208990086,-3.00315422790511,549.37421660996,3.18826219723517,930.04188906662,-52.6191257196786,2.59734845594199,2.13502889131549,102.695600595871,-18.8309993192631,119.529505204723,-24.5282330122464,24.2404840692189,-6.4315087561583,666.466989045813,211.282832606216,270.904153110143,-32.2142661759764,1925.67361417614,-334.494593231719,204.486743577697,-5.17030034563263,813.743539254596,-44.4081916159835,577.452552477477,-68.1278106753198
-1.07667422362248,3.485657759972,39.4628933552952,-2.50318424192381,8.58937624459672,-0.754247014803342,563.457197730291,-7.41364007577532,951.900389557472,-56.2516341414462,4.12015180628864,0.688416255524433,98.1693991870017,-11.7479427547284,129.930508796314,-33.354357933822,19.8781206589967,0.20539245588993,680.834506331252,211.238383565298,276.506798252717,-34.1727176456909,1957.48174474254,-342.397029152099,206.824438279513,-5.92139320486128,822.216455445002,-48.8733342244452,573.075139835073,-68.3013217570537
-0.327315781957551,3.14712750559326,36.8207768831336,-1.61324824090061,6.65599566347392,0.187012115772983,555.402453895585,-4.72726421662194,919.799140851308,-52.6380521037418,3.76846777293609,2.30142023291032,95.2126399763623,-9.77890406583095,117.827864549174,-28.1044020878765,21.2149216202009,-2.78117793990954,652.944974628482,209.465697147248,268.563902120103,-32.1045974617751,1911.06647784032,-332.779181237168,202.62711724479,-4.5120261844803,806.077731409688,-43.7927651986925,562.876731079448,-66.3936378520369
4.76521039755224,2.33403605967265,38.9550406635635,-0.41584194658151,5.0392883863442,-0.236009068930991,552.612763713981,-13.7976208958697,929.136611091859,-54.0170747502843,2.53452473221529,1.77254135645065,106.770153183563,-19.1487576922518,123.756869362264,-28.5660863779201,15.3116872054848,0.00869611061499768,664.172460444382,209.283301152146,269.200263529588,-31.5487421379639,1927.10528302638,-333.942763163055,204.287964621043,-4.81497418651343,812.35874197522,-44.4647689732645,573.816342103316,-68.0586711928227
3.24386425688045,0.510290619856222,42.9786486998013,-6.25518427019973,4.29932542441995,1.81326684400845,569.292201759792,-7.79141412866056,948.435007555472,-56.997480311909,0.423008111665504,3.3977527719816,109.94933533715,-21.4329011940022,133.932896938138,-34.6580082387773,22.9235064173748,-4.15779108652768,680.423852827412,208.579797152567,274.699250378484,-33.662975091273,1966.6005944998,-347.452263728636,207.63407747663,-6.25141899695972,818.80582625587,-45.9486632040899,574.74596041643,-65.7096160806867
4.08981537367249,-1.39113262349117,26.7899379411021,5.53280526606905,7.56723465948125,-0.165404090957187,548.129078991165,-4.37632444777171,918.34842465403,-50.9402554130736,-0.66466439432883,2.94480092804524,100.072757485477,-12.6235903331881,115.771623177602,-20.9561958776661,32.1210027552029,-9.25534794651268,654.031669115093,209.911862800307,266.90888585127,-30.461252389648,1905.83437516735,-333.324699811338,201.679765515693,-4.7868240064622,804.128483721336,-42.010328868066,563.52605981793,-67.0697168286125
-0.25023673137365,2.05877010087135,32.6534172971103,0.505800140709839,2.082554278949,0.506251012397895,542.609713288144,0.546939309353149,923.305775744846,-50.5934354850592,4.4607455266189,0.0373030711090994,116.093154224902,-21.2308505309158,114.689003345462,-24.1175705868599,24.6453060699445,-6.16753787265551,663.740967479224,208.44337711338,267.87393779604,-31.2979279972355,1912.28539250246,-322.324133265172,203.226952389245,-4.69365370511184,809.048192975211,-41.9314534818677,571.685797604459,-65.9352424868402
1.43289361222692,4.13477164522545,36.584850239651,1.78449811341359,3.08387997033039,2.91967263291139,563.912698462054,-1.58122745885753,946.827481359652,-55.3007091082599,5.60548376929378,0.115345708936547,112.403682930351,-22.9367995843562,109.782036528679,-19.9171048638534,29.8905599919766,-7.02706586733969,677.365735455933,209.934235922315,275.030502412115,-32.8303787666061,1943.82935871348,-340.917226989132,204.607909006621,-4.11128635286717,818.389369874534,-45.8495623096637,583.320599496512,-68.9453846617813
7.78927478576331,2.55311598717123,29.2156611897431,0.664212317670046,11.1857659136765,0.236580360886697,535.14213230307,6.17499500088731,916.364201651641,-48.8827011890804,0.921944098247936,3.58004995905359,99.3767501204773,-11.4426549146588,123.985446192554,-32.7924643937689,18.05210251334,-3.4026183434729,651.656978790506,208.459147146012,265.981877558839,-30.6765639605625,1892.23919400241,-318.185975167583,200.601718013941,-4.57141677205958,799.649143843723,-39.6352308075448,562.106651231832,-64.9665196446995
7.06225889038028,-1.97249141876565,36.7012975374512,1.87183495573209,-0.556523906821583,5.56159041390384,545.768671649205,0.988179514421284,923.690471235646,-52.372382527265,-0.806899380401343,2.55719659347305,101.079206732135,-12.516205128015,122.656622736134,-29.9460606197024,26.6834822511086,-7.19918206468224,655.950172779821,210.586765500667,267.886850755052,-32.1709431730803,1925.89492032187,-341.512406326505,201.70406525176,-5.5412338087854,809.235432746128,-44.4715777088885,573.586347957308,-69.0922353298886
3.26017939429536,-0.897607530314481,33.7820840673966,4.83546836605542,10.3938066546412,-0.212047892323022,550.77920731169,5.24886063836295,940.668414856875,-52.2794364847048,2.0101678247232,0.812952820975304,112.195166022192,-18.1929549836372,115.447763590384,-23.1162723552272,16.2297325221734,-1.00992754099566,678.007670458225,207.553188123536,271.951786782568,-32.3045227364283,1948.48459341653,-348.753765489495,205.572584443646,-5.67112359258005,816.850933261452,-45.0221910249581,591.972634284602,-72.3631722916435
1.58668703378638,0.49908074315135,26.9938434352573,4.30547365733012,13.5828391526141,-2.20138573869172,548.923243624179,2.58667712126016,916.511190260252,-51.7585024394722,7.14060424427697,-1.86538831388088,101.017982457723,-15.3350363618422,121.208253030932,-31.6179469261721,21.5208857958711,-3.18344505485143,647.829740935871,209.213367354585,263.927687143206,-30.3106776025892,1891.05614449375,-339.791091334291,199.575992997234,-4.70427851677534,800.924305554129,-43.5760647291273,562.189895791956,-65.8834764544109
3.8296145672999,2.37082037257799,35.3542767802815,1.71016146207904,1.09015525438796,2.02563040856246,545.984645940584,2.89644794918762,914.919647647033,-47.1128641034813,1.07566439015355,1.77037700349524,107.643718666185,-20.4606178919551,113.765250113674,-19.3360591744481,27.6240576332553,-7.30584213947271,656.119922166891,209.792919121263,262.433886523556,-29.6797456188991,1896.40561692963,-329.323214486535,199.806609657752,-4.12433905363223,798.690641012984,-41.0531866594464,567.152083069491,-65.709395174634
-3.5614519951161,6.60398521663273,30.5037733909002,4.70519266254428,5.29031464727968,1.35153422748152,547.747707762452,-3.74948913996995,934.143016770049,-52.2812813252184,-2.43031952927739,5.06266487336452,102.332944225329,-16.7190397505754,129.1457836945,-33.8927563420073,21.6729391361848,-4.00312269984202,668.85817689623,209.776126600909,268.808238545858,-32.0286897396122,1934.65926018343,-339.939017157159,203.500495435033,-5.74784708000159,811.642415218576,-44.1169287331168,584.559124495521,-67.1599577507063
-1.42788926238872,4.79163298362516,38.7829390868298,0.406684049105899,3.75581880251539,-0.781346104822925,544.394276555548,0.963947661495321,919.711670200506,-51.0326005055167,3.11315323798693,2.67557962317268,104.484077981649,-17.3799968090628,116.231089449107,-26.2020454129207,27.5789256465907,-7.36606644173249,649.898488886462,208.179696616352,264.130442605034,-30.7761496517816,1878.85373413321,-319.840980966236,198.860296742812,-3.95332881030828,799.475723684451,-42.4984754821608,561.907713694381,-66.2766360006358
1.21754975736036,0.772952577354678,30.8430588149154,0.509715612811336,10.1292336496355,1.19053799048326,546.581385124556,-3.54046074918605,917.590504883108,-50.6526789689901,3.56823233107432,0.168428266479373,110.390230406833,-17.492983338308,114.005245410637,-21.3519828790117,15.2052244132943,-0.562376637492653,652.642376083812,210.452155946407,264.040961918851,-30.830018926389,1891.65553473989,-317.807118112536,199.730767169412,-4.70675572166079,801.72277735913,-44.0147925106299,566.794714329004,-67.5144445741315
-0.228868984566836,5.11148486904031,52.5738427721647,-7.74047654116723,9.12595968725745,1.78830290385269,548.700726587823,0.442231037654198,937.027744321893,-54.3633373543244,5.87257181708111,-0.530256639024587,107.005588277992,-16.1106317444065,118.481458234588,-22.9242960591666,17.1323962016804,4.62238335645482,665.503787670576,213.900434439095,267.173513959515,-31.1835124105206,1926.95594121041,-331.83667992635,202.192680883261,-4.60490812548314,807.182270093724,-42.3433062131367,585.521399087699,-69.5996595027745
3.48289402579538,0.259486426290471,35.1083549204002,1.59736653846958,6.133598317857,1.63167033123329,545.559872849997,-3.38379484161958,923.271635626911,-50.9346802646872,1.08550117442779,1.24596324084778,117.462519068643,-23.374930392566,107.802441436598,-23.8200997335897,26.5599317052553,-8.26166320844332,646.611191771398,211.920433591166,263.580518120683,-30.4770400615949,1876.94313810377,-318.426762751119,196.525920545757,-3.24376623390563,793.166179418636,-38.3533710270203,561.170869219508,-64.7917788449906
1.14860894084303,3.15780733395049,37.8469814024744,-0.037628822137437,1.72126198093939,2.16741822824947,543.015311945679,2.5824377712788,923.886771645916,-52.2564482340835,1.41373684347499,0.390262578204976,102.57479983918,-11.3290521661466,119.531643621912,-32.0655105244453,23.5081929562623,-7.31811371926418,658.592496658942,210.676803588146,261.652575778482,-29.8378243960934,1895.07259135906,-326.861071922364,197.279916652582,-3.08216936914636,800.187450127812,-42.566986080438,568.597139615884,-65.4208178536857
1.58875757168573,4.77466554455668,37.4983061465802,3.74957456136938,3.89578521382484,-0.143196447531792,551.937606616714,-1.5606943247096,940.970057590929,-52.8013851104208,3.44195594484508,-0.304051074096032,99.814232175224,-14.0178728591549,118.10711862486,-22.7971850208634,28.8309423280124,-4.55642500481133,672.527661364252,211.441650034452,267.31459558603,-30.4712317581584,1938.94457444233,-336.035337060027,204.115896033599,-5.16296781917173,815.54834889115,-45.7140948209779,590.853452311676,-71.1006731834173
0.123071189345471,2.37174812714628,27.9378388169922,7.11178644818714,8.86510670160243,4.05493331114879,556.694459810037,0.406680988404172,946.45327693098,-53.5030404521987,7.52375448884792,-2.56427654840397,111.416307791328,-16.5873076130963,112.774688014027,-20.9570975755051,23.0274607965425,-2.50275508824826,653.817983403348,210.287284845531,263.217837914243,-29.2970199755502,1897.71604886812,-330.215438193012,198.419594304082,-3.73482609721101,800.525777214015,-40.5050783901229,563.596564545521,-67.4435207098579
9.44731199700505,-1.45763204955638,31.2310109360786,0.880652058290204,13.3475803049138,-2.64276418141077,553.415588212668,-2.92991616484916,921.107972605977,-47.6131839782512,3.05645190710409,0.00197427987654921,109.0035554949,-20.3320303813816,116.019826417044,-24.1177366388659,14.7039577459151,1.03793263904093,651.924724213376,213.369325959371,261.779963512282,-30.3347779522018,1889.58847979835,-325.785627283762,197.373104862868,-3.56527181108105,801.397880966098,-42.1434581492864,569.048507468388,-67.5933155736297
4.40673536882898,0.322349163222328,30.7459387793464,4.15862453282314,7.46346541525978,-0.192548730236229,548.100409393579,7.26606222603831,939.225561857388,-54.0210512732004,0.457780837584762,4.66265426154339,103.91205090116,-18.1113670073547,121.893824422715,-31.102175489613,19.397114430574,-5.19443362325379,668.193071651408,210.918767536617,264.340081490917,-30.4160088109458,1934.79577067702,-349.960820926108,200.360876424272,-4.82047266810383,809.386938022483,-42.0124543622747,587.814370242209,-70.309008712759
1.23716475506638,1.30766689142363,26.4162881725123,5.2027689762621,0.514930457779873,1.92586053435399,560.163628627076,-1.3330373909186,959.934843888076,-56.2104592425457,8.35135900651643,-1.0067719857977,116.34395569017,-20.5939800111946,118.487293182108,-28.9183080404032,25.8308659977496,-7.30169880292,675.268018530444,215.429917380893,270.156608777277,-31.7426406128602,1937.67623836447,-340.506949264363,200.920397340071,-4.05762210406499,811.153321126663,-44.3467581707002,577.00947348153,-68.4552615219843
1.68779582960972,1.76102728212604,31.8624179081484,1.22992485774304,10.5336282238378,-1.96924495761631,537.928262142998,13.0973763293221,925.797707925367,-51.1516652471073,6.34394066477997,-1.97954376766552,101.218257613144,-12.7256046148559,124.26964531334,-33.2857716387473,25.3935717582905,-2.55777600634564,655.930477926706,209.73312812924,258.74935224723,-28.5869811365309,1886.76928415079,-324.199365549156,197.262008274072,-4.5806395085893,799.743701876561,-42.277064738302,568.268405618022,-68.3009048454237
3.8857728022237,1.32115037867654,43.3704262750491,-2.60127249427654,3.02043180984173,4.07731635321509,552.307779255757,0.420071001475477,926.764028956996,-48.9322291310101,4.0485182744645,3.80042419310137,108.643924035674,-15.0035537496557,117.447391807239,-26.3513733371077,20.0012307655447,-2.60189797588476,660.40504794281,213.054267226632,260.935900377436,-29.517704683771,1897.75351942507,-314.689213891794,197.005136086558,-3.39983995918253,803.796127154919,-42.8762867197852,575.930119110886,-67.9250945341254
2.87958251791602,-0.238332987616346,36.9494318227119,-1.018212509889,8.1615026315647,2.67249561072329,553.176243216241,3.74501550719192,949.243524583256,-53.7422581349794,2.00152070977384,3.13575317507852,98.261313149542,-10.182580309775,118.961411669947,-27.8960436298681,28.0171491402903,-6.14231310117669,678.887767826905,210.687189882093,265.068899136599,-29.7491349816631,1951.51220437142,-339.511930989235,200.448551782896,-3.55604953117894,813.490402915607,-42.8534534944846,602.821275268473,-75.2612888267103
7.06068244184105,-0.278708893622041,40.0922798636258,-0.0646509219533023,11.9593032846032,-2.09773284676764,545.351893239228,6.80123597608472,925.035778617445,-49.4780518907097,1.16821771567873,1.96836943763866,101.761039603424,-15.5286101927194,113.851595368137,-25.7794119739501,30.4580986208892,-8.19254994301833,650.356237596724,211.451051468225,258.034348847607,-28.9821615267651,1888.81169577278,-333.332983886789,195.74065925479,-3.01987896781129,799.416277767394,-41.5881957242241,568.991975471253,-67.3564259285688
2.18207833672112,2.80064448648083,36.7916860217072,-0.693162103011737,-0.795753426235234,4.86373020972603,552.559403503251,-1.9454615242923,925.206351273457,-49.9764576684642,7.43932998383633,-0.308577977694278,100.609433937086,-15.1383048162166,113.552728107475,-19.8174992905949,24.2921860248599,-2.14932649191162,660.259986529964,211.870347234608,255.314961508296,-27.3630494545768,1891.52750188261,-317.036153522999,194.586974144382,-2.9131271909019,801.959985205198,-41.8867836980011,576.687658060208,-67.1224590053678
5.45246445439879,0.132175566261692,39.8185387970599,-1.4124817967561,5.04706669514801,1.19363216754127,555.173458110739,2.65749591345747,947.78335122526,-54.1202677557978,-0.967721777486433,4.44600922281797,102.946905266883,-13.1653384111502,114.252883517024,-23.7991182855372,25.0298356848977,-5.80938973397591,669.921798410251,213.954200115471,261.164235484309,-29.5842935492884,1924.98101808175,-329.160331563104,197.253558375237,-2.92046085893189,808.507765975452,-40.3296472959734,594.131897790207,-71.9909238905563
5.10607571545505,-0.597141047144091,30.0434430222426,3.42775041223919,7.97044213386908,-0.912642638361018,562.481615089855,-5.95832570764632,938.522393860908,-51.1121852238546,1.17125811951694,0.889313023417375,104.200196628234,-14.1988744536676,120.761424882175,-26.817033877404,25.7299737022967,-7.50428292372454,656.87392262513,210.172593897419,257.474242279477,-29.0519422194068,1895.44620982999,-330.828682319744,192.676029117246,-2.21134075470142,801.57738708374,-41.118103523232,567.070577654519,-66.7261062587241
5.61339733033762,1.25264247954372,51.1738060775478,-8.63627267279941,9.24643233440728,-0.491888265808153,562.238876398607,-13.7989845775617,933.347980962034,-51.5302766360329,5.08824396329811,0.642431612573517,106.931509587871,-15.1266154639169,107.315699920657,-21.4742208771642,25.7254094340513,-8.50247703334213,659.207078042433,212.667256987227,258.248189324122,-27.5546552021497,1902.99489343607,-329.110901808136,194.49180913373,-2.54755453610952,803.247285333417,-42.5721469027076,577.685514933774,-69.5124961880666
8.41400137542122,-2.41815353139296,42.097768986525,-1.67781346320871,8.05823971381783,-0.787684023671487,572.714758139133,-2.34657287049537,945.318692255106,-50.746210419854,7.02316081700341,1.23339147815109,115.394281080395,-21.1121920577799,108.291923519562,-15.9271947204721,18.592308924287,-2.68468388846435,672.392539551823,214.531300365587,262.545883111709,-29.7525838901423,1941.65299908541,-336.722884466709,197.707600683281,-2.97773178105899,810.508877797751,-41.6946140638978,598.817894705323,-73.7469428832516
1.57198173863644,1.63205262775422,35.1271705167951,6.45317326675204,7.13865848651325,-0.196324559893507,563.212371829749,-0.0456025063340533,956.437289067237,-53.4329964986276,4.67212037979523,-1.02839028630428,104.298484899205,-16.8133690145258,111.25487730983,-19.2114391888987,24.5865992050989,-6.34104915080751,659.887625071335,212.41200042571,260.050774386636,-29.5682213983289,1900.09265510113,-323.816386662777,196.272694059532,-3.58159396566725,803.797924136849,-42.1410792559735,569.808236658961,-66.8596417973702
9.62009391226718,-2.89397084007503,22.7367282512928,7.21533220976378,6.29958557983547,2.26637977306246,550.687589555062,-1.40995977862605,934.383283808802,-51.0229711251474,6.31666336061598,0.10783963966797,106.615328185426,-16.8743068287777,116.762857076222,-24.8548155906064,23.1113106950288,-6.85317572586288,658.123905325278,214.377967561491,258.65419336452,-28.977534519004,1877.81608865121,-316.825513879418,193.865372585116,-2.35413300877131,800.555308132612,-39.9779293395795,574.870938296745,-67.4152058995056
2.54398599389536,0.774510996545238,40.3189635833421,-2.60023408169249,0.0486373315569791,3.4204835680825,553.041761741427,1.38964924095882,945.122072043397,-53.6341029283858,2.08166571406961,2.84337588062941,102.180103998558,-10.3305416450388,129.064048305481,-33.2661954978197,21.9796903939982,-1.14676989511609,673.859242870873,211.590375917868,259.447706583414,-28.3037781697883,1935.7752023678,-336.576630040301,195.919019166376,-2.52389597372757,808.441521644416,-41.843005453008,598.638749779083,-73.6058318889547
2.22750126383645,-0.0159322698286278,29.4133417788709,3.74729934708755,12.5631886270387,-2.98958258810528,550.465777053263,8.16860358753718,963.144158220406,-55.3828020571453,-0.248264112315553,2.66624615839783,108.174903349873,-13.3324289920412,113.729673048754,-27.8698763967538,21.0931344564907,-3.9195865438049,678.226864772129,213.714257693393,264.416696227903,-29.9317068082307,1937.3259365377,-336.006576261719,196.04551733476,-2.8975075579224,807.86304365631,-40.2582228810593,583.865664658131,-71.0298091716627
3.22881755076875,-0.791803852213639,28.5683238055673,7.21156420783097,0.553051412570977,7.09160544884556,557.734677017151,-4.63516937452126,927.013467841493,-48.3971184980115,7.4485125361455,-0.787366718221706,99.483017645685,-13.6196894192527,115.240574214844,-29.5466938206768,25.2667572364762,-8.32593142770387,655.358190654448,214.487711305009,254.952350120206,-27.223736931351,1876.80597366572,-313.123720507462,191.114101596069,-1.89136967467207,799.777063894707,-40.0621296567343,572.333698508559,-66.7544151295136
2.30064675288966,0.333573543173993,25.3553961430258,5.44303043579197,2.10635100686739,4.12806661294244,547.173364945342,-1.92893150961022,931.90429100045,-50.5278329454884,6.08617570792521,-0.744072175921295,108.262723020725,-20.3439580414862,115.763257499352,-26.9666570960451,28.9155212946608,-6.70499590812821,664.105901597947,213.786788609767,255.611598400512,-27.027103256959,1900.5918984825,-321.634446438254,194.398839830729,-2.57673897773962,805.936156199801,-43.1893397411235,587.382229540818,-70.9678005913742
3.41357612032917,-0.339436027463622,37.9001248932702,-1.57054199303066,12.4566374017432,-3.48463029558201,557.23849317798,1.32670897296232,948.963194397865,-52.0223487158433,6.8307651776726,-1.34467808989723,112.912816000344,-17.7289519641038,113.36946516821,-21.279783521323,28.1199194432846,-9.27947033689517,674.676425124911,213.279522907736,260.739794454992,-28.824557185677,1965.78785495995,-354.110190295695,196.000795055858,-2.04036521507723,811.910375175781,-40.6324024289385,603.254313026624,-74.7581139542244
0.0470741580208302,4.01509787769937,32.1751740665217,6.3714772975087,1.22820929023661,3.47924347246455,549.690873777228,4.77988964193239,919.501229068613,-47.6727644741353,0.784788891109079,1.98516899005582,105.140650023832,-16.9604125648105,114.453215626374,-23.0368561428659,25.0647714460538,-6.71585637169863,644.108214171352,215.941427906618,253.087736678423,-26.4323880086942,1876.71204226047,-315.785667445983,191.164718796103,-2.66528455446699,797.63900259217,-40.1541897150641,570.552880131789,-67.9210056019251
1.59710746704245,1.73407594393317,34.8265515818032,-0.9211813125756,7.4330948641192,-1.66462374746618,546.461037029327,4.7605685456237,917.839849033436,-46.6217073546795,9.61786892910807,-2.62219089617098,98.2282429791189,-16.5212453630458,118.862570415804,-28.6283117087115,21.4717117865224,-4.48103761733983,653.942686420354,213.909526945245,252.439028651476,-26.4842766609623,1875.37082787395,-316.060432627268,188.376495576943,-0.500555206529431,792.571955526955,-37.1787411186449,578.018422648813,-69.1490844859778
7.49706204142341,1.33118367948533,35.5872322337598,1.91849396061411,6.29447216558138,-0.157947382586479,555.574837390762,-4.11055204028668,941.126596158516,-53.1657127548673,0.680245353814689,4.24286215216342,100.951401498288,-15.059254518128,123.916455684907,-27.5522592634024,23.7426918008858,-2.73118957538961,663.726807136743,216.707972773195,255.866946986015,-27.6473928488219,1908.10722023427,-316.832189089005,193.270344857432,-2.01104492672761,801.808540755551,-40.3400838985112,596.530336790812,-73.3256366619947
8.1556233869605,-1.50933657760007,36.1025636608474,0.0108017724880638,8.26139379823901,0.232795693313406,559.875824944347,-7.44318948038791,932.977441260236,-50.4853181786772,9.67232765850299,-2.72231643383052,100.451452233055,-13.7119153577934,116.742090274245,-29.6650894463022,22.6418300619454,-2.78999399540333,648.750079663981,214.070607479638,253.14064696195,-27.2717189059423,1867.51619914055,-316.051811869603,188.600450145383,-0.610942880931978,793.429404307756,-38.8548497653116,564.76276895091,-63.918579480852
-2.02212031464455,5.17613263839387,32.0764775748494,3.45357716895187,4.96251413962072,0.049855590690803,546.308720050425,3.5604582605512,917.604388995759,-44.9784929672476,3.35313218666383,1.40878296176492,106.592364310912,-16.0553383350426,119.197217024903,-27.6387142812409,23.0897868708913,-2.37692735145512,649.67159743768,214.220664505737,250.157696447651,-26.6688252285344,1867.11153542378,-309.113354745524,187.699050749563,-0.774215569088408,791.144145786692,-37.4006212515769,572.611309376854,-65.5508453950768
-0.311162568760826,3.05772699961535,36.3534847817069,3.01092013728188,9.01723714462648,-1.4383556482758,559.102004038135,-4.55718603633605,929.423771729722,-48.5862539141857,8.15926699663529,-1.68097680433768,110.820137594419,-15.6206924376523,113.522621188269,-22.1435686062288,22.186004526862,-5.36823931156282,663.484561881451,213.759065014008,253.515567172434,-26.6949308583783,1905.25377049449,-329.852313454106,192.612088020732,-1.60784592702042,800.39899976362,-38.5501884048193,590.452126177082,-71.7860443777804
6.45888980914341,-0.590675771659626,33.1457394601844,5.88453107874296,14.6776569243778,-2.77694459492837,557.947421823133,2.21103804687371,946.651325664376,-52.247971129211,-0.0498121032755905,1.97808304857124,99.9215875891949,-12.0972409203172,126.976163169305,-26.3115426687321,28.6385606587322,-5.80552819305644,657.805459115256,214.781416404165,253.067039528864,-26.1777267801944,1885.42574450528,-316.25464447247,189.287110289094,-0.387226393570755,793.471840793571,-37.3052994989608,570.653783739011,-67.0030552860883
3.66629339185675,4.48070897967729,40.6733084161277,-2.42653731736166,6.42568375541592,-0.239905683440467,534.817207819022,9.06318990729493,918.585620875858,-46.4699614515279,-1.45469422667234,2.95779709463568,104.034439638543,-18.7116201967808,120.76756362034,-29.8111873999417,18.0855708333572,-3.38957257400924,654.596792336671,212.716110632587,250.453569292253,-25.8672060655677,1900.77674630241,-335.415629890846,189.051385458584,-1.08641986978196,796.190052043178,-39.8717152483216,571.436406572905,-66.6271693595849
-3.4563390568051,7.25929470762558,30.5556024160859,0.129666623889883,5.0672063704681,-0.467922556935562,547.89917042719,1.3803082578776,926.579707963797,-46.8011152316632,8.94446570582773,-0.503477074036755,104.004419060927,-14.8066239777437,110.131293822025,-22.5246227864878,23.8325399054364,-2.51284756250563,658.86868563818,212.705306618323,253.57725302162,-26.7718221564534,1914.34221096667,-328.176282902422,190.603596637897,-1.39925933950696,804.14815448759,-41.5294644745588,592.279980185852,-71.6776219966131
-0.620086806121432,2.7127144737598,31.7428216102748,4.60325961247278,14.1747079069677,-3.80552188250163,559.332945271706,1.54047004317877,945.824456252596,-50.5287196468408,1.79654786425862,0.22947657509006,98.8937272369632,-12.645363323069,109.390364797744,-21.8766087865787,27.0628391202258,-6.572430732796,673.444467787191,214.652744095277,257.081241053275,-26.1249180232545,1939.26599262684,-336.935914745156,194.217380549981,-2.02432183165831,809.046109690521,-40.8666292147668,601.764185166784,-72.9046888705172
2.18977114888509,-0.130601284144953,30.3854469447369,0.789140697215399,5.68976924793054,3.30737795844782,549.938728765119,-0.981872521376868,914.662908974566,-46.3014074862093,3.21093311991331,-0.576750994258986,107.193802468175,-17.8257567389946,112.228656454155,-24.9170526459236,20.6813499057037,-2.98808328343284,647.985112258741,213.897896760901,251.231509705331,-25.6035746156168,1873.15841783253,-316.075972163487,187.724749556153,-0.796032095616377,788.643136491123,-36.340768849655,575.322620544022,-68.7517617630157
5.14321495906753,1.42930834163571,30.8343752983654,2.22723027139594,4.85729616154481,0.537513440700009,553.351546837789,-2.73660725931064,916.400982269135,-44.233854968277,0.729992421736926,3.26796022621827,96.3424942586662,-10.92728456595,127.088994547627,-33.2677188681936,19.8524700297468,-4.3395871135357,653.696521721501,213.278936136116,248.690922927834,-24.6505148996073,1885.07237633637,-318.12134310473,188.172714940426,-0.529989423472428,792.892945636268,-36.7272027563604,579.311768022826,-67.7666386453518
9.6807104407229,-3.02392944909646,41.5665971987378,-6.19026818018839,4.31368125024162,1.21787207842354,549.948217146025,0.616751130719359,936.859420582636,-49.9460895104617,1.62374570194047,0.914999400944864,108.224325394795,-18.2433107316264,126.858147401958,-29.9126465389424,19.8703299376536,-3.01848086488926,666.685654256404,214.94975223877,253.918619306997,-26.4137101121717,1908.7906321075,-320.206914940037,190.068738061599,0.316937931005962,799.968600407873,-38.9633679316125,597.182854727361,-73.0416026498123
0.0392616260868485,3.33316405140617,44.0006766079788,-7.72375370228349,2.96064873765656,3.90160136024097,541.666880967458,4.76595315450004,912.681763540248,-45.4073976642455,2.43396819690075,1.0564605950234,109.690351123501,-17.2113021494337,126.177044908646,-32.7011251565807,20.068126333545,-2.30437759042087,640.941302732044,213.478796221507,247.089531729152,-24.066508025862,1845.67785676496,-303.999885614332,185.91257353259,0.655502659760237,787.665523381272,-35.7618349069975,564.842744763943,-65.4609583338678
8.07321549905272,0.914723627662591,39.3196348567151,1.76480444624477,-1.35981714503165,3.66147586196629,544.158219186717,2.6797563962983,907.150545267319,-44.6376348243101,1.83613055086174,3.19263698039319,102.79157245499,-17.1582740275346,114.178261937728,-27.9304098511947,21.8128192087465,-5.53035561242432,646.196214616877,211.255141730064,243.917100598565,-22.5922389224238,1874.54029035105,-319.001089635928,187.062879050593,-0.427012587169115,790.602358394183,-38.4818757745922,568.993097623743,-65.7156570730943
2.15878248749525,0.718243837705751,41.0845107397356,-3.49188908404051,9.38386674623027,-1.20045322579862,542.287604054136,3.65865141149557,920.359122606531,-45.4763545088707,1.27383688272678,2.73829839406141,108.703438530658,-18.2990008662264,113.663631144846,-21.9274528747039,26.5365908808343,-5.83914205046943,653.146820592253,216.519828215789,249.462607195361,-24.8629912695754,1894.65286722698,-322.084456487192,189.129469796797,-0.0751056557332555,796.391268516802,-38.0442085557189,585.186346007092,-69.9259642422347
4.12621460271414,1.57531320694104,38.0247339748582,2.1366095744909,9.12419456507424,0.781397092799932,542.320907949075,3.64416483250953,935.299890745751,-49.4718787915035,3.50634971496432,-0.389632065820751,102.952499681665,-13.1644154455666,115.817820187184,-23.2200480424105,26.009366273025,-7.49993155443198,645.789325105745,216.006849125033,247.844722730022,-24.5983024983504,1865.16723015388,-317.788740943246,185.712311102361,0.39118147377629,785.842615243449,-34.28892285135,562.759237139825,-65.9870427859787
-1.17083887394584,4.14518293690378,41.6042176735072,-1.74022005614191,4.92527303336084,1.44248204860165,551.721734953443,-10.3088534492302,901.543716541316,-43.9216657450799,2.36638913551627,1.21995444464432,97.672615990923,-13.6613725627169,112.463880545291,-25.356323187114,18.5630481808194,-2.03424012903206,640.28643094243,213.78741737155,243.875913507932,-23.7113382617056,1868.43783805398,-316.925751793099,185.968001414282,0.649891619459335,787.378593644929,-36.0078231794722,561.567930455496,-63.294021187067
-0.871635161280134,3.04432486651242,26.2998190658219,4.12127200856781,9.24743968913914,1.40430814336296,541.432014706832,-1.46616372061507,908.314348165151,-42.7403682295653,2.27002760071256,1.20380614374373,99.3986041622782,-12.7370777450853,113.29681092073,-27.2132585034946,24.389788285739,-3.38301729774597,653.137702363039,213.364680593153,249.004147960229,-25.5338987190159,1899.84243511277,-328.937930159816,187.399772202587,0.397357819081442,791.321899403776,-35.7895250394785,579.844808548395,-69.5280436794174
7.07160066278518,-1.30340837558402,37.6275896429718,-3.93327314208456,11.889921546722,-2.63996301526063,556.007737501131,-3.34158498390227,931.169913368566,-49.3034968767857,2.81271788836467,-0.265574852274063,104.825151872222,-19.4832461456772,121.360244238432,-29.7437381112137,27.8814342338216,-5.33486299204704,664.785764748889,214.337074869201,252.090890697089,-25.2813039588496,1916.36929881304,-321.397711602026,189.983170436747,-1.05619660029668,796.728358409185,-38.0491241706658,578.932372454266,-67.7504167851617
0.895498681182269,5.54134093540874,39.9964026565544,-1.64919645960619,-2.48231611728638,5.90063122789235,548.157821199724,-1.26276702080145,900.223085529187,-41.1040939434625,1.67228447807982,2.77021720156523,101.861197979897,-12.8564285105747,108.514622795951,-23.6072188805533,25.5584563057083,-7.05090111695174,638.995472409471,217.513154315152,246.085017778135,-23.8119248806867,1873.99761435233,-322.027195116165,184.877204476438,0.85039544131799,788.85081399748,-36.7811054970207,567.155690887955,-66.9753581902825
3.62866123274068,2.19952977632867,29.9840306135302,6.36947448567055,0.130121045385517,3.42150128810356,549.118599449048,2.36960158944103,907.739026814634,-41.6716586094161,7.3042038934056,-2.3941840200057,99.5328121542536,-13.3773069324753,119.505983182792,-28.6331528472452,19.3483344262547,-3.09397515510477,647.464996585415,215.686615513767,246.973581024278,-23.4386039399775,1887.18483562427,-312.642222889254,186.352049574533,1.28031880130591,796.238317653171,-37.5923976801738,581.791811907808,-69.691213753614
0.294529996063998,5.23276192517672,41.7077721441711,-4.3782279259301,2.63497622794783,0.748650347833843,556.236507612099,-5.94066796354224,927.285972980154,-46.6995625691189,1.3122926690202,1.00357452472408,113.657862590862,-23.9033566824976,118.32876796723,-30.0186348895559,20.8255255614301,-2.95929501588488,663.711828978589,214.727194016607,251.928738641628,-25.3944035447387,1915.52644516529,-327.214846562003,190.398972961753,-0.0412234290595641,805.473676910688,-39.7043541510691,595.350967536043,-70.8621803132499
-0.421618793255321,2.61595243696827,27.7178469039873,9.18470337857563,8.15668565007827,-1.05982249326981,543.777131913204,3.71465501665169,905.494051272884,-42.6891186909756,6.25565943374851,-1.34575738000085,105.948364952261,-15.2095964774717,112.056945837475,-22.0685935352045,22.8946013906498,-5.70475482476815,635.531391169998,214.931610852614,246.260059408708,-23.8973478093755,1864.04391508775,-309.635743551907,183.998272150829,1.55038573274117,792.148398127235,-36.7299942423954,562.805911751482,-64.7022664331369
1.98396598425676,0.237118340697428,34.4197584159023,-3.04940679060813,3.60055360053591,0.233639827599407,545.167752938056,-3.8697109951693,901.904438495967,-41.2584069724545,4.87893427443518,0.473042931841874,104.491440929367,-13.7474420345184,118.291974818126,-28.9430871441863,22.0713064390249,-4.95108791376563,641.653605279369,216.406058324618,245.648860259218,-22.9489322246633,1860.40103705663,-309.120177680235,185.316750852735,0.667058991786159,790.140776514721,-36.7730150206702,570.108540431624,-65.622542773202
1.8831694252078,2.21695792009607,36.8950611241267,-0.976696874947009,7.41762688854307,1.20333121383412,552.05910676003,-0.624138273188539,920.765094152727,-45.9330111586201,3.0408934100228,-0.106560655238524,108.79909835379,-16.4852300735214,125.694207823421,-35.0524949084041,23.7153611821853,-5.36755235452975,660.891796727957,216.203903504115,251.732222841092,-25.0309334318625,1910.33098498577,-325.532427786139,189.261701742422,0.866170099377402,803.628459067929,-37.431333332209,594.181866410373,-73.1426225079886
2.785729623947,1.86367514437001,38.1705828676425,0.600301807261811,1.76277654591534,4.27549959483042,556.735347511436,-1.16480453546045,943.253977077889,-49.4837830025564,4.97469515692912,1.09005243047112,96.8872844148321,-13.6742665418845,109.386091916986,-22.5271882763478,19.6928818975353,-2.52760847959434,657.55768677668,215.146503143496,251.051690160698,-24.3553841342629,1898.84658912367,-319.847746558478,188.310229720677,-0.132372696525488,798.413227587152,-37.5786505057207,565.854589614368,-64.4399102266019
2.85812378136463,0.512248331560053,34.0024646895065,2.75475944584812,7.64170783013308,-0.234102571817398,545.533563331601,4.62515615006691,906.209291288375,-42.5402589298334,3.13101974393105,1.09746485293594,93.8078167308096,-12.6008774725933,114.769717124735,-27.4860751328155,20.1569592768101,-2.88618444305551,644.672597155445,214.425195042378,247.05953698353,-23.5988647122954,1866.3055479215,-315.491789746499,186.557120791416,0.262491935703522,792.869668613019,-38.8146079123403,564.755492524841,-64.4111312165606
-0.391613270707469,3.10161677038313,30.8416219212408,2.09651911351877,6.29179707796852,-2.01056040207832,554.784722911851,-1.89922127904021,914.193132231351,-43.249711353983,-2.54533112865389,5.05808644264365,109.010881425836,-18.3772361734348,115.707093737532,-26.3809335934781,22.7021925552443,-5.78024911498366,657.788158879306,215.535052295088,248.757932023191,-23.8635648992111,1911.92939801567,-329.012032195004,189.171527393208,-0.603770859082547,799.497997957202,-38.2867508188264,584.469331485007,-69.2593837690367
-1.11670814306879,2.2015915035056,48.1311338154806,-5.83809272262279,6.14825255704596,3.1255743211794,542.769520160051,3.25070217964055,935.930975162872,-47.4184011578917,-3.7619523072547,6.42552540957554,107.655389690051,-19.8938333159674,117.675821055742,-28.1749807343603,22.4073599527794,-4.04104837253229,668.376029534869,216.935142278652,252.691956900498,-24.8490070484479,1945.36229230628,-345.471751762591,191.734293063221,-0.0367936844339957,810.307027181947,-40.2332204720491,602.891757608481,-73.171838532796
4.00567952361914,0.654771284568893,36.1303379030429,2.30661123723646,6.58697279937013,-1.19680339309786,566.390888307852,-10.7888176511226,913.153576991752,-45.9490113191551,-0.792198666661955,2.26123485001697,96.7314539104488,-12.9121791764478,114.415058827658,-23.290482722623,25.977105325427,-3.27690071650611,644.31361850146,214.789261747958,247.234850197951,-23.5366567322473,1895.38020760978,-325.960417507549,188.143422447,0.784333980711669,795.240786592794,-37.2245831464271,576.42674900991,-68.7774416918665
2.27171537252516,1.0885167138234,25.1537958914177,5.32221591746184,4.4064513272728,1.63719334890267,539.974820917659,5.00873802338809,915.900153239106,-45.0119285884156,0.765354416961771,0.0415488204905741,96.1340826749224,-9.82718102811582,113.785810362224,-23.7012981121728,28.7461725100332,-10.6385520749106,654.962821793321,215.399944039483,247.270266127238,-23.2974117091184,1911.24318533416,-328.039297476646,188.366252679495,-0.0637511531191592,800.179499567088,-37.6372932841472,581.607527208185,-68.891844070699
8.11001998960015,0.790888561373059,26.7752289993612,7.48538153038643,6.8850596940488,0.353079050431259,548.763653800536,2.0424587756421,938.757178495001,-48.5229785566699,-0.628264531675621,3.28689441262801,102.79439501735,-13.6355052593343,110.913584808655,-24.9682307467046,28.2444394687429,-7.49514808424809,669.315104502499,215.388294768702,254.170113891386,-25.5172936836138,1930.15690386313,-331.602870921372,192.114263191711,-0.495506959780865,808.087915378651,-40.2202373177396,601.762340420772,-72.1294223909348
6.69350118658416,-0.354068217185191,40.8269030932663,-3.48802592211206,5.07901370842461,0.36373485778599,555.004988356976,0.857446653387231,927.329190166037,-47.2384776744328,4.03744044340662,0.144878660999343,110.171565856088,-18.4506876014218,114.663662849567,-22.8542916417875,19.7396192256024,-4.05322245702121,645.900945831337,215.290046513812,249.120738272556,-24.7267098405487,1904.01462847279,-330.826895146106,188.254298023457,0.271719010195727,794.827152433057,-37.0426103687267,572.583574025693,-68.1130264178078
4.92110857560895,0.100084866599757,34.2094872300103,-0.943716702070502,9.42853545918972,4.44602695771725,554.051524366468,2.76707292668795,918.109398539095,-43.6408974332438,2.35041225957988,3.62376847763678,99.06473940455,-11.6062196852215,122.689370236699,-35.3776443679732,25.0774470882849,-3.99451595992102,651.814875734395,215.527521059524,248.07689225325,-24.1610477534707,1886.13075760904,-317.563512010086,188.148493543395,-0.818745438807027,796.763399895428,-37.4549079137246,580.027276929668,-69.8584373510779
3.16457951626615,2.81153098610486,26.835661834862,3.56428191160436,6.95537855922149,0.120550307504138,548.537543138765,1.04189621898023,938.306165688453,-50.8423109052021,3.67835667053081,0.932225281505171,113.016799876934,-21.2274296959935,116.598682341291,-26.9397135902524,21.3438242562097,-3.08638741213977,666.028828326429,214.045378208594,251.355996241793,-24.8652858234094,1948.90246976671,-335.331906062308,190.418859825585,0.115894375290253,804.318029571552,-38.1142674006769,598.321735356751,-72.5854012677907
4.8549989243013,-0.950238453247072,38.3505403694693,-3.78117992272988,3.71259348440265,3.64420702730039,559.857955399691,2.26228198277394,957.226614289506,-52.9393337005855,4.28912363473636,-0.0324357891738984,87.2072826415714,-4.77181741081846,123.342576625577,-28.9666111783737,22.2195229799901,-3.34319538418229,673.149740374818,214.556359767337,253.255883245502,-25.248964905247,1921.70962473727,-323.243138089457,190.866032102462,-0.345067106186287,805.693707426764,-38.5072099507482,584.811436307155,-71.0223975108824
1.08120835553833,1.80748707354819,32.1320681856244,5.25712119377447,8.92616677560321,-2.23622797620617,538.489113042367,7.00898360236581,921.477453375864,-45.0221834586072,0.188494582881044,1.95873472093117,96.6954022476278,-10.1351428780756,117.631740922941,-29.6630092972809,22.3244424087131,-2.7577465688644,653.293366215557,213.371351303051,247.916572776884,-24.3573898711218,1893.58194211978,-323.63090179534,187.690581777392,-0.02570562404124,796.714789531585,-38.7609577516058,581.713306127466,-70.3575705794225
1.44408444888811,4.01981732485112,47.6193272259299,-6.40192098348378,8.73733270304864,-1.81221671829534,561.2027245545,-6.47417941842236,928.582128924542,-46.5299392179749,2.12591569750664,1.52371046716686,102.094900565677,-15.013504054838,115.971238493066,-26.5646023812962,18.3649000962806,-2.75238197536402,664.130007937529,213.688853645114,250.466572668102,-24.8493552270148,1936.37128626352,-338.607019851756,190.137664691622,-0.34326411199457,804.883263338737,-40.4099191078375,594.184205771205,-71.2537064796641
1.94416847226543,2.07368011841429,39.3545374451457,4.44182290582643,4.22812068733635,2.91789961099094,555.527969150752,-1.30963192742847,951.133584466406,-51.9522982183508,2.55982824397924,1.79293369628882,102.875869843778,-18.8092110602322,115.013963478478,-23.5903017530294,19.7815131837401,-1.50188776861372,673.717165169904,216.899388200657,254.887417260446,-25.8273778622275,1967.86797501183,-342.594623110772,194.280726331923,-1.46635917134084,810.38429484367,-39.9732376333237,612.411398693589,-76.4497531103465
1.69737601726284,0.745045611166076,37.1670578523234,1.38313578967815,6.18722786637979,2.41609905583943,556.984299933368,-2.50103256868909,925.870512235871,-47.9239883440778,6.10119560760158,1.54269874636507,103.852609141864,-15.0524188468782,118.512542264874,-28.1259446771907,19.3818057395488,-2.93943462410096,655.972438592424,214.550364717326,250.07886343191,-24.8990990993112,1911.28926384775,-335.218807597978,187.701489383112,-0.244206282314153,799.603785660778,-38.0925782941757,583.170900296255,-70.1495118013563
6.38316180398225,-1.66064011347594,31.1482339715444,1.85063681459704,13.0853707535378,-2.8104550264834,561.917770662924,-5.06488937695879,930.105796070698,-48.636324183603,3.42274590231857,1.34591602367297,107.997174010547,-20.9830649463527,116.225161932365,-26.6854481601666,17.424467925326,-3.56950079627375,663.564735503637,213.36641800429,249.857450055585,-24.6396665687196,1917.90236263332,-324.029605625256,189.372074288751,-0.357194451061871,798.895968674084,-37.7555695004283,593.402346586919,-73.4329928916129
6.74290115777696,-0.337299744533652,33.7753370734527,6.10851405761436,6.12915076579224,2.31761203913245,568.396183387834,-5.60637312480738,946.53966111087,-49.772056374271,1.86406647855552,1.27663834182767,99.78435576565,-16.7360855752206,116.548925640228,-28.6493624132656,25.8430067798957,-5.87915980986016,676.000177178562,213.587122115384,254.750166876724,-26.0349954859129,1970.85060186967,-349.761343949954,193.798460230888,-1.4037715054195,810.885484750672,-40.4621269689304,611.578960338618,-76.8180672363149
2.03206433890479,1.53491667913131,32.3469927064332,6.76991442523768,7.00340563947607,0.165089551792363,547.761413673319,2.0800389047992,926.653888390083,-49.2447133759978,1.03416877729673,1.83350072197832,91.0061024922262,-8.58452634205168,113.029963831033,-24.136514966707,25.8165514209977,-6.52214090253794,654.449026212036,212.895802079499,247.633483295806,-24.6464605028925,1908.22023761634,-330.545089947902,188.420178055373,0.0805765113520707,798.678496200119,-38.8743085228023,583.334868734521,-71.0538991252011
1.54414164148008,3.10043883480765,46.8104727666483,-8.60922636561623,-0.131754953975638,7.89243983832019,547.964727155438,0.0860046023793489,933.458981929189,-50.1638766685826,7.79256546678006,-2.18464309623135,105.084347738103,-14.2282621141107,114.525113625575,-21.1959616138658,29.6294737122529,-5.13794086817674,661.345107945118,213.829417895203,249.879834512726,-25.127430950429,1907.38490556395,-323.974587437031,188.550661012156,-0.192629506716354,798.206492889298,-36.5398922139126,591.231288411433,-72.3812664848306
8.07316320125124,0.867910999439554,43.3241148935266,-6.46746312609804,2.89032665004372,1.55645332077929,553.1153362558,3.79554156944084,947.743881868599,-50.3216800616619,4.51644274140772,2.23512321337377,98.9703216122494,-10.9466305789743,118.318355448518,-25.2557341169988,23.5785702012476,-1.97752266438709,675.272157877032,213.59911739601,255.502529032905,-26.0845167522403,1931.86297575785,-321.277919360071,191.811213494139,-1.21140661441397,810.476047600974,-40.2252026294936,612.590257442547,-77.722908251391
1.97481457603054,2.3386557970027,30.4143511812736,3.69423039828837,8.3520264547418,1.2894496803854,530.699009355885,8.00529679220453,920.538729026091,-47.4968944046693,5.55278669021756,-1.49608679811225,106.5855526504,-21.741320845798,113.361967862878,-22.7851302996179,27.5560173806048,-6.71027925554314,654.821202106867,210.019253731412,248.054929194916,-24.8202198728548,1893.75802430217,-331.769247366503,187.036562006723,-0.427872188680045,793.783530047145,-37.2927742652303,576.218937509556,-68.7742105696227
1.95571200975957,1.26449797734411,34.1273292061215,5.82817465816442,7.30202117296808,-0.67332048399074,558.242619982885,-1.40125764744542,924.440454876772,-48.6090382125893,5.40279819350906,-0.749556072884002,101.056269562274,-13.9055077297813,112.183937269254,-21.5591293482405,29.7504646343929,-9.53681153982486,657.296541383903,212.475310956803,247.707368308261,-25.1183488552089,1904.55076120968,-326.305118657071,185.972613156982,0.350406224734266,796.412031149213,-36.8701659980685,586.941617240795,-70.8326264186886
10.7426736766711,-3.42995464146483,32.1615335545004,3.33929029242825,4.86325243651855,2.35215877299349,539.061229711024,4.38079335037396,943.077587562847,-52.0918307101624,6.29106340754287,-1.44837760009482,102.257077190549,-20.0509817715779,131.031095406427,-35.2977068232055,16.8610348962975,-0.666158462803135,669.070719788444,214.727498581617,250.681711414592,-24.688849702288,1935.32427158448,-337.841988842532,192.751436759095,-1.97241080463635,806.924929137261,-40.1087165905034,609.101483432227,-78.3735172398216
