5.27358466715158,0.0869832226413175,42.0231401216599,0.21855162473401,4.05771167094335,0.655384046745899,536.650933550456,0.643598492297592,912.661754131736,-46.9115924397072,2.27977239731362,0.982936736185648,108.646185882127,-19.2041119055522,127.968477763828,-33.621926883491,26.4526662701582,-8.18446275043326,661.752618119931,211.336548657854,246.913113014676,-22.7190546890224,1880.63715365236,-323.564021634617,188.149240426376,-0.758389083793106,795.991272864807,-36.8655548443295,593.009507224257,-73.9636601734277
6.28105696595954,-0.810690252123426,35.5491953922726,2.17375758822928,10.6075251668978,1.5940881131411,552.451476753552,1.35243723073218,934.990209840353,-52.1964704676366,-1.37651389811059,3.47146392442687,110.614694208006,-18.788620884148,116.060660443077,-23.1643947173685,23.4555434788399,-1.34948785815615,671.374553115397,209.927832422542,254.230572092627,-27.4446189027074,1890.50156749142,-324.63938189787,186.923452091917,0.362873072251764,801.052106338238,-39.502457595755,591.706134122669,-72.6099906015063
0.897390897130036,4.03242245922013,39.1095018420238,-5.81131520069046,5.46689506258673,1.0756351113124,559.419828301013,-7.69807775468691,907.325956526095,-46.3248974374728,-0.686496697024493,1.59659226812403,112.128676863067,-19.0778504863801,116.806828329077,-31.6119769611935,26.8250118030778,-6.00345605794248,654.619373560833,211.25811921431,248.583219255837,-24.7239438186881,1852.20834671628,-307.571761156428,185.330701470635,0.295854748449601,791.643306065172,-37.595605308703,579.554184435779,-69.4895626217452
4.08747882356563,-0.365620053255855,34.7703919198192,1.73611843773313,8.06296821190203,-1.7271143854725,547.841192574889,-4.23801996743509,915.989303310995,-49.9962565753833,1.35085847534166,0.957139393609866,105.036355071031,-12.819175056585,123.157009598846,-28.2010879815282,21.0911900837258,-3.81115380771311,661.936616612323,209.488280220067,249.578604197711,-25.7459239408869,1878.63220954543,-315.776855819811,186.798446104997,0.168895372461831,797.985247641268,-38.5135643155649,594.215170905922,-73.0672624755269
3.16166427301545,0.146344558538809,47.3094805092971,-3.95075893040707,10.5923212727844,-1.80863804214916,553.461904463489,-0.97816350751157,936.232443081518,-51.8927657112238,4.48005237171818,-0.859928879974256,109.591061310811,-22.514747191075,116.427030052764,-24.3603198059002,23.931543635633,-4.62056323033515,675.699491171273,210.493453543834,255.022716268829,-26.2046835639381,1939.44787498911,-343.307411307303,189.19491731699,-0.100327254488051,811.106997984638,-41.7797173884201,615.101227891638,-78.2132954732946
1.18477489875681,0.117700192896072,30.5378281983731,5.02757274638587,5.53789302869372,3.31161267989816,532.463692492613,0.156946935623626,901.635448866411,-43.7850518422216,6.67479663981417,-0.31553178738725,116.303543479858,-24.2688573248585,113.103712974725,-26.3236096598303,23.0185446929086,-3.61976967359399,648.285514641569,208.62820581127,248.252770471301,-25.627210803245,1873.48555679671,-327.465763829334,184.967031455316,0.490752096283652,791.750062435974,-37.3244920235567,574.797324925266,-68.6911524066909
1.60375441382206,1.96301558650547,32.3029497778244,2.96601880986327,10.6751624542547,1.03862735776116,537.292003085178,-0.816974161204828,906.616693690255,-46.7530967542743,1.8779926434295,0.696956288133166,105.210845256507,-18.2843119439459,110.064068308144,-22.0703205851325,21.9562125031549,-2.39730087641033,655.437676085138,208.89631899707,248.613528490039,-26.0526525913715,1854.28854884982,-313.944118947857,184.377231547762,0.967776824480955,791.992878375575,-35.2817842304407,588.301181847218,-71.5346909831621
1.75455702568276,3.57801874120154,39.9337331493525,-2.50131943990389,7.67353108539189,1.29012045554958,540.259847453302,3.64013416672912,929.487058141012,-51.4343972806963,0.116851344287754,3.10521341297255,102.597270258393,-16.1874999173649,114.546530697023,-25.6130968477473,20.4102426525539,-1.39007690581092,669.509694102672,209.257166638638,251.548711064816,-25.6703367713193,1908.96094975518,-332.023060155493,188.329685528028,0.262645819214396,803.529369734837,-37.4896268676893,606.398167053853,-75.6661104763391
-2.11430242098621,4.50446983018893,27.9535625148761,3.33579636241272,6.7578355181132,1.7025155192321,533.075730649253,2.51407366177612,903.532099285515,-46.6057388230982,5.14101818339442,-1.91552634224244,102.012386891724,-16.3147920041607,118.756829910761,-26.0491060621001,27.0213148959186,-7.7017098423521,644.924495174719,207.043879354705,246.010429417577,-24.4396362697118,1849.93238144352,-313.362278015047,183.529660594906,0.751041716934208,789.635892463832,-36.7414613710309,573.396199373907,-68.9727943741183
1.91358121995644,5.63865364235195,40.2307120586935,-1.61765203403239,2.64829351705703,3.86947168310328,548.944775509783,-10.8477854066693,898.78452155213,-44.0740952153564,0.313189146311465,2.30376824477996,106.054686421194,-19.0878776826391,114.910192475652,-30.2283642991017,23.0437992688724,-4.23643088308322,647.101656336912,210.197764818497,248.186910260189,-25.6422893324845,1846.62596471117,-308.001578191204,184.325463472585,-0.310870948017918,792.536642925516,-37.6242202933018,578.415067480318,-68.2886531261749
3.06302253839104,2.01212267369381,30.3091441877239,2.33392020826727,1.29782615294187,2.79968115363525,544.709553296304,-1.0192745733493,921.138112702865,-49.8193877399107,-0.422415040898346,2.24415029488425,101.951362790415,-10.3798045581509,111.679176520358,-24.3579909878649,26.3987045957619,-6.52917724114929,658.566287119375,212.218900483809,250.047120140375,-25.5143865638159,1884.23869742369,-318.30068959732,187.83129456294,-0.408241995238071,800.744449423514,-39.8959779394731,599.208402967715,-73.668309009382
-0.300294406679457,4.30780263108993,28.6990846247194,1.01724950186288,5.00089100873375,3.28977985475708,532.025402892939,8.70382486163732,914.716582747019,-45.881347989664,0.317101534452099,2.51708561488954,113.667868290339,-22.8340101206635,106.782670969048,-18.3288847740438,23.2711459692801,-3.59310534976421,643.82884178702,209.424972415608,246.532051865793,-24.4600240083898,1834.49620988106,-313.110010196025,184.002452142973,-0.313822360695703,791.250051206167,-36.8734519946395,574.239407111402,-69.4749078923944
2.10148726147458,0.840087653533244,27.8608456825582,7.06358735390192,1.59727778048245,5.93232580762625,538.417333557147,-0.544594811916843,898.857512751577,-43.1444311102,3.31361619454465,1.23107425427173,100.93901971185,-17.1721716806501,117.155434856704,-26.6127509191232,28.5326235372668,-8.21479918352011,643.673446497037,209.191717335894,246.224848258646,-25.0351638585281,1844.16994114009,-314.220636897298,181.695584089259,0.49924445692135,788.54570098039,-34.3974175345443,580.652814328423,-70.7556549371103
3.51775068497587,-0.215892385789337,27.9618400710937,2.64883384964356,8.32325076219936,-0.946263430559621,549.836734384152,-4.59731211274516,909.727306383005,-45.7503095078553,-0.11332155251575,3.0446059712782,110.355526235591,-19.1823795425169,113.202356378858,-24.772193947403,23.3413851087484,-4.88446484085982,659.098740936637,208.810818846433,249.125955115358,-25.1317924292241,1884.80878520909,-322.376572953678,187.905275202353,-0.925077574925645,800.376452868385,-38.3308277907805,600.359684719206,-75.0966866325091
2.14884280514452,1.23896659765757,32.7499563836883,4.50532717765677,12.9172408543943,-4.68130701188366,542.447875039706,-2.33587599659895,922.76657427753,-48.1162002213095,-0.698575950227257,2.20682028428366,104.971061246406,-14.2667125603934,111.053402669973,-21.9707902669703,19.9037585882006,-3.94838550162726,647.817946417301,208.236984558432,247.7613381962,-25.1424998904884,1866.91614728246,-323.898622863817,182.826812335083,0.564725315497811,792.83463404064,-37.1818103060687,572.918993828623,-68.1094229306562
2.86197043672117,0.705250968098259,40.0410683878575,-3.23341283271274,-2.09891554575324,5.56794215615951,526.498719252695,6.77150320762095,895.86532341432,-42.9434462883147,-0.238802000778555,0.815897136351086,115.934985135681,-23.3302899419469,106.326415805238,-17.6133623174504,25.508796384903,-6.28819087522164,643.172973423613,207.970966518139,244.713233083766,-23.8709220835639,1848.23968762889,-317.93556005645,183.812055084167,-0.770612320470703,789.966443883843,-36.2149291616255,578.748482178174,-70.3008066332171
5.67937491145416,0.351664983868936,28.7531235877689,1.76494523851903,8.78487096496685,-1.30972589924178,522.698479573055,4.63014064176862,909.327111876078,-47.3840185767615,7.45726209813251,-1.05476939361301,100.238210428219,-13.6567337404204,107.911032462904,-25.1456089173944,25.3629303316749,-5.76670197165055,652.849777547845,208.246078427898,248.414996441077,-25.7306940395885,1884.22867570757,-325.888020182066,184.737779901359,0.606598982300568,796.433788089125,-37.5941717469614,594.167265648805,-71.0397133928786
8.91840952823309,-2.56048771558026,45.3647079934576,-10.5039345010032,6.13263477652724,2.01616907954907,547.566076095797,-3.24964957653116,927.319170953362,-49.1147317374984,7.66340265087287,-2.73699439438986,107.828155786723,-19.0837904583856,112.419158431986,-21.3082018634057,26.1339795305045,-5.64957911149742,657.079490084293,211.711884268783,248.489439178518,-24.7767315707571,1859.93303251474,-316.703162798019,184.030574331751,0.780674338581844,797.270032400134,-38.0590452370955,582.035503220534,-70.4411109891767
0.692433682954517,5.51820463096213,29.9709538048375,-0.677823814240065,3.48057887250981,2.52600488665039,530.681599506352,-4.94642881641562,894.538137301572,-44.3601193867464,1.05470775776692,3.82863582724809,113.724325628833,-24.4934119883811,113.313455221264,-28.698643594825,23.9521872311284,-8.55654651701774,639.958429576467,207.362650944861,244.98060710399,-25.0337857563449,1830.0484151391,-300.237945725948,180.745955934445,1.3186282611532,784.062865675124,-35.3411888445356,572.82100802713,-67.3131473031476
6.61293016660858,-1.6161167321139,24.7308092878439,5.68415445668586,5.05510806565507,0.0472103344436887,529.712015918988,3.51986222732145,896.165522046701,-45.4632383090382,4.32862653340745,1.35318626548824,104.252505698595,-17.0671840046871,117.183680913696,-26.9147406227972,20.6860992225989,-3.36550021411095,646.204512810938,209.572164022115,245.488535956298,-24.2885039403185,1838.44832760467,-314.191874460635,181.463508836806,0.847897231561617,791.759836028494,-36.5593577978878,587.733932422556,-72.0928691783288
3.94458342717914,2.00932196077013,33.3194334086697,1.71936582657005,6.4202029557915,1.62761463423555,534.722644053616,1.99243856389633,920.540961855706,-49.7425893687807,5.75112300055573,-1.44778044136673,104.654877253659,-16.4370766277533,111.353489930265,-20.7364204580871,20.2119697269907,-2.21825224992361,658.146261258586,211.048918771746,249.781320348467,-25.2238837194879,1900.49204939992,-329.152011716874,185.901164134203,-0.0497559729285699,802.475706076296,-39.0717441070361,606.579180292462,-75.4282398896129
5.39067800341145,1.69010844482711,35.0710267927192,1.0648272737204,3.08742393839409,1.23055970000868,522.091307425575,10.6874232845349,882.929180266754,-41.7193539806848,4.62844866750948,1.06196202403612,102.55327856669,-18.4906175192723,106.428260822925,-23.2387306654008,19.136460149115,-0.889229639277044,631.217915523227,209.694869910649,241.060439993921,-24.2031396882799,1815.82307269934,-301.300247743562,180.426860314605,0.0210480222289261,785.777946044521,-37.1235167705884,574.387668772945,-67.4841157950503
-0.707028377250866,4.2264763545376,31.7756682753469,-0.100807546614251,9.17894493357372,0.391793881452689,526.457158419538,3.11668546401991,885.200914568489,-42.9180010678637,3.38216293529188,1.01689888273865,91.9549819446561,-14.6586588251924,103.728389306203,-17.4265829856508,20.0140582096723,-1.65067586296185,639.208888473481,208.462329400466,240.924613439073,-23.6541723639331,1842.19553486369,-308.964419968249,180.094592330162,0.235699766219945,787.939247845884,-37.1997590451916,582.909236565088,-70.8951940032285
4.76562850349596,-1.22701025696932,37.3539725960352,-1.03624143362524,6.90618797865427,3.01525333492898,516.617600200773,11.5915845919245,905.216644933396,-45.2802192780844,3.41222249882393,2.62617088533082,97.6888488205841,-14.2059277103047,114.860638156265,-25.3014723104361,20.1621451160941,-4.36270098343111,649.495154453347,213.108117973986,245.183802403249,-24.3265551772417,1893.64248127375,-324.829513416766,183.777760047852,0.0477643915261446,798.310865233271,-38.5603489443246,603.175904582013,-74.3247387695016
3.76976683329535,0.925059910361413,31.5202114228563,7.16090069225504,12.2700488532929,-3.31873128132801,517.618175406479,3.12154279748185,888.835461710802,-43.33525322212,-0.478035012040449,4.46987803989165,99.6521178975637,-15.2921864917216,109.829819855705,-22.1430140088885,23.3619235547049,-3.15001571157462,627.987539127186,209.049985268495,241.974605638863,-24.0748812066886,1839.28412526153,-315.698216356917,177.788412811551,0.724128312815236,785.601769869626,-38.1546982107387,573.84530291881,-69.4763160257026
3.66119054684376,-0.27856567405996,27.2016772842854,3.05128327894328,11.8457425132292,0.478703908020346,514.534257090503,12.1815406712388,883.716544859272,-39.3829040970352,7.24487451250099,-1.76675642136079,99.1892763313767,-12.7248520638926,108.469785324218,-19.6321233572764,23.5724370710921,-3.87475431243452,634.359219970893,208.064770905059,240.433128263662,-23.2064430378796,1842.05600689465,-313.534945202158,179.596769884737,0.314356615021188,783.653325003155,-36.1253127116814,577.36678951525,-67.3105083096408
5.83284831887313,-0.984784960494886,23.0970687036005,3.56364918110701,7.44507517595504,0.806193112551424,538.768895410818,-2.90473605091387,902.000174724836,-45.5241957550544,6.73613501833048,-0.171792282028177,105.967648203626,-20.1704165173922,114.065096481312,-25.4298239671751,23.3226219581769,-4.54967623458138,652.068480959155,208.902854193262,246.600852777098,-24.6877051651368,1873.42547703238,-311.202073863237,182.449857615633,0.219535376479442,796.998449753221,-40.5233965785861,601.497775638013,-75.0952851240981
3.27769821961333,0.856896463339926,35.3978328458669,0.955558834861816,4.21685743415101,3.96131825229812,538.812159368606,-2.55326705893001,908.090443427544,-43.8751259212686,5.58231844069352,-1.09733293494982,99.1946243402506,-13.0231709003135,108.478728307216,-20.7740013808112,22.1243768566921,-1.66244884835522,633.348045216792,210.973696122361,241.921636071371,-22.8100548675676,1840.31155531363,-317.093539955221,178.456289545793,0.55138996223064,785.289315115927,-36.7461533503461,574.543429429689,-68.7469836130687
2.92160929677831,0.581437430065684,29.184783184644,4.29835752607687,2.55349439500911,2.78281183809585,517.619492137008,9.22466000341336,886.644170308167,-43.8869486059671,-0.84746591861433,3.43795461789753,101.54711335894,-17.564606285585,110.317028160467,-25.5528652316819,26.7242972954404,-5.79668883276445,626.976843333601,212.863357317099,240.076188190719,-23.4680212616982,1833.02556877289,-312.393212941688,177.225401607677,0.83209083788197,786.13383708003,-36.0354128261017,579.011962204845,-70.1761032246749
-1.33420556239033,3.14547028303392,35.9986554732453,-1.27753963626555,12.9325136706558,-3.10083019585783,527.969196002727,-2.09008607521689,895.453774233048,-43.483873857467,-1.6032961007165,5.55619037096051,101.800989801977,-18.5139528703921,115.42416129635,-27.5330912995734,26.0745626005286,-5.50696743008776,642.596676358053,211.565555914576,244.652418283745,-23.9379120964531,1867.02196495157,-317.104525134052,180.31209584155,1.4466287481343,792.361455231036,-38.074829161459,598.97893756617,-73.8452723478571
-1.85008349008961,5.83715754168934,33.0117015589437,1.42122260407532,8.74317852220125,0.0410011319104148,520.441798440509,3.13415372286957,918.88775731061,-49.7259585378189,4.70355044505783,0.634850069967663,96.9661795074643,-10.5677817002338,119.3344017922,-30.9525879898763,18.9983005222783,-3.66167105933434,656.235506692926,209.358968515524,248.941820535526,-24.5013595395321,1912.16040480338,-339.963903515933,183.873906972292,-0.48018687452575,803.398274560312,-40.718674174545,613.406780208607,-75.6671711452147
1.66063168346374,2.20543169132052,36.2003024478548,3.47838860746541,6.31974209705089,-0.515369475592563,525.526880150838,-1.67617487486279,882.230964857243,-41.5044232442637,1.11600937456761,2.60187125019875,108.767215005316,-19.5016926421696,108.618259092155,-23.0486360194118,18.2931637453973,-1.53443901275116,625.795964176436,210.73054417949,242.550734749928,-24.1263506747937,1820.82897802314,-301.134822637309,177.139041953071,0.975049076094883,783.679092256947,-35.6135926083086,578.958755430907,-68.2237773360956
4.44747700592841,0.257572450940251,32.4339388084538,-1.42341211871197,7.70908301209457,-0.234333037473468,507.918142910255,9.06370521814855,886.000999415421,-42.6322010257825,1.76302640502534,1.9326207324276,100.028130558962,-14.1034861651008,114.022313768185,-24.9365652562807,28.6691585588265,-6.79174320879019,634.626864415602,208.549888705044,240.745769264754,-23.1692931838953,1863.11459059587,-322.899830088888,175.930835942164,2.10911301602284,785.393802401515,-35.0049072079153,586.75428347567,-69.6716079416566
5.51784843122089,1.12357876617206,37.5727190984235,-3.90464222620198,-1.59694956294299,4.43267422629871,519.475485207255,1.51105169224455,904.646781562353,-45.8203431002174,1.92597368657276,2.64875900753114,89.4907474568716,-7.1910269053481,103.504801752467,-16.393480205264,22.8438950886816,-7.81123982820851,643.537692323668,212.051541329476,246.076451923281,-24.3347970776251,1888.65588091493,-317.945204786788,181.301219779357,1.40824234653161,797.730709295279,-38.7226641773061,605.680278607321,-73.0561833630709
2.06568942769025,0.311948522365863,34.7576594623177,1.49353028848519,13.6919313240863,-2.31215066026194,507.584700616042,10.4853098534344,884.216836507928,-40.6976924289105,-1.91741468941724,4.60209300183445,105.114031505537,-18.0704844036109,102.578344572348,-21.9811623824208,25.110079860731,-4.74737725184461,624.97155299419,208.597681689807,240.462800598214,-22.7350145095853,1828.82033240454,-305.673028836139,173.505846426058,2.42931126829742,784.383329872073,-36.2982715262104,575.048784592373,-69.3693979530742
2.07107901095687,0.739882908534213,28.0625120842756,2.11282180154455,13.0902727467117,-2.13599218519448,518.342665960829,1.17270225860752,881.966980275092,-42.3237014836127,2.42159345168519,0.514741202368588,103.149704445515,-13.7597576946306,104.256196568434,-22.9248858300846,20.564609479427,-5.02173288170693,627.668635104421,209.716787684791,239.991084901371,-22.560687094853,1828.90068785995,-296.0595927416,175.332720238177,1.87716284757559,782.038153325208,-34.2903291071536,582.522555642838,-68.7952050970863
-0.143122798231673,3.98176805688955,23.4753754298648,4.16625291422839,6.35820181596123,2.04973956361036,519.852277019778,-0.722912679194086,896.99419255288,-42.9363485875447,5.94568659760249,-0.358962523783542,95.8259518718181,-16.4234118291751,113.15237194933,-24.3970513821567,21.9455923868858,-5.88649376571086,642.032444691236,210.315189489782,243.082392645092,-23.8615235453972,1881.90219284405,-331.486755970079,180.308173944474,0.286789776765583,791.103124114362,-36.1600319387055,601.039989105432,-72.4308748567967
4.92961342002859,0.331840631795455,29.8940509499713,2.9165678886178,11.8302057650697,-1.52117961167275,511.508439744942,7.09145838104718,891.119471231215,-42.0064120916591,4.12561868005839,1.06469146489642,99.5848578808561,-9.87587980066886,103.298620435302,-17.7803192932791,20.4985599482951,-4.6319306267177,621.333105614725,209.671211998736,239.682523827044,-22.9777609533706,1810.49616445427,-301.296138199903,173.90967910619,2.21021493928292,779.638537732677,-33.0585620697695,572.741874832479,-68.9525029995299
4.92055152402868,0.676181022807439,34.3471749455822,-0.34811056757622,10.063489412163,0.196654282144819,510.813116563994,8.51395117629249,878.170650702827,-38.4343054279137,5.69558932558471,0.177110479737651,108.561009671959,-18.4450930939346,115.982039535299,-28.5974800229418,16.9610318128515,-1.19506385114332,620.220701729555,211.375829909494,238.369023215617,-22.4024222419,1840.7547381026,-317.606905787473,173.934865969282,1.29764439510607,778.853450004151,-34.1133098996539,578.841871470693,-68.7549910577016
3.9036168764478,0.674535130909659,35.856735553039,2.62631153769192,4.31123773868966,-0.317559239355693,511.524977450332,2.27213104232325,890.246644262845,-41.9556866121096,-0.263461983680167,2.70170986089334,100.336026669778,-10.567289270147,105.256099750539,-20.7281467601053,25.9643005147484,-5.89849808864229,634.923649787651,210.491665144643,243.233955980738,-23.9920640235627,1883.50337005951,-326.213737697418,176.743552604016,2.09857290878447,789.685267814449,-37.7466573884053,597.788130522444,-73.7843349449018
2.82885756635432,2.76604585818985,31.4916479370128,3.40255638602387,3.03874454742141,0.91213071907187,522.768711578669,6.2636126077086,904.596136649383,-44.4945048116979,2.78372228080663,2.57846574961766,98.3686737113977,-10.1562189403252,101.06591946329,-18.0663012018432,26.4547941992107,-4.43741466980979,625.667414222518,211.02869096531,240.905730457384,-23.5083841759916,1824.95893329137,-307.053227675421,172.730082560536,2.39368426745466,780.283563852224,-34.6801623300724,571.750583757396,-67.1430341083094
1.97138222404771,3.32542067729807,12.446791908018,9.93609616453626,6.89673063350149,1.87337804308779,487.185034388789,21.855451570582,869.663951725376,-38.7780737072392,0.393151620585989,1.68862462664483,88.0259830962851,-9.06278011379379,110.39155027761,-25.0063908064743,24.712776009284,-8.63604538402422,614.572186991669,210.590378563281,236.648709885395,-22.6717238654296,1817.23504799379,-304.699839746974,172.120272175485,1.66686527633758,773.137576886839,-33.4469499893934,571.506415264751,-67.1465117224155
4.02539464358294,2.25937447824819,35.1626072533066,-1.09821145921001,2.10126649939706,4.70704914187517,509.897403623351,1.83028203587943,876.072182087992,-37.8004440213921,-2.11852592987134,4.80079441497621,102.821579524862,-10.905633729269,110.140176579134,-22.5744533847831,18.7573664104119,-0.801449658107845,626.397106226709,212.532172453337,238.884144386873,-23.7167696190346,1843.6113378226,-309.960669741178,172.653887875307,2.35797005073481,781.021127894935,-35.0848592672463,588.786309773455,-71.5250659214047
3.42821319129974,-0.595289390432434,24.7096930455191,5.31045475414049,13.5216585203743,-1.60911574295101,527.096841779194,3.58159908309233,895.687408047667,-43.4036734651889,-0.759487299318416,3.71693977799236,92.4515161826976,-16.5756896986055,119.150244331597,-30.1700094251669,16.9159577589219,1.23840607206755,637.935256619367,212.528290817282,242.031132970295,-23.513610964143,1858.72472230474,-314.694432602652,176.052489136154,1.558418041043,785.835281070584,-35.4477144965453,584.509921174335,-68.8102758242882
-0.760936102579412,3.25753029922011,34.3421499580157,-1.98830967741875,1.68616595473512,4.9815307922835,489.756167291708,9.51584319043726,858.360383148873,-37.3179737829484,0.709371613630357,1.94364197772503,97.5578364762882,-11.6814336093777,108.31550918113,-21.3034136215701,34.8646029865778,-10.5772700769015,607.756405658344,211.342041461896,233.676577669584,-21.0185147232684,1798.57504626251,-288.553551114907,169.123830401548,3.4794621187907,773.374217899863,-34.7701564211381,565.767423028332,-66.7766576505306
-1.55776930460292,5.02739073848282,29.3916990179597,2.60232954931586,5.2287941359836,2.01648248564774,501.510307093077,10.5571378424277,862.345186726814,-35.7806782169647,-0.331313437532516,4.46254173218057,100.596746925793,-16.3438726456238,111.474516534044,-26.02878064217,23.8778699401246,-6.32127428121881,617.960982847364,211.431544856463,234.544856123748,-21.8642979972232,1810.9739911441,-299.8771007598,171.846073955809,1.88754313514392,776.27636808031,-33.961164763256,577.190353500311,-66.5058309418974
2.47101471602971,2.61171544938562,33.986710924403,0.342276035562542,6.4523725123256,1.0971259770877,512.351886882703,8.72316404391011,882.279395732559,-39.1198188241925,0.299503221836066,3.56121155750249,102.595934753096,-21.0739621961817,106.473205505904,-24.1874015903214,25.3908844029024,-2.97358449187247,631.064480486718,211.84024465075,239.987551644636,-22.5143480664696,1857.27960043599,-311.142795948694,175.183974144313,3.15905084972736,786.093239681902,-34.4985849423532,595.716301011137,-71.6152654950026
4.85090145342053,-0.224003553171581,36.4043972491873,-4.31497991829856,3.64294401205342,3.93008256435728,492.85887675742,10.7859581210776,855.519873544815,-36.4081906563921,2.75872851760542,1.01273929696886,103.104095407273,-16.6068641222595,110.274100161378,-25.8748242568954,24.8002980341319,-7.0014385001269,606.749472815892,208.910188293193,233.54988798244,-21.6133272332181,1818.08926006524,-316.5630901629,168.928132503288,4.1330898655077,771.418095750494,-32.0909196357767,570.265481110476,-68.9685955600035
0.126690266098504,1.59813995771391,31.1525437343577,3.84831140421874,4.17451602094634,0.0159864303908706,502.777966617584,5.5548595689192,858.378891169133,-36.4965676784844,4.41189648450752,0.898889798837606,92.7335562184095,-12.5502509698554,101.267414062107,-21.208646187548,19.2385374614854,-2.81838650899293,613.888203640564,211.490989020651,234.001891452689,-21.3821777613177,1815.0106044549,-299.331061734453,171.248669778126,2.9708353339834,779.167003226583,-35.5147680499743,573.018929789664,-68.3603726634388
0.0783542938808241,2.40238600938337,40.8271399971361,-3.03695613468675,-0.421562198866977,6.0996674417097,494.463469389804,13.9832360322863,872.254320385781,-35.9776161687786,2.36137658130416,0.171529515083376,106.942854953488,-20.1545695936838,115.348334124958,-30.4217459022873,25.6576589477026,-6.62070523252381,625.688400545792,213.786531215524,237.598818713848,-22.3086928000184,1853.22519847533,-319.953770054289,174.621715604326,1.66993198749162,787.204612310404,-35.8250989423599,587.88477152089,-69.4957690081365
2.8250078335901,1.65904520955517,31.1130139772266,0.946577901588655,5.66835029559801,2.58502403656886,491.716328063664,11.5835101828204,849.959200748927,-33.0407530422914,0.0736072301497518,3.38268996154378,82.7823985431124,-6.60694074645308,113.876207591017,-25.7297708767126,24.2699798234029,-4.28779551352965,606.048561948788,209.857376474585,233.416958898848,-21.0478192579648,1819.15703210118,-311.689061886386,171.505980743694,2.24898057013123,772.454663975011,-31.2003823440258,564.186284606968,-66.0293130563671
5.48076010306918,0.426013839034427,36.2351322806255,0.730884972162387,5.63168897929002,-1.80154504801443,506.905425801075,3.20948704994801,856.560794162711,-36.8494396431586,-1.43924149061376,5.32724146781493,96.4064655840381,-7.68681920448563,108.165466884308,-24.8178083516601,17.4229919405198,0.486847710788071,607.832523532538,214.210065807007,233.686072072155,-20.9784693934907,1805.15929785925,-287.976503466442,171.274864651273,3.07920037630482,778.151859825315,-34.57249829351,572.60642462089,-66.8433402099697
4.67441921602973,0.760390499499585,35.8015542248488,-2.97966870432627,0.573112498422503,3.01257114072519,499.577807762549,6.55603565713183,869.673035686255,-34.1444780953047,2.05013353530592,0.684853400871755,104.362774302784,-16.3825608543848,112.764238734836,-23.7322797628083,33.3131573978315,-12.239283617283,630.642181049497,209.95704039781,238.566782207704,-21.6689515561163,1840.56893040252,-302.681515064196,175.856611687345,2.04065174891417,788.255746789211,-35.9035341568386,593.37695233277,-73.1186497465959
3.13999412444847,-0.0939644964530909,32.2080943052956,0.525191076664446,9.92839372140164,-1.74435942574913,513.880916151241,1.49281881448254,866.910232373345,-37.374882177586,3.40775663241641,1.15679737250511,100.376978137388,-15.8552958378418,115.036946330364,-28.4359146930362,22.1054047582932,-5.3852441172485,607.341803356001,209.866329377078,234.631910263314,-22.161252989944,1802.51588539953,-303.094039248478,172.478392904824,2.23128259649987,776.843150831436,-33.9313327530034,561.517276629073,-65.2133201358735
4.26248595838642,-0.923903503042898,34.4979342165699,0.649390174488784,0.235278186873383,4.06037112224326,511.416204550195,0.339027796412874,850.68560170597,-35.1930817895548,2.37156147084569,2.83413221415954,99.501073437349,-15.7295762008306,105.701498216064,-18.1747784239033,23.8746782304186,-4.78583209311777,607.641951463856,211.623236764605,233.390602000519,-21.5650498205512,1798.49795312396,-301.1169907676,172.497011709165,2.64998250600316,771.403967335997,-31.4833152774664,567.104231382663,-66.4318342675771
1.74229259524224,1.21071971162225,37.5595527002121,0.291070775800874,8.34594469495745,2.21639818541515,517.908284598871,0.224585380598111,862.067290803846,-33.4616084432795,2.66335792420156,0.821346824435706,100.645648379952,-19.2273957232909,111.235006212551,-25.9584468474127,20.6418885195062,-5.66957484215527,626.366372056275,211.19055240766,236.679644630954,-22.0350386019324,1843.84792101257,-307.931804147179,176.341259110596,2.68492091238192,784.79358496568,-35.0081691752609,582.910409331792,-67.7271391810787
1.88213597822851,0.674315542688683,30.8651836919799,5.51085252286328,7.26161955089292,3.71678422022482,514.947119260421,10.6567564455875,885.102900749583,-39.1708709544861,0.883060799328962,1.10496450803987,104.805573789931,-17.5911230731684,103.363455738259,-20.786479275642,12.7171226851459,3.49524508125045,622.864737171323,213.473273151829,237.568704304389,-21.2429782534301,1852.78681889914,-317.476702064443,174.217197923389,2.50140500819206,782.875022472533,-34.2987712839847,565.498600127206,-64.6655076202749
-0.268521568332315,4.32709081625853,31.582104407799,-0.593280001267419,7.82088084583687,0.936671345711867,505.067112556504,7.61713527453156,848.814303234624,-33.0943343982139,1.39960271427891,3.45641779081712,96.0390026595872,-17.2699078736897,107.377933633121,-22.0850416816933,24.5862760124471,-3.28420687764337,611.928476815515,210.634518131248,232.09863372885,-19.955996113453,1827.0806677292,-313.065856221326,173.410695301452,2.27476519075218,779.126998487454,-33.7918005023968,565.656243406097,-64.7119739634413
6.52462931039931,0.329035839833618,33.3484650037831,1.06144436369979,1.34289619793366,2.96436053547924,503.425097298667,7.3492712948615,862.531386714344,-36.5282007219646,0.923885379385463,3.33489010999942,110.289134548176,-21.3201327954711,104.049159715343,-21.5810138574489,27.3302866904935,-7.16385241822774,618.168432572818,215.109548801248,236.415918782374,-21.4393982260918,1831.9142210201,-305.501124303874,175.706873008305,2.16595607806191,786.47575590739,-35.5065497818342,580.327591087429,-67.1343347045931
2.97596276126798,0.902501696267442,35.1240598645305,1.71429563522316,0.917333011035213,4.80938654399247,520.237924332458,3.02649799551613,883.486775415663,-40.0254536498953,4.2607066917317,0.267354355351007,98.0653851102144,-15.0090839085823,103.686905076137,-20.4859900386168,16.0079721059006,-1.04698580482096,635.482600395363,212.815317299302,240.086364470762,-21.5936089106438,1879.94098563,-324.611645072235,180.85329180202,0.859082325325484,793.336956925619,-33.6631076169125,597.718511639546,-72.1039697645893
1.84976295020642,4.8411162487772,29.3416113706101,2.76609378041708,1.28696422725662,3.22176415956229,513.817815112936,-1.19192068228963,856.102056480511,-35.8557915283291,6.14051290600461,-0.684777286118015,102.401814450248,-20.331585394725,105.225992825879,-21.4092304669096,27.98089844545,-4.68766950364393,613.733572784215,209.288369419285,235.63561019339,-21.5169436432449,1839.44990224849,-318.41397292285,175.469718102255,2.08414872693677,782.161204246873,-33.3025422635685,570.51181476114,-66.8994816442891
0.23186285807647,1.63991316090283,25.5736397888336,5.69149847108658,8.35840359127614,-0.28676748673466,511.013948646276,6.71009468165959,860.664788021923,-35.4675586662726,5.26193818625401,-0.297133825141514,112.261968160717,-24.6219635073868,115.563301011092,-29.307600472403,23.4966255020846,-6.58395121390799,620.654929966614,214.122124773679,236.080058805185,-20.6264521864826,1842.40070224986,-310.525143551343,176.444244202727,2.42202988413092,790.326921601509,-36.0264567515186,578.311908155016,-66.7291322376014
-0.988024165488558,4.8129575152888,28.9227830863337,3.70215232880299,8.18926330531581,2.3203572318145,513.48826519644,5.30364385831173,886.214044700843,-39.7397754883505,-1.31839471185771,6.19629535221319,105.449959468983,-19.4377260829538,110.614678889777,-25.7214189243371,14.706819707693,-0.848655558006437,635.883672594843,215.395665678192,240.818576088053,-21.413131406695,1890.69576998707,-320.825216945652,178.259996611504,2.8120398797259,798.115312573677,-36.7688410349976,600.722155219874,-73.3320461357498
0.237272868259742,2.44457459462497,32.090066767252,3.0059172813705,4.12274188185031,2.24076341341424,515.514336769738,9.79960334130959,862.605967214173,-35.8879415416014,6.64277129731177,2.08728911911326,96.9244613485673,-15.8104980604452,120.811697097007,-34.0157564343419,21.9219537784572,-5.36460440446068,616.38087320651,209.726345627352,235.684755883493,-20.7360524065395,1832.68102259003,-312.019597807546,176.047483953958,1.80250445860462,781.410283149644,-33.4463372441462,567.979090151036,-66.0161704026761
8.93121982462478,-1.1383453375397,28.0080669327324,2.59322674446933,11.4887061431361,-2.01502604241119,505.75044306266,9.43928558271305,865.913339144243,-34.1680092187404,6.61751617400587,-0.278786320990955,103.190755337105,-16.5575774874323,105.171897668513,-22.9663213951884,24.2255320485089,-3.98406728572056,620.233499431279,212.697962975173,237.628886191119,-21.7114083364008,1831.21401974142,-307.221350062223,176.67734087639,1.52605775425561,786.696112926027,-35.4959954907039,575.653191223797,-67.4809068319452
4.96859356528878,1.05864795689281,34.4883516495278,-1.41863853717606,6.92971664124928,-1.02421634255318,519.422491496067,4.5481792262217,884.182824421815,-39.0218126943942,5.81158958291845,-0.0261614533219133,103.025290866154,-18.2550341668501,116.748805962696,-29.560578113286,28.4563169743455,-7.99351563473169,635.026215667361,215.608428195316,241.99960808832,-22.3217208428914,1866.89621792898,-310.746116854076,180.129294532201,1.40870993322334,794.198059246378,-35.6587440689204,593.171584153875,-68.3043769768563
4.72682885114212,-1.28668182638024,36.6978558730894,-1.55343628819953,16.6067106839009,-3.872674407899,515.511505698653,8.10517054658082,886.625565585108,-40.0205814277348,-1.74821363155357,3.80308457478904,100.805017144474,-15.7080616958458,109.824152590718,-20.9881525725932,22.5786481199518,-4.41627379695801,613.92682679184,211.981019124314,238.845694947826,-21.8155920395267,1835.26681940057,-309.497989190919,175.14873525869,2.60063407323316,786.2990705969,-34.9163679772228,563.915398397621,-63.7248999277937
3.59626270166557,0.160367838508301,30.196846043811,5.31637637702735,7.16579323185862,-1.34185059088838,519.070950750107,0.663432673495099,869.620648983173,-37.5639123456908,1.34901857649045,1.44643068732074,104.666630681856,-15.6617549992351,103.158799956415,-21.3818575162737,23.6106923377705,-7.63955337989691,619.395209017057,212.146937525281,239.577980552492,-22.7733737418441,1839.78675658893,-308.09832531378,176.30102500639,2.4996832937182,782.170475590355,-33.0800002347011,574.082818310534,-68.0286138060792
3.84245400162085,-0.049652771848931,32.4360163570604,6.58775955111853,4.61392620538177,1.12987861399779,508.228433428621,8.59628015427877,883.932797958615,-39.3991619244761,1.51066227314896,3.73688483674955,101.295117917036,-19.532126784713,117.236195730399,-29.3402598208926,18.193569257809,-0.881813154507954,633.805415181243,212.685764014993,239.508127310852,-21.418154538924,1871.64925089668,-308.645931973024,178.519895336073,1.66509652921797,793.606062443378,-37.578663612571,593.362264259627,-70.9171923168303
5.55722983599719,0.776698040838983,29.5064750947697,2.95454618723046,4.97499416988934,1.23056151291453,528.864769304152,-0.975689069379257,905.046966046173,-42.7870190273774,-0.318456667844169,2.12929420051531,101.695937619309,-16.5902441978334,115.036082778133,-28.6060471067339,19.6870558305457,-3.40392127411701,640.092685715345,213.52578866655,244.95175006437,-23.5584383267616,1866.85194889252,-313.136764554013,177.528139583832,1.81584734622768,792.412749533747,-33.2767214955985,573.323274895783,-66.5909284309229
9.2276985539764,-2.12871608756899,30.5370152871542,1.35556220708051,3.47281477235559,1.31887994071374,516.493464309219,2.10294269147027,873.531833919576,-37.2418069002356,-0.862812820956326,3.24633209065925,93.8589254387572,-11.3733689653189,116.374347755299,-27.5219990801034,24.0136025197549,-5.54937467961281,623.230935941034,211.238914440923,238.828244384177,-21.482610496788,1848.20761835031,-312.174738132275,175.448243535025,2.53447626419723,788.4036447491,-35.3656170096709,570.456462425172,-65.5129658323754
3.71117255145942,1.90003410424049,33.3585758256642,-0.845627614980965,3.94030241317794,-0.0619565106205224,512.530359332107,9.75493880089765,882.760068617546,-40.2253461822301,-0.708078577904239,4.73154623828826,99.4565671262124,-14.1018400962003,102.621128954175,-21.4588323006186,15.4606102709614,-1.82376573049694,630.758664328606,212.738239993522,241.562336667399,-23.1612896431341,1852.56758366305,-307.995623858378,178.67991079433,1.29680191713119,793.968192618107,-36.0544109324194,587.643606404801,-71.0144983490509
4.1981931333368,0.0195691855752155,26.8358733404733,4.87358356150392,5.67828009761187,-0.79815740737515,527.898549505771,1.45030733853354,903.032729549962,-42.6502674295058,0.242426268919614,5.76952698356401,90.3416483893984,-10.8636931915623,110.75195226177,-16.1523018000278,26.0318104913036,-6.29549361547109,645.222904224549,212.146679585712,246.540041963436,-23.5707362220565,1878.15859727591,-315.788776773135,181.15936534711,-0.0970530060768186,799.388969890738,-36.7781747507022,582.388562223284,-68.2529227714818
5.35246044339991,-0.00765476833472601,31.4365362481316,3.93163121479127,4.83586214849695,1.60842275969018,512.989573713307,5.82785050203883,877.022079720062,-40.4181142927826,1.1465528226802,0.529512809731699,98.996836305778,-17.2303231476941,112.235301806357,-25.4233449396427,25.2498850372303,-6.94289877130737,626.153504296534,210.108944445729,240.821458650417,-22.0510680582086,1835.13943462242,-311.044423849752,176.819851902636,1.34766795182501,786.265360165908,-35.2486127039788,571.732474820386,-68.4513555740117
3.22179182450555,2.91214998009042,32.6088184560498,1.08529724611684,5.13439639129069,-0.757108460072964,506.758279309929,4.98826332081642,882.660096568328,-39.6859081085294,0.905015146473307,2.41217660704611,109.194945613746,-19.3897365078847,113.156855320773,-25.3611367866451,19.5771186264806,-2.20532108020153,630.387042327645,213.252253023863,241.83230859289,-23.4048237695788,1855.70409450488,-313.814041651319,178.786510619263,0.404424816576276,791.486601874765,-36.5622972821064,581.030759940015,-67.3927909027184
7.21941862429476,-0.963481730474976,31.7692149918948,1.29389129551714,7.15694745236499,2.65109561685368,518.682800195311,10.4712467642535,903.817202716255,-43.0567908245942,4.45720304762923,1.09424387325863,107.712259682777,-17.9827595923535,109.196669827974,-25.6709963738167,29.0956869693003,-4.37881272359325,643.50519553164,214.467096589219,248.088428644347,-24.5621579100906,1895.18267056761,-321.676057410953,181.731216437212,1.26497588466935,799.866091972684,-37.0728970228459,597.26826371905,-71.0921565354839
0.0670462347274278,3.64334793654114,29.8998552756424,0.158886307464818,7.76485193455181,-2.46017057041858,506.783569625818,6.10481867778333,870.575715227965,-37.0831353469145,1.1004475378446,1.365542084642,100.758460857248,-15.7644902029127,106.140505560735,-21.5913608878673,26.5444530003821,-8.08255407500348,619.688749525683,212.580020788769,239.031949672569,-21.6261552731899,1839.21827062446,-312.127813697113,176.651813044882,1.67590604675727,784.240007071235,-34.4320420099637,567.094089035231,-66.4073470486553
3.68287312288033,-0.488809045223404,39.4546655716507,-3.48304866479601,-0.38940969271238,6.69947980562249,508.633336772658,9.65105803161701,877.72827952079,-38.7998843246682,1.27144382631692,0.809598426673464,98.4719767256836,-18.8432389062887,114.497911787577,-24.9131870970082,24.3935318359619,-4.01290729419662,625.569167330944,214.926716817382,240.829434309495,-22.9102143114021,1849.79030337294,-309.794562259536,176.528324121065,2.46257864586911,786.75905446734,-33.4629608261011,574.309121986775,-66.3157806902451
7.85583478101295,0.757861042613585,33.3473222657933,1.44290266659182,4.9489817900229,3.10161042521265,519.09627173979,9.43096242204136,898.543187499723,-41.6701687766396,4.00539758168253,0.674290340735199,94.6057760466253,-12.3468448970448,105.726325259525,-18.6704709282392,20.8185437945315,-2.40854790030312,643.750374121522,213.193260390253,246.176343536746,-23.0697239312708,1912.60892983527,-328.956258451477,180.930369445264,1.85686780430628,800.94041711152,-38.9299132425742,597.588364776904,-73.2237121626925
1.28863040557086,0.519652012434674,36.1103138971313,0.0833206453093211,6.2277642190854,0.911506173006845,515.460498638798,4.53802131405502,870.970810782213,-35.711328464391,6.10249028962996,-0.603131170595162,90.7904514118417,-14.3602006577779,99.5306694180772,-14.4025084730743,13.0273949216691,1.32145710345231,615.544843439022,213.804766397887,238.056947583457,-21.5372923402606,1837.02862661936,-322.436778997051,177.309151986989,1.54515711807929,784.391547774313,-35.3373774817187,564.250511938409,-66.7887988025306
-0.964834593335833,3.99747326026058,27.2351113981657,7.35411722025388,8.41355545496951,0.516756575180379,502.024645878982,9.21432457055312,871.726039349091,-36.3865769019326,4.39034460481386,1.28981667069392,101.50441000722,-15.2533270503501,111.629883892389,-27.548204758756,19.7495290885925,-6.11402663510916,622.009126131382,215.029793395627,242.029771690273,-24.0888480759662,1855.70169158234,-315.555646047656,178.36255766552,0.916602109510202,783.261975443274,-32.0492207379572,567.113451585534,-66.309427642338
7.42749614403383,-1.21926642963475,30.7761990402562,-1.60566354405477,8.2135181772036,1.19965305447946,520.012889846764,-2.02892379661267,889.248379324201,-38.2252996670115,0.721298769885038,3.11783520615343,108.257178192508,-23.2968840410886,121.91469570385,-31.3566424179458,23.1558254380778,-4.52801731103208,638.321216281267,213.428657786242,245.652428790437,-24.0931504214834,1878.90209222295,-315.090255929176,179.18619716619,2.09143467737956,798.253971738763,-38.7633472942344,590.030768194819,-71.2057867711331
1.71346923234049,0.374583059773961,32.8295868634893,3.14431692170279,6.8915079644764,0.492579889389597,503.644947718219,9.15159270851198,877.330330582312,-39.4591342376553,6.47610935066295,-0.258988146604053,100.402592081946,-15.9372982624809,110.296928582171,-25.9754242335464,19.4381138222736,-4.56036180526258,617.217786801478,213.78978599844,239.680490669696,-22.1995941854115,1835.63615912386,-311.02233006925,177.746166166735,1.23577340624792,784.770689957964,-35.1168252365484,560.499898317326,-65.7835430793647
4.60738076773293,-0.678407724416635,38.4345191936186,-0.352593382458769,0.375938814219644,6.43430606707006,515.66009656828,3.07133950013048,874.113018656405,-35.8148023131988,6.56364907005302,-0.198636202467909,93.8179182660159,-6.85718493682631,110.481050291151,-23.3801827074956,20.2481154818214,-5.17754833483592,623.626149683957,212.181054259604,238.960623377597,-21.2426935461036,1843.19080204883,-305.186465420326,177.722722420254,0.893084416751672,785.819954498836,-34.7730049765834,570.4957222692,-67.5073157279255
5.49406530462863,-0.727453172806107,24.0903882490148,6.29224241060887,10.6506766861457,-0.620928864630235,515.63535480803,3.52266583000018,893.769103170913,-42.0192436309098,4.50988165391129,-1.55758281541489,98.8984734722765,-18.1284542768355,104.259133954802,-22.0443867518822,19.3806738233624,-0.802435301407703,641.608107984039,211.431535313244,244.144831180687,-23.6522785008432,1883.97005967303,-326.079919760443,181.192596847449,1.67344870517367,798.521028186171,-37.0502412861418,588.576369574861,-70.4553723367045
4.19054113874803,0.668373290541693,39.0033269655851,-3.14472761221034,-2.0660946166798,5.35682247163124,522.352847695204,1.31187152627301,907.2205450985,-43.9818534623391,-0.350092033412497,3.53987868732245,89.8468238817062,-9.04339620055798,108.846232414746,-22.1419007242569,13.5266249549392,0.289689973269952,626.208289772171,214.203227681787,243.461702951225,-23.7042331358037,1854.01774453682,-316.621550264602,177.22959986036,2.21428942761338,790.007711118473,-36.7315755292612,560.422004458173,-65.0320755147364
4.98615373392464,-0.861719699351541,40.8572082964056,-3.59843461144477,7.6691262363244,0.361635966039159,514.262362417228,4.31502026391063,874.634408556657,-37.7873826269014,4.06551413452856,-0.711229942514635,101.730307047157,-16.2174915272223,115.414788955761,-30.9794434253933,24.032703461617,-2.77035980982576,624.530558565967,211.849985550447,238.743280722424,-21.3760002744435,1845.07900450588,-309.055497012813,177.376027865802,1.44484630218589,787.447283703292,-35.010881474076,564.848473687145,-66.2003989688604
1.23390183273194,4.1054016640166,22.3185090633324,2.49526954579481,10.1664993932858,1.64124066121085,502.628310440153,8.89502995218437,885.282017356625,-38.6458461403759,-0.435140080749401,3.06380164179981,110.409442182216,-15.5167381559469,113.315788450993,-24.4810412502637,18.3663931812497,-0.472751728767169,634.441196007169,213.133519295631,241.926137917499,-22.984947815618,1880.93616000226,-323.837985659684,178.581165284249,2.00956271344495,796.284526541691,-36.8170220894232,581.602957121128,-67.5243636442548
5.93120513721429,0.32927650308509,23.8969289127744,12.4812554248898,4.14106571441379,2.33480314546007,523.604282507233,5.16452968327526,906.346016127061,-42.0160207496106,10.9579518473147,-3.20772309562921,91.3721157526715,-8.58775358596524,106.855296619591,-23.6186718336916,17.2668153741977,-3.0160526759616,645.752912529298,213.984455390829,247.418526186655,-24.1246415175796,1905.7486208365,-327.19018820781,179.456308130228,2.75897837939355,799.226753903919,-35.5693558966175,579.401301332804,-66.7047539868153
7.37125877123744,-1.34543017348749,33.0267768889274,-1.5084873807831,2.42919856056897,3.12482967010186,502.95352944717,14.1080934592034,869.643745835624,-36.2400309623392,9.47615876709093,0.0652006249938851,102.287912235532,-16.6549864844008,108.075711597846,-25.2169392968513,19.1352737937752,-0.412189827641772,622.845596179357,211.720661030723,239.712895148905,-22.2664956125407,1818.86795353497,-289.025607158955,176.58732442901,1.88904566835599,784.40633304407,-33.7464838408604,564.734486264455,-65.6705995485702
-0.529867496684505,4.06206958841067,23.1717215421065,5.91329249181255,2.01557296438002,4.04384943140043,512.68513879571,7.57906348539686,874.078659164411,-36.4864595011979,3.08178598450061,1.69323256252304,102.259319138027,-15.4288028485505,115.548177512443,-28.2632705041669,21.5354228714422,-4.00148345316522,631.927791126415,211.119969398562,240.735658606668,-22.7159930007723,1863.50126755273,-316.054792585788,177.776129510075,2.29038984663561,790.110705774114,-35.2893168464793,575.740413573191,-67.3880182354449
11.0014804218974,-3.40399994826251,29.6078833958968,4.95624893842219,6.08921269467817,-1.1826835758919,504.167007864079,15.6217072369448,900.053524159886,-42.6629814508344,1.35697207222774,2.08168484966079,94.606640318687,-10.7496326412141,114.33004587197,-28.2524405868804,15.6813598020585,-0.501368524313717,639.654071169557,216.175698930132,245.815949162552,-23.7459220967307,1899.50926160184,-317.104409356875,180.733752314491,1.62362309653176,800.297296722533,-37.8185449120268,595.776650877094,-72.123493564889
0.957473597329427,3.20090146566372,39.7544125127527,0.845534124458905,7.99020706795336,-1.11530239774432,507.541448116408,10.8838115341429,869.24513001702,-35.6384989816022,4.30849416393831,0.282132804489735,95.1759582211609,-19.0374605853865,114.136653667632,-30.8247393970965,26.2497898900798,-5.10196552914836,619.964389726218,212.337172592917,240.638562380786,-22.5354248562392,1820.86176568273,-296.881953386695,177.101612501423,1.93934548479025,786.238031569506,-35.2905701890305,563.454160823625,-64.638481009748
7.34921110315644,3.04548920529402,26.166643926282,3.89722837215532,0.311135017124182,0.859873934583894,505.83308177252,9.01723708974898,875.429011680587,-35.8382366411301,-1.55565880120858,3.67964611432473,96.265098231193,-14.5175939651149,108.660242737944,-27.5689896165024,18.0806268850501,-4.7544736697981,626.417990573874,213.471783591715,241.099200875842,-23.2982224514731,1870.58601886612,-314.353031102669,179.676715017067,0.333741827740415,792.370314402307,-39.2842195288247,572.764973308481,-68.5220642433508
4.61108518249654,1.85338214479834,40.517856477425,-1.96552247565469,11.1677413510783,-1.15110388906619,525.064312398171,-7.31933345938986,895.692351811249,-40.9184685231399,1.66401902303105,1.49468872402597,101.624430755745,-17.6552087862867,114.486215220604,-24.7899822344659,27.2944957800791,-6.93287108011287,639.839985024123,215.592772408645,248.708204151127,-25.4968182724312,1899.10773571416,-324.833459943975,182.956847970309,0.705797453290591,803.537780924889,-39.3101301333306,596.216892717439,-71.4485737168673
2.39624601906315,3.03316756407717,30.4100273837522,1.81743905366031,7.72518778897928,-1.92468010603297,505.971318967505,7.03320432546783,872.052362924495,-35.0683287442699,-2.60505059339532,5.96643991379832,90.7128828266139,-9.40283853500107,109.923917568449,-25.7438261292689,19.2674901240731,-4.01051865928425,618.647266937629,213.76509714624,242.14195843187,-23.1270770463711,1860.84398734645,-315.200018154009,175.628280333951,3.14946623580194,786.168247318521,-33.9397167681867,563.139025596768,-64.0728596284283
7.73015032867634,-2.21080106521919,44.1271410701907,-2.20601877447204,9.62043660585984,0.390214613844863,501.157656586796,10.3039134768244,873.657117922285,-37.2954062519418,1.83880480852558,2.81038633524149,103.621690700171,-17.0130409621761,110.620430740402,-24.7632696745666,21.8586200858805,-0.924296732592235,622.357002051996,215.058944384245,242.47319414563,-23.1866041656114,1861.07058787872,-308.376929982999,180.50449187456,0.333957812608752,791.305885590721,-34.9252557869611,569.370321459645,-63.651047630542
7.02359244581597,-0.895421845700122,34.0416206793214,2.14264305210949,4.62040075387965,4.24823621021826,520.456900014618,10.1215209809617,894.782771126355,-39.6935175984871,7.37779074789234,-2.75261395431854,104.113394717121,-15.7718172135958,114.154390017772,-26.586691388049,24.3272665964731,-5.20348657522833,638.167454408603,216.432532304048,248.965719060293,-24.9344217578394,1902.64218315458,-328.646125527141,183.294183439221,0.89942765945511,803.976798881133,-39.6081558778455,594.805915473444,-72.4749489267634
