30.8233299692091,24.5557938635565,68.221989740882,4.00221461120987,29.1267846254063,3.59146189129931,110.162602039119,7.28646514124494,422.925836168899,-30.1325959177659,837.634675006688,109.723709450175,1785.30279359604,-163.575355628246,2244.92125279475,-146.65769750137,875.480088298173,-19.1307266770061,147.096712895063,83.0270325914794,503.211836373861,-75.7273907798382,312.759509019532,-5.99024368410484,342.864576595919,50.888382278261,1391.16458560773,-0.262535943921951,1819.09723279987,-297.420956213852
29.6699072375939,26.3201899779767,59.0375431996911,15.0929348611461,25.6340563966548,6.33360345280221,95.9888023224808,19.4843986520845,420.636830348123,-32.1308515798227,820.647905113865,109.180076926013,1812.98191138964,-182.42308775458,2267.66935532386,-147.566188748772,885.060021715262,-25.4638541206765,161.818995203484,76.9027793961939,499.408986577533,-70.464037257842,317.327271143738,-5.65575195171622,339.849656302781,53.7450168688288,1403.66470024544,0.356960423418279,1840.85866391613,-310.751276107317
34.8474735128687,23.9766406948608,64.3112228058937,11.4956886366645,24.652037336759,3.91125145807589,102.274365681157,17.5685719538044,431.547010270481,-38.7599759472257,845.646352733451,108.269366890769,1830.80292323482,-174.721307509748,2308.60647463382,-142.844648558886,900.169834651267,-29.9676746370162,171.039185922381,78.2641080972072,515.02729929589,-71.6883890372144,324.534617806529,-7.78463728495275,365.908665178141,41.9164379711442,1439.89065565949,-6.25330335591624,1862.8644269544,-314.239751846493
22.5701602098705,24.3457836774079,71.7985251769641,6.16330645966797,26.6375522496442,7.28194628637079,106.410770366127,14.4193164509241,419.037375741272,-28.4420021759371,810.481383400834,117.575908209532,1772.51655861672,-162.751408028301,2252.66910363696,-136.110270123385,877.30977995565,-22.0718242801931,149.148755141325,78.4145032259124,487.915672972611,-69.1324375756416,312.955687165324,-5.5267019045638,345.32819824322,54.9600285583709,1411.38761743283,-5.94362780604121,1822.52106551131,-293.247433443383
27.2430813991357,27.4029733770523,69.4576507096046,5.66974940366094,22.3442870023644,6.95491710669892,104.132024724682,9.8444723922385,421.006656577075,-36.7835208140523,828.694055926708,113.198506815966,1780.81037923328,-160.051396411675,2269.13758259134,-154.390142561975,882.288705160086,-19.1148094998382,159.497495813561,76.0673654826038,498.732077241939,-70.835449951691,317.141253329926,-5.61754220664603,345.656353478503,55.6452448911829,1414.44524561962,-4.01015987516577,1847.69701734703,-311.091427567122
29.5245200429082,25.8552691399009,69.2521862554295,11.230884523872,25.1369214906739,3.68318223692441,96.8201359656458,19.9607698685272,449.066229945713,-48.8767323147552,844.520797080678,108.445347194697,1822.22390256652,-167.331865634989,2294.0749931314,-150.521513913565,899.116587993168,-26.8135897793932,174.201451668275,79.3257380123703,508.948844506673,-73.086577813246,322.711136702748,-7.63551873871548,362.085967911246,49.3976709271703,1441.56764276002,-8.19920750316457,1876.87336214118,-314.847383528099
30.1055410756939,26.2628960345869,72.363194501934,0.341815539092383,29.7556743901852,2.60677188174827,109.519408349652,8.03032971421678,430.160173145642,-47.4415865441455,832.961403891547,107.639540394548,1780.754754467,-169.329601873283,2247.18824629262,-141.540068471762,870.806908755922,-21.6416316028476,159.028935858001,75.8717333157767,483.36945663005,-68.6742683721143,306.424309224901,-4.84465364072252,334.084283237944,60.8588152709067,1424.92379827539,-2.60814659512707,1841.55613137311,-313.748264206331
32.8521482865942,20.4750264174444,71.5947213982709,5.63016924512159,28.4587157353535,4.53403945765441,104.067977573423,11.0637501820478,418.236844577086,-32.6766410745883,800.392260621447,121.518106394141,1772.74339379324,-162.40958029434,2215.60853989464,-135.408664406345,875.840358387903,-25.2653983700404,150.35446666434,80.1591088591604,479.028665778917,-62.9953348488876,307.570579388202,-5.37020037882785,359.108049771319,44.1536793298842,1413.9891983971,-3.58499904892578,1827.78136113913,-306.520929538124
42.3154597578477,17.4195789203211,69.2912025158683,5.64354729363211,27.14261072351,6.75053961902357,105.6359038519,9.43502202536447,429.508818075759,-39.066147216687,837.99861471698,107.402759796376,1822.01792721383,-171.027690586445,2281.02068815071,-145.45233444217,898.92706564303,-27.0985039794768,164.918813725118,79.4226125890896,505.343585731957,-72.5662004013567,317.106030242813,-5.64400821392944,361.058650793817,49.4733297872757,1443.61834740835,-19.0985929885522,1866.10144161468,-321.503080494609
28.1763773045116,29.6539071922801,70.9507036009818,8.8394356463079,29.017522362575,2.37898207471078,113.611121192752,12.0202564431821,434.368636440413,-38.3742889432648,832.596482031537,114.581698757451,1800.67161595151,-165.419724434194,2294.23930954768,-140.502282152283,884.674235249023,-18.4884295480846,158.720792376049,77.3827424947435,479.468888050863,-62.4315310079444,308.638209793704,-5.89230056144709,345.419244632481,60.0636153791435,1407.78926937918,1.5163345042699,1840.59203423061,-314.977680405826
24.9454794805391,28.464647753647,70.2058310721895,4.65824873416652,19.6007446628991,6.33199223272879,103.043719771608,17.6873719739811,414.226278289439,-36.2404691324108,827.986742695481,109.058856269876,1774.0254700926,-160.080219931558,2256.31603811714,-136.145691006714,882.485961295166,-18.7212087765485,158.987362679683,75.2967213945839,485.009624756547,-62.245189948616,309.962508959934,-5.16251250713722,349.944804346619,52.8460604490864,1401.79863510548,2.99798555229377,1827.29299102021,-305.840357510623
34.9235706075317,20.216499924801,72.6667527845037,5.84017566919409,19.0262248917789,10.0260131538855,100.00889102488,11.5605513035204,425.325948597535,-33.3509627292588,808.900411231428,124.865531492293,1805.37641902625,-167.665812033591,2287.26843740213,-142.49972854939,889.292382930611,-21.339502640089,164.522102133115,73.60568921002,500.363814250696,-72.225884049019,318.243142136521,-7.48118366609529,354.774127754989,52.1305678779843,1430.11273301293,-11.345243939522,1841.16047323094,-310.688288412921
25.6741831187515,29.8503103869648,76.164157202769,5.10454855724874,22.6290005075624,6.58467799595271,99.5521915888067,18.8929859570474,440.858888837619,-41.5021077867345,823.228262178278,122.488473505685,1822.05462383464,-173.820062564665,2322.27481762894,-149.1879513438,913.089452856223,-26.568555220355,162.562388117793,79.8036187805915,496.072111887923,-70.4912426753295,314.374051197308,-7.32352436859097,360.471194057241,50.2112973419463,1415.15295250877,-8.70971768042754,1850.77831702124,-317.468501463296
36.3794485483079,20.2714017389229,63.1573818371736,9.18548886590809,20.0996793085003,9.0706147173653,106.684804514349,8.27326928765917,422.255126840652,-42.0454435836311,820.828339063079,109.535347242824,1770.22574549573,-159.009390353533,2271.30610531373,-142.92782479943,874.726837350023,-14.2213494344856,154.09440589696,76.5087407125209,486.670046523886,-69.0012569055407,309.768303897528,-5.0089947012394,349.438131631255,51.3459978207886,1392.68847587801,0.194919615113028,1861.0939741384,-323.342245373012
35.3336704009736,22.3842496882077,67.6825580209535,11.0711303683767,24.0288905268548,4.9008968191523,107.848316014676,11.1846423309007,424.150470765844,-37.452940798916,807.707671043986,116.254091699054,1793.22937482851,-165.944062681882,2279.37856428051,-145.490600295336,898.631953592516,-27.8621934503421,161.007122987216,79.4972062040278,492.482219532468,-69.5023870062546,316.841928063057,-6.7208544663247,358.184958553976,49.6165864316439,1417.60557519081,-9.84335400336042,1839.65080157275,-310.55807971486
25.4553680885233,29.0534963428239,72.5145085501314,4.84345846674235,25.1330237657596,6.7252452767768,109.45104040036,11.8896167944244,422.724382545937,-30.073080861096,828.154762413882,115.085471096866,1830.37033451729,-178.181220004067,2310.22547220937,-148.368172767125,910.320673274207,-24.4075401962178,170.121432604918,84.4053940292951,499.299073654309,-67.343855236807,316.759925163952,-6.20031809477089,358.162968741829,52.5496712179975,1403.64764728307,5.29303352516676,1858.57841396972,-315.480032648843
29.7452813499365,27.8383995966421,67.1344855341293,9.20676936774113,23.4996297100482,6.74049793352523,100.103966428297,17.3266023445281,408.489163812549,-36.2417201120555,798.548169429468,114.310832860764,1751.68475519246,-158.282510648652,2250.38665828827,-144.36848982243,882.181646047285,-20.5846918697254,143.601910371228,84.1443537318961,486.293282953328,-69.4312501295558,309.274662422163,-5.51219125608613,354.823952445809,46.1630002589998,1388.27389902799,0.856165123198352,1823.01904916009,-293.886888617932
21.8745917362347,30.9060250621938,63.0712770051637,10.7246709101986,16.2515427353663,8.46640311079637,110.020955294879,11.9344265790402,413.360769939173,-34.9769327930958,799.747833237269,115.15934345865,1771.40370300466,-164.002403487542,2238.97265924368,-132.822535836198,869.814541936262,-13.4547036751371,153.547731069612,79.6092973066921,494.135996061856,-75.3174439653486,312.327373071666,-6.03982389479026,362.379251238831,45.9659044774476,1403.26215760478,-7.49718030371496,1839.87245951017,-317.131051819298
36.9570342378162,22.7220957972416,79.1673801429435,0.167653548116165,27.92691705431,3.03298604687903,96.5256436092506,17.1452168194966,435.833887608767,-40.5471631498161,803.897557066435,116.587042005747,1790.13801000632,-166.903104631599,2279.05394943206,-138.450588282584,885.634031269897,-16.3164638344611,151.945179295645,91.0769270974497,499.262405026484,-72.8098530226711,317.174204885213,-6.93053649066265,361.017950705683,48.0056674006826,1399.10497434615,7.77723437211995,1864.90667503898,-325.633683983215
23.5541767430276,28.3584187225113,69.7194793028913,4.3229981217912,26.7865042698754,2.31277701923282,87.164857894292,21.6975922676316,402.38086482311,-29.1591698834408,791.654304996937,111.167270867846,1711.3614016589,-139.750837384382,2203.63560460625,-134.009794046136,862.763247601085,-8.49572975975075,144.468863248521,78.4619030300636,488.904167325942,-67.2662303664465,304.825251938701,-3.07622225260314,347.086350907748,49.6977713993112,1385.21881728375,0.112440391226119,1816.47703020159,-307.970245262867
31.24983406784,22.663850078281,67.8652091461026,5.72260299036472,27.1953811994026,4.37406003422429,100.554548829597,13.1781980508863,407.840508617406,-37.0362705083392,785.338217863491,115.368367614559,1740.2192397209,-156.525197265333,2209.22899049803,-133.831139538106,865.440988900368,-17.3776582967951,152.433179649389,81.9833188425104,481.486540744679,-63.7446322482804,307.356624159335,-5.32576761050243,347.307700881328,49.9104742565831,1388.56185727525,-5.56515030353114,1812.84968423677,-300.942714294007
26.6597715681832,22.972143782455,71.2777595353743,2.02505896521044,26.9852151396091,5.6315314151104,105.315236397559,12.5879584393044,405.023418273901,-28.1365788221615,791.323871078212,114.980658942909,1760.81653363389,-154.625068522958,2239.51978957159,-136.439853907706,883.501556631501,-23.1699249906505,158.412845320805,82.8950171567355,488.939170354263,-70.5766194846278,311.800273242806,-5.73510464570951,349.004751330708,51.0158877808926,1403.33905574616,-6.89346949909466,1841.79105368872,-321.182238097059
28.3725008765982,28.3831612615402,69.7076845553258,8.60272905258025,18.7895769684235,8.11873717061738,96.6025104480062,13.2453754428995,407.36134190864,-33.6525884273038,789.1650623856,109.77185801847,1711.33591385388,-151.083243582919,2188.06015311671,-130.666774256823,859.405769920503,-17.9255662893012,143.764018148593,83.3580677630389,478.282242781952,-68.3735692611523,304.44839924326,-5.3899403874793,335.967518826582,51.7548770398824,1364.43640206512,1.20042009369543,1815.24195424738,-306.080893133555
27.6240669036097,24.7635059649281,77.4257486971188,-2.63252643144259,27.4743763916486,0.981729534299408,101.852296280818,10.3927428285484,417.840354785846,-38.8290295873552,770.085902359569,120.132228841921,1726.1110282065,-149.609157662574,2194.62725136665,-131.676973312241,883.113962020802,-29.8548105683793,148.784875477379,79.1550005586046,484.429029845539,-70.652215786748,306.67558857443,-5.6897666855416,332.975909862478,59.3839883968201,1357.60201904956,7.3133985076274,1815.46449189805,-317.633813206825
23.3061982623572,30.3015542100884,73.6382968903742,7.32845435020035,23.7695395336958,3.31154084350389,104.925014131749,12.0502474235638,408.829004762888,-34.1318805012446,782.313718151756,118.658937557332,1717.64074026768,-133.784480560392,2217.36979239691,-125.410176057973,875.836863604642,-18.6391393261593,151.598135723663,80.3037540622447,503.529640609672,-77.3221746452271,311.110189955513,-5.816133924292,351.437945230671,47.7771855473888,1384.15491881355,-8.42661654240954,1832.12252523652,-311.611227047855
27.2149742654801,25.2610330477668,66.1270384355932,9.71243678529915,12.6818696473218,10.1964308359684,99.1843377261763,16.39991093431,422.374280743172,-38.7926374770224,788.209523728022,115.880814042625,1740.54499637458,-161.350214575988,2216.20441895249,-135.054273433911,871.460948120732,-22.5354037535234,154.270585297591,72.3068598665074,479.297814144515,-67.3863736618214,305.419403835546,-6.80022709365267,332.917704182498,56.0201407405833,1375.40071964008,-10.5591294695006,1785.43518654009,-295.793489694934
25.9447554008577,25.747672271302,75.3034092098414,2.02143147730629,32.4755922368524,0.523439399366743,97.443106920628,17.4892783570827,405.946651547506,-32.5661177864309,770.776889275446,117.248214738374,1723.40011489668,-162.439656975176,2160.22556867713,-111.882679584991,871.92510223052,-21.8847224561939,143.959138149957,83.3131096595675,481.0937536951,-66.7624015964472,305.4069349995,-6.30013276641466,337.3186519063,53.0746528062664,1372.5188840726,-3.48284999264795,1778.85282582332,-287.588668359457
26.9463880579897,28.468862533133,72.5784532791836,4.11349253980104,25.0846568744327,7.20573670996439,104.823608924713,7.47420913475741,414.810110249707,-37.0452018704238,773.442772319432,123.340647660608,1724.60891068438,-143.360300296216,2239.13573094067,-146.52771422689,883.160248501513,-23.4250687007742,151.840018794718,83.4489898252366,496.909097029681,-71.577285599004,312.366351227674,-5.94725731131179,348.844431909137,48.3685301988127,1365.89954647548,12.3277462649394,1808.07686641361,-303.12265017432
34.782545640497,25.6319538111123,71.4001942388864,5.39876323009871,19.011362367837,7.38962133653439,102.417571925213,17.3255834091362,429.278215056533,-37.1288015572161,800.697489802267,113.75594711235,1780.39553327348,-162.873318285056,2263.84645852674,-137.22229532273,891.969833321872,-23.2842762902621,172.889438242651,76.3077381675152,501.372694465965,-67.4600834068938,318.19484057553,-8.20074974253946,355.954007428038,47.2505148935215,1392.11549257641,2.25060018628205,1835.5172778706,-313.559298153361
25.0015597333178,26.9425322293296,66.3849158133484,7.26288160056995,24.3334098788898,4.77483051898895,102.851723178058,14.1364603200104,399.064544173204,-30.9210991853308,782.304201733625,111.821271922988,1724.50109408754,-153.991548763667,2184.32035091926,-125.618475348025,868.943106168929,-17.7983808876591,143.821449467991,81.0843184624737,480.30634440037,-68.3032326243727,305.011998122023,-4.93170169414448,337.979819977013,50.6436278144786,1369.62437737576,4.20026490730269,1803.78938118033,-306.333861860851
26.682998649358,29.2994464809786,62.6530969663593,13.4312184624639,21.6768809378836,8.26919611898079,93.2790400986153,17.9434856419083,403.586138372371,-30.488635685734,759.794871285697,129.8092228052,1720.30861251581,-153.989190225321,2213.14987841211,-134.212131551111,874.074585086938,-19.7120851795324,155.597949884889,79.3260360334583,498.998554349609,-72.8960131766664,309.60797755807,-6.09292820982543,346.101774725412,46.7236698078999,1382.91997435893,-0.588663867521219,1799.26181062065,-306.757010945735
39.0112736648896,16.7269192631848,67.4549277319613,5.03814468800724,19.4348443070948,7.55971836089529,99.7342919100933,16.7477660724242,429.782213793047,-43.9909969565429,788.463205641472,124.567605731624,1761.46275052574,-162.822892735238,2252.10288358871,-141.116935240793,880.79368577732,-19.5259901655764,152.657098892689,87.1663142851906,506.186768401976,-73.2420252737302,317.819520130952,-7.56084218659346,346.890397941861,55.2179795606214,1372.78670848313,7.30449759103887,1832.38139792137,-319.949452566259
34.3821416346497,25.1979364459804,67.0805721600144,6.84672941014301,17.0034558876957,8.9811691153544,103.252697410394,16.1872258398338,426.458507493469,-39.8786260490173,781.393000151012,116.687662716917,1728.89370264396,-147.856673965926,2230.71147864378,-158.404335834428,878.848781834083,-24.3434041087488,150.141305938691,76.6493823990132,479.837709172871,-55.5602527906618,305.627054876988,-4.85957497050671,348.403458379717,51.0168772929639,1384.34508945093,-1.87559463377953,1792.73386759023,-288.621011687892
27.7370332911397,25.180418110147,64.9694836616186,8.40434772973006,21.3420284168267,6.93364061704029,88.8546717619549,16.0236844834592,411.31119307168,-34.563084295968,773.68046641438,126.220494267582,1740.88843486208,-159.842686490553,2213.40145434502,-136.03103523218,872.553977027201,-21.7962086945899,149.749036829529,80.2568461428535,494.169397139997,-70.7497941429115,306.217941884752,-4.22779966899629,342.920341048704,51.2465687528461,1376.35339964339,5.92889161051707,1808.7405983044,-312.858215444332
24.1009883330855,29.154733537704,69.7028871003173,7.68139609615193,30.4753777077448,3.93384842303239,106.431162563313,12.2212824904726,421.581163542025,-36.2025937332228,797.947137324185,116.826051312326,1766.81137054731,-164.930224115501,2270.67504965169,-147.837210707644,888.536711913867,-20.7751427428893,161.511444633533,79.2767174970141,506.855983078002,-71.8612025030439,316.720277340738,-7.87030966522154,352.904809993821,51.7412820938083,1393.88583153005,1.59609787956955,1827.39512391137,-313.068257122644
24.155618039104,30.0578951317005,70.6904241400805,2.22604911881841,16.8556426714672,9.47438850728228,103.115885561891,16.9577296466741,429.851625680154,-33.8396554189825,808.205105329238,116.150730215333,1801.54446151553,-163.630691845763,2295.18671163351,-142.941274466591,894.986913187816,-20.1206939790551,170.339404868763,79.8146417435598,514.079858309791,-75.2874791471012,318.939766479328,-8.4228472307374,355.131957306588,50.2837180272229,1399.69260336231,-5.32175718739761,1822.55813929462,-313.136260092615
30.5480187058906,26.9165072860256,74.9223930002555,4.08714490732272,24.1045623863218,6.86999266526252,91.4607161794236,20.2879797395161,418.639295084562,-37.1530653271873,790.546431066577,123.451571230635,1753.69150095453,-158.232939625906,2237.80813835224,-140.66681978583,879.943385101539,-17.0965045076351,151.847570480036,77.7495374702286,498.509960467282,-67.0825087515099,312.352181794197,-7.19446967942908,359.176137115195,45.9231730356444,1394.9269715113,4.14065194890136,1809.51820626935,-312.520092573718
20.8686443087945,32.76205812857,66.0395827490135,4.56484363352927,26.5415225996221,1.90386318800709,105.638925259671,15.702801082707,424.951495892485,-35.0513052780228,802.983558228137,116.190963276851,1753.87914594352,-150.995592390778,2255.76388859605,-133.36726085308,879.897365338898,-14.1011201943968,165.383834357152,76.667599858256,510.953219345773,-71.5992603470053,317.176869808226,-8.73907948242936,358.509777686069,47.9829645599274,1408.4406111328,5.04127332353146,1811.62019052598,-305.23737627836
25.4813523819459,24.746901560256,71.9707368109629,5.04081528928853,20.0073869956121,6.60284852466532,99.7182180623798,17.1704400615001,428.500926865109,-34.5133703976047,825.104292254096,110.992410477064,1804.34021239849,-167.855091688699,2289.71527028317,-127.669705689957,912.521635326604,-21.627357948466,174.875452425399,76.4184637719098,527.7119068262,-77.2770612053991,324.143513322902,-7.90237038612835,365.982544103749,47.4014467633859,1412.78533169877,2.0852862151967,1828.59188899008,-305.070753033643
25.7173669031912,27.1343818577478,72.3956376886246,2.88858278077582,27.2160615784244,4.44771703919511,105.104200704053,14.8293299868952,426.442432454113,-36.0183190873466,801.015908981457,118.602704148312,1756.27520486,-157.092317217294,2261.4163789407,-142.008622243316,897.699565399781,-29.1344280405326,144.853857698371,82.8409801802842,513.229591267596,-75.7955703077,313.568488619112,-7.39782164123511,354.842535217664,54.6023345566834,1384.11083547385,7.44970237719197,1794.48180581667,-301.669749009559
31.063395886333,24.9572736477347,70.564454315074,2.38185580396805,22.9102710734074,8.01820338320674,102.788570525194,15.4456979734217,406.808325574268,-26.6830309991923,799.430408929224,121.124130869831,1773.385921244,-158.605571779298,2265.02088191456,-138.291020757356,894.306099970901,-27.0717701688634,177.521618180799,69.1784965142429,516.490325733953,-78.750227553114,313.900932204092,-6.72391464278898,352.124921301339,60.2300403961343,1401.68851721534,2.25027415338324,1799.80420851187,-312.748471510409
27.7315936580749,27.7862327776069,66.8349357133411,4.83346138053323,24.9527817021379,8.16774590766341,107.482554547837,11.6937778016333,427.664825796144,-29.9024819203337,822.188047931076,115.368106558058,1793.09721374243,-162.191610451746,2315.97307387111,-151.449687640618,907.907103027401,-24.5136854273931,174.939250195068,78.2039029294909,524.435878653965,-75.2552935203817,320.069094291155,-7.17815765822588,375.971281635903,44.950689750195,1415.55393672856,2.21773448632505,1813.34488957731,-311.130459176591
39.8118320258519,23.4698551018506,68.89021801627,8.19323806184841,27.6975279561196,6.47431146044284,106.294048284101,14.0388078002693,434.94685389606,-40.0335359381755,827.731271238649,111.6037868425,1782.74880364184,-156.863624614127,2305.50651834082,-147.457712072039,911.439808121541,-25.718847097931,164.279073095995,79.2292217153487,519.821403184214,-75.737335216335,316.013913412226,-7.87819998904706,361.679067387523,47.1476392002379,1398.79474281461,-1.9568857763068,1801.32926893802,-314.597286807934
26.3874711517054,29.7426278585646,74.4395143482018,2.8551304251139,24.0639931248428,7.38786870980474,95.3050681709954,15.2237912632272,431.510223719831,-44.2176868470921,827.061302997235,104.69313271826,1783.50682351295,-165.293108825275,2261.78528060626,-140.036158629546,888.666029695991,-20.7133181065516,158.831490752277,75.3256327120802,517.502839029323,-76.4214529030724,315.056098849497,-7.70536405123886,371.61297469049,45.7230386255374,1408.72384123676,-2.22450171692245,1780.01573718424,-308.315158424599
33.9490546527996,26.9449259448902,64.0639797858132,7.54587935849471,23.8793903700078,4.09057549336918,105.040095917001,13.4344088265284,418.996491474281,-30.7975420416854,831.896959718354,113.656386234985,1811.66622629513,-166.990909333231,2330.28729197997,-159.473823635899,914.48653473538,-25.581657523698,173.085345826771,77.0089196203169,524.15037374972,-73.6800055999119,319.812581922456,-6.67769688530079,354.020037062318,61.7568860613632,1411.49661781107,1.94254988583283,1811.9399867015,-307.594228209089
39.5790275626064,17.9615253690487,78.0543118655854,2.234181124762,24.8907608832147,2.70911608226251,108.887559751729,14.1702972110933,435.065792274528,-38.3942563561606,835.425984989135,121.169172844385,1845.19562009567,-176.634593351466,2377.15309360221,-167.540651901861,922.092031116057,-27.6081593907014,162.014149707674,88.7085229728436,533.074973767295,-78.4485471493781,330.215352359528,-9.28057807641651,372.683122474905,54.0090805168302,1443.67238194385,0.920627889236113,1815.95739519649,-321.567377634191
38.5308618817205,19.3186490118763,66.4616822110068,11.0293540173063,24.3377197815457,4.83816937031944,107.800345766268,12.579097708131,420.722399455333,-33.8440477535723,826.26281232156,115.768230914399,1793.27870883587,-169.876670704687,2283.33767314555,-137.397513454024,907.112639882673,-24.2522876929388,165.893460626143,74.9625429594357,511.523609346185,-72.5540518232964,314.812331816771,-7.38271654248862,368.661757143375,50.0430855410445,1409.38925417163,-1.29104085603573,1765.46377208648,-297.413174701056
32.2993771447352,24.7057515434527,62.8885451943551,13.6439258165882,13.0269209965561,12.4220936501123,105.789922018844,16.750069946003,409.075995909937,-25.5018542735606,814.048252653504,119.62329117572,1778.47443474759,-152.524500012818,2293.00131008734,-152.331499865719,905.26581260476,-28.5100136026307,161.468415029157,82.9664511482815,513.266205693721,-71.9867148260765,318.496667541437,-8.13099699714575,372.954210699694,46.7826391564918,1401.97027815062,-2.42552994341025,1789.95259653615,-311.611145721532
29.6869220206986,27.1442821365899,73.8006124914014,5.53341211972548,23.7033460808153,7.08300321059143,98.568946147984,19.5805063522471,439.031608304554,-39.8345486483037,827.060406545033,121.2094993389,1812.30418003562,-168.99109736075,2336.83024651909,-156.016020738249,924.550726537686,-35.8527902125512,172.449864537941,84.8841287792616,536.336277767029,-80.2437332369783,325.230006599334,-9.95774895362392,366.297944478204,54.9146950240259,1421.28429941417,-5.39980793427027,1802.88565254487,-314.334009969142
31.888908937099,22.7788905116832,74.580026379055,1.36992468852841,24.8813899366224,6.34005422503988,100.157509151446,19.7514871612637,422.353058991418,-36.8994581065311,834.024695777166,108.616279978663,1782.03691849309,-170.887396000451,2301.18414205568,-151.412315032726,899.247107558837,-24.1076429351434,161.835046335714,76.2116112338181,514.636052300615,-75.6051438009781,314.376780065366,-7.10753112281824,365.982385535239,46.0599031013163,1395.06237447606,3.70157055550253,1755.37179190583,-307.181666166715
23.9868516513782,26.9942755082358,74.2550482492551,3.31538064790851,12.9038551462184,16.9300168393306,108.390273998763,15.9238023817149,416.841406470942,-25.9110672203526,813.259903503341,119.700269489828,1764.0782518689,-143.53638086182,2274.81993734837,-143.467248694634,889.355381508742,-22.288344670319,162.24844916998,81.0088002459715,530.412576382565,-85.3813716932748,318.328453270153,-9.33437596227526,368.169197011731,41.8505740019873,1400.98934379769,-7.93587367973591,1741.23165862686,-292.408957221129
31.603601048057,22.6491770981779,74.0021994985189,3.31245712137566,18.5553641356724,8.30698976721763,110.210211046828,11.0953266058657,426.942595852815,-36.5984557170013,821.979543938262,116.408620043145,1799.21177972544,-166.24159842904,2304.54519364773,-143.709926748529,890.874231732451,-15.5249967545898,167.929412493006,78.0606414931235,524.249239896255,-79.7816822419798,320.620148903949,-8.0536433708686,368.839212082929,52.3273976739428,1403.37240655249,-2.67093168433827,1762.13660784545,-294.102916233472
35.5347564764991,24.7780898860315,65.5877832291093,9.1571122665051,19.9146442572011,10.6297994074195,112.383372777667,8.7108397114918,426.698378690415,-40.4473367192096,830.081128271033,110.903712201324,1790.88068184047,-171.99262042946,2291.10070554735,-144.232247014449,893.743776267371,-21.0546609200658,161.523949527492,80.9042679178741,523.198541878006,-81.4119771247938,314.410080153645,-8.66193010456797,353.775704563561,56.134827107482,1383.48963495931,1.7687585132563,1733.57387418231,-287.88104882825
45.5324898990275,19.8421965057543,71.7270620291683,6.02648335891264,23.2298560492266,7.21399812191888,109.163233456592,7.24296422393767,413.579914415662,-38.4612295746054,806.587561089687,120.268918111312,1788.77729546869,-171.449727710576,2234.37283166231,-129.148053066463,883.265928915281,-21.1818858757233,156.88236521626,79.9265760647734,507.374590724492,-67.7406333671139,313.631477497999,-6.92747849867338,359.108863787694,55.1907593027359,1369.13618492592,5.10034698965843,1723.96313833552,-294.488776742168
33.4036650743639,23.8915444805952,61.248632226724,8.43910338778847,22.3921155875576,8.11629065417398,105.458819770138,18.4932040683273,422.088888561899,-34.3747341503642,826.543054786207,113.120361979115,1795.2293960133,-174.705447770861,2277.63556125907,-139.028007003543,892.889007873626,-18.5718070604497,158.649952703446,82.16905332819,533.015214416376,-84.2319118679053,320.731816586282,-8.86288569726092,361.370264939831,45.5775157382482,1385.85440490378,-6.07346180667178,1760.16325017464,-305.573677987596
32.9767071328827,25.6091438297185,69.0124718211869,8.02797965186821,30.0040634894982,5.97097469419742,100.360616214283,17.6934911512449,437.046080629645,-41.7824005736142,821.522781973626,123.400176453615,1816.3363041381,-173.194904028305,2336.76144736661,-155.30054845172,911.981318510779,-26.5942991115588,178.15541547325,78.7927132543243,522.515810722798,-76.2289457725606,319.066190503507,-7.33695725169833,365.819982946463,48.6042863585449,1388.7141306458,-4.10381050438028,1725.39211477624,-287.75296192483
38.6968927622137,18.1426688819748,62.3348149115583,9.85840609721482,26.7039564981523,1.79736630003219,108.800473870248,11.0502332889823,408.625255924926,-30.812686039168,805.380670280093,109.791205277083,1756.61410085718,-159.612964583079,2240.57857414064,-143.5800697172,894.092136125689,-31.7633499610781,150.652088175041,79.7622377481662,511.812106526715,-76.1071942346775,312.222468343822,-6.39536031354478,358.831753133074,50.1524019670302,1364.6874697281,1.10040800012053,1725.52127556178,-309.722079376576
26.1604823000689,24.2104407380146,79.6233486723411,1.22593092038197,19.920809727913,7.77123008631343,108.184635017816,8.87215009463515,418.599871982519,-35.7794673188386,794.034345172425,120.272371069944,1779.23187642507,-167.281819087287,2239.86385265457,-141.8186797435,883.173963045991,-26.0698977496297,156.851834158241,79.1554289127943,513.758515853703,-75.7010798958752,316.345518830518,-7.75099855389276,364.98977825923,44.6429081163987,1375.73199551393,-9.28089182164297,1730.62991243158,-299.944919118794
26.3497904701643,30.8768046457175,72.7809306944849,4.79160906841367,27.8330364546073,3.13664097832219,107.615906317685,11.9339307453787,421.025330000402,-34.1118806414051,812.836183923981,114.537152170212,1797.10111330652,-171.705234849751,2304.88243882076,-161.050671480935,894.854355106549,-21.5936972676512,166.335289044432,87.0194400588726,519.121051202612,-70.5369079496468,322.112214283787,-8.92402942654272,365.840805285053,45.8004671460176,1381.59944418216,0.451992733092182,1752.1731470415,-299.493950720174
24.819594321396,26.5681540279166,60.5118989660855,9.90164184646405,20.077030091065,12.0938761106564,95.3983228464957,18.9913365950021,415.906355022491,-36.1136386647385,808.569961499649,113.109439298147,1737.69056263634,-156.681911095496,2243.75407182652,-141.961583172833,878.576614349451,-20.2143313753745,153.229869275398,75.6223861879648,508.575415934265,-72.2153220236544,312.859117733408,-8.41598442935637,341.052862300515,56.2770040558223,1362.62178319634,-6.4137964636596,1702.80591761666,-285.527658063606
29.9985072503291,26.3800106588938,68.764184907084,6.75461008242936,23.7044738170278,8.61135263828427,100.874416249925,12.2561001973001,411.264891010347,-31.044417203181,791.970940542327,121.084035926659,1736.29984885428,-144.834423571446,2216.29474880615,-127.237778791916,863.779957689301,-15.2524768586478,159.536992027566,78.6422046976478,507.845419052299,-75.7022356204033,313.43696376927,-6.45200183978001,350.021829221974,49.0567490865969,1347.71473819137,0.883922701346127,1723.95034387728,-293.288015964116
32.9993024571594,25.1984118805393,72.7283976244542,0.0447324323386036,29.471381098434,2.95898526963657,104.066596506946,11.80915122723,424.665367607305,-46.1190706590635,810.687992820457,110.50397654336,1782.78450098949,-179.37970267522,2255.85467624065,-144.453236604115,877.482598491193,-21.2582800732379,168.488877671073,74.4456042508933,518.38042044949,-71.3135890796161,320.389394570558,-8.60772071822457,353.860802122233,48.772305919215,1364.59443298552,-3.93654989297942,1735.40821969476,-295.316277108984
37.4889313279214,21.5790203617283,79.1741395188166,-0.213714324955448,23.5899303283124,4.14831926402278,97.2772042607825,16.9395824685573,429.634314123336,-43.0027137666241,795.966047340886,118.497087871914,1754.425905182,-166.59442349561,2209.65874180396,-139.387553768065,866.616522667826,-19.6978846466279,157.418121614331,77.0567425980533,512.790630036773,-78.2700251532489,308.65106987469,-6.14213678669557,346.451688098247,49.4325586478823,1340.2090723053,4.0178328437261,1723.27270103206,-289.319290009431
30.1502986527658,23.04511165659,71.0198641773884,2.3624147838052,25.1668640872598,3.27030154108755,96.9276502830198,18.3801364640286,418.176836185087,-38.8816648013057,799.71254682656,109.133069651413,1746.74785783151,-160.572162768921,2221.79659148127,-143.307353155344,860.581061942372,-18.4145127147599,152.057149193978,72.5198623274168,501.013697029844,-68.2184501159331,310.769213297697,-6.6306621341496,342.828592452909,52.639165895251,1343.97739831531,-0.804502561685167,1731.51118493649,-294.881997968469
28.9780006071601,21.832008880229,74.006610676289,-0.165533038388706,23.6318701148876,8.12195666479221,111.741962280785,10.4754535594997,410.587006539473,-31.023056753013,793.490533496368,118.782851948813,1750.99398557671,-165.57820266917,2257.16450127534,-144.450450802234,875.201660888178,-24.0791157240964,165.621528740452,77.8221109220918,518.120758974938,-78.1480818317619,318.528823319775,-9.11739014565862,354.906174793822,49.640582898471,1365.68542836123,-0.595166776640285,1736.62759626015,-286.706856400599
34.1821237640409,19.4722737470788,66.3186622301211,5.04035534930957,25.982499216845,1.0488240467096,93.8656161060141,21.9192207322248,407.652094281386,-31.284009525463,800.647745834524,122.175387866886,1772.20990210458,-165.706558415859,2255.38598687359,-142.39593541175,879.175305006693,-19.4218996051412,155.288729289831,75.3032830391243,503.459883218738,-73.1153225224697,310.896304848295,-6.42574117314985,339.54145175874,54.8665112200228,1353.09938087191,6.6193724941111,1734.80165511961,-299.160794237964
31.1723346451801,26.2080456616686,66.8570918819059,7.01229166431982,18.5865856829476,7.40806584064345,105.560395636331,14.2368897308525,413.11509625801,-40.2217252123777,793.006447635076,115.790557980099,1738.0288322439,-153.325713211761,2196.54631480387,-132.918591332087,865.873967305007,-18.6835217107828,166.784157249786,70.8602862277914,499.308571445058,-72.2117514239122,309.351550662418,-6.80767096539292,342.168713515052,50.726605502216,1360.55590143804,-3.00008483280123,1726.1905235658,-288.139243228716
22.1075870758047,27.9208308393095,68.8820327930727,6.4556268364643,20.4127405562183,7.68396926246396,107.950069306959,15.6708045080311,409.660764463504,-30.2254402568807,797.479009592364,120.506716209802,1753.0173412401,-155.478149933728,2228.72746705913,-139.183465491447,888.99425583359,-23.6863454213221,162.163085018389,77.9034605905693,502.268484844346,-71.9051609032853,316.136671974675,-9.18908106652691,349.676205249263,47.4431937160217,1369.58185501277,-8.92534584581012,1741.37893898123,-305.010971332571
27.9967253190825,27.4004840307082,68.1369019132395,3.2360213852249,27.1223037668349,4.82627421520359,108.215291895571,11.1087010371834,420.438190725889,-39.2810885869804,810.721516195388,120.888344039567,1791.05454560362,-170.117351499232,2268.84236039852,-149.689921650084,887.99288915841,-22.1574715516191,167.577899875316,80.3493747377598,520.705174054899,-76.1015964365779,324.132864995583,-10.9187631442425,355.446695616644,44.9026573182508,1399.46342459792,-8.499334712663,1752.08217525618,-298.958215620496
25.7935672745682,23.0761529103785,68.9822527795805,5.82649600245177,22.8434484152938,7.35805909892748,101.294521859589,14.2981855673453,410.470984088763,-35.8585184349173,800.976224275427,113.133521493098,1709.13954871993,-148.002563604734,2201.14553025047,-135.062183944254,856.935888777292,-17.9939707895333,142.83434405305,81.4857678644913,492.538160937592,-70.0710349813964,308.559743406766,-7.33873104542655,348.915141035338,42.4017870210118,1361.76180922793,-6.77477522890372,1730.74440443385,-292.781621620067
31.653621422825,20.2338539660419,72.0440627017613,3.64751184884766,21.3086875372912,8.65622749676781,95.914220631375,18.7209881603581,413.216121954922,-35.0036238125871,790.007916472799,115.809403223425,1709.86402395904,-150.552734144669,2208.9063734488,-147.796691836866,846.129948650914,-15.0213663820181,157.286785863985,75.5220414242492,503.6811164235,-72.7509325332355,313.619413658163,-8.12481930174746,334.995678751377,50.2069269589124,1360.31962639012,-7.15561660646089,1741.07340196474,-285.900821157388
29.2296694525738,23.253635939782,66.6372435547611,4.54907406407558,13.173692693842,10.473763734051,107.391409647349,9.89947820866833,426.591542427544,-34.6399573768675,805.953591577622,111.65094720183,1751.77554309882,-160.061088231961,2229.58727821687,-140.034332330143,852.42768783977,-20.0998265634225,159.153477523717,78.5438078412082,510.939886937754,-73.4993885962225,317.196362643527,-7.68535589827689,342.852497306535,47.1556094071822,1351.71897014947,8.40998722620835,1763.87818911758,-300.924683608455
29.6594554682602,24.781653152478,65.0968631511851,6.48979317033914,21.4903944107099,6.07150825499484,99.7317883396465,13.5369723811324,425.740531049983,-42.0605605874378,799.071521989956,111.939858709318,1699.2322921412,-144.867271875666,2192.27245213102,-125.341584854957,839.6379928927,-18.9697580840045,150.932911881172,74.9515099079218,497.985536156503,-72.1724643243119,308.903607410844,-6.67012440259284,323.545228772824,53.2527446591693,1339.15621851904,-2.60044031332341,1723.81461456106,-284.692021637775
31.2063181363874,26.5964643656566,67.3627686485162,8.02328370085507,25.1345238683013,7.06170859187431,106.357303971311,12.0240959542344,422.330883992085,-38.5036974433132,802.980898291165,114.302718728687,1716.70381616159,-157.008123669633,2209.33637557233,-134.627551680034,843.922375497642,-16.8770248357492,159.218850851534,76.868328921879,498.999203893278,-73.6258360926386,310.813696582007,-7.3054235353937,346.358535824556,39.1452710587728,1323.80831761699,13.7491251892205,1724.82174129224,-281.251879777423
27.5030608497042,24.9547580142558,65.1558507122537,5.86718051778268,17.9450572178479,8.52468100883577,100.825976723616,14.5801969446135,425.592282796485,-41.1697523790286,819.864676498238,107.650390595455,1765.71533929723,-157.389611384686,2263.92084080028,-148.354177773179,863.703620145965,-20.1211175277269,165.381279375739,78.9964748801986,521.443000781043,-78.647089298944,317.192355355144,-8.15268501140942,344.460710490025,46.8560333718729,1373.25909142841,-3.00141572421632,1752.25301611601,-293.565411144035
25.9286679100303,25.0812322182352,76.5031599236883,0.25382287189161,29.1542471622583,5.08557209928575,107.892085277606,11.8438209073976,409.53761526792,-33.1481933254697,816.347178490479,107.513589291989,1720.99075202435,-155.236209979636,2202.47745922841,-143.899395359369,833.184676417201,-12.6264731692086,155.427441855555,71.0264423912364,497.267805383983,-71.9545860494969,307.609545982876,-7.27935646786351,323.370211695119,48.4754018404747,1323.7400876036,6.92210168643523,1752.2858614468,-308.896647348334
32.5029006631104,21.7907244817797,71.6163596794279,2.70307226470499,23.0861556048043,6.0873709545615,106.644216266432,10.4339629666618,415.448771867987,-33.1562379862019,798.763053378045,113.519907350194,1717.86315640494,-153.323580984032,2197.81906014749,-125.990684327832,838.815425153405,-9.90573868218405,158.965205234419,74.4862507281392,500.554168560024,-71.83908094926,311.525408809898,-8.51494579043964,330.430667633885,50.6665719829356,1341.57369382787,-7.61386867970527,1727.76359966554,-292.621750287754
23.350287566075,28.1912169087914,70.2429857749521,7.63012823112998,23.3834639969209,6.79781295194552,101.842444104918,16.732092497703,429.879383222505,-40.6135899508223,817.047847523741,109.883224379663,1746.20572629612,-155.675252301567,2252.62742230943,-142.590186811158,855.205435458772,-18.3593062134989,163.983195622151,70.739188235283,518.097745819179,-79.0121382018463,317.016887124919,-7.99788546478495,355.505256228713,42.6904923506796,1363.48412911689,-2.44386533461438,1743.98344716623,-284.663434064417
33.0678116071972,26.2725517977527,73.5265580646393,-0.578175995292064,25.2546352033154,4.0705954580059,111.634247871434,7.76915086336358,414.163449510934,-34.0124493000544,805.698185258769,108.602167961231,1719.97663360171,-149.613806573416,2203.60727705017,-129.574300658701,844.701818041411,-18.8180038661208,141.165799072857,78.2604674955906,508.201420399295,-77.2188338767038,303.554043156016,-4.2684164324954,332.027788062849,53.2868657020928,1338.9288398003,1.03108723466477,1712.83091142009,-291.606146932154
35.1060761022351,20.9892456042757,75.6167216201261,3.32260000827984,17.9626261110931,8.76338382924534,102.420682271407,11.4494728770254,421.022544269414,-38.8718497371661,799.105059544467,116.47810768198,1727.16242343947,-156.909761986771,2210.7002645008,-142.699693882851,838.854434969584,-18.5791643210986,160.931763024547,70.7728070862507,498.364486320426,-68.0228644019489,309.91467138144,-8.24279160293936,337.912477242112,48.5856580061202,1347.86267523698,-7.06132237628934,1710.62476534046,-286.703503974204
29.7756193594171,22.3825373986332,60.4682040169906,7.87787727979084,31.2113487506991,4.17690131102695,114.575183407961,4.34392191276336,427.493257613367,-40.1720524861867,817.923210897889,111.552998845455,1758.91355156181,-161.388089975176,2269.43660999266,-147.281912077065,862.320796086755,-23.1485848510839,170.491162589146,72.3570032097139,520.354380418152,-79.4440887601917,318.153058563897,-9.08348654700067,345.030940807755,49.8164722080071,1364.45096547413,4.029619724895,1724.84707177833,-280.465429329255
37.5912980265972,20.6413523710259,69.0166636468196,6.79135547478266,21.2039578155508,7.04246799548425,106.93572871817,12.0563785653884,436.411314902262,-42.4620170787035,826.647775375826,112.310763766247,1773.47557814806,-168.056991296266,2286.11395642943,-140.151419989474,868.018525853289,-19.6876555506636,149.1676067011,83.5983406531486,513.0266716664,-78.5439028705592,311.580776372137,-6.26451981604201,341.225258710066,49.4557443723548,1352.81965896932,2.85888145879387,1739.88395010083,-301.466665529241
27.4628184460852,26.790585791717,71.6491336333595,0.591315865567807,27.9447853262949,0.605827358906973,107.305692979083,12.94921054663,417.345754674673,-30.1601575514694,802.512568372047,118.040330931707,1752.40822256406,-156.199935195783,2258.59734721748,-150.291243680009,872.489147192236,-23.4996791191021,172.640408369603,68.5548826160014,501.245288613181,-74.1949822485232,313.263428608309,-7.58367104294406,343.001625990424,49.0564420045167,1368.52570105815,-6.00040586196603,1698.90135469079,-282.262877915737
29.4779631839746,27.1400698498494,64.2351882108614,12.1627551977127,14.779437619367,11.023112730587,99.496243059585,15.2316469712887,430.690021157035,-42.0365926572473,822.48529857526,109.76086200222,1775.71071426592,-164.656218946453,2276.79709857612,-155.167950062642,871.095335827212,-24.3968041674414,167.2310328856,78.5598778035716,514.403010025001,-79.4884905458604,320.574397865013,-9.06231024601383,349.826281330457,50.3958043564041,1381.82598551516,-3.5810855619011,1736.42197485484,-284.928177289922
27.0658396312427,26.6282357672759,62.4876999566802,12.0535777451658,16.8275255804262,10.2452659872794,99.4208927261354,17.9746522099555,442.560203851279,-44.2524577008931,842.95940332355,105.112389672504,1791.64930165911,-161.193649074711,2341.12335291256,-168.465019793281,884.188111676043,-28.7413650380454,167.272895572455,77.8929251497467,527.747699751824,-79.3987885596635,320.242881791749,-8.21325504293526,352.445923766193,43.1541018157748,1394.94606226121,-4.04701442653632,1719.51487443314,-295.556952996979
29.448188557648,25.9413644919026,76.7245086791084,4.3909256639454,19.3234440526697,8.07543296843888,107.505434772671,8.79778756645968,422.434213443813,-40.2486948938561,818.300627648971,114.231408611873,1782.355235188,-171.408597255809,2261.64571602742,-144.895174611274,859.736316091385,-21.0186618486283,169.228823563867,69.0076243647614,515.46271749358,-80.017334975554,314.624891461895,-6.83184818895871,339.590298302951,56.5298266731753,1377.4992060918,-5.60880539874427,1732.53585186412,-301.453206479601
22.3342639082156,27.4667978605371,65.2979191098778,10.2442425946433,23.9411696464203,4.39926463763153,102.062565463342,12.1139314420526,428.117283375117,-38.7755916523772,825.778109297898,110.308080258222,1784.09212792097,-165.474105511846,2293.98326423641,-151.372646326406,875.003702898099,-22.2618116230589,163.88297346971,80.8441966278834,515.025571704619,-76.2354780591022,322.837989228089,-10.1185407883281,354.243953178146,50.0445549687535,1393.2104916962,-6.57972782200182,1740.43374240983,-293.087245715121
45.3802072172348,14.9451527913711,72.2728224564281,2.48290264179941,21.0252786852553,10.484004159353,112.480011136711,10.135884018901,437.103419505246,-37.9301150962872,837.684749154245,119.690096410901,1835.11999887272,-183.180860221831,2343.83772720972,-152.724126425682,902.456888382624,-28.2944869804132,175.630212202106,75.2594840277343,537.256178198359,-84.0522702208308,326.655581665325,-8.28673395661948,372.606468070677,42.2877604810365,1401.94856185286,-4.03772139667918,1760.25868821888,-304.587254790981
35.6521144199644,22.2114054316457,69.4456318407723,1.04625716228961,23.2316312602309,4.08665327156458,104.111126916284,18.2767195301653,430.526346977559,-34.030060901239,818.738643841145,112.464160224084,1768.64347585365,-165.654266212457,2270.00729867217,-143.804013614723,892.670797013304,-28.606782821739,155.099772260955,75.5652258523525,509.932692518629,-76.5887544167964,316.727266978201,-8.49402288855688,361.835572283438,42.971144138861,1391.60017507409,-8.03937356076321,1723.93172685635,-294.617158110843
32.6733751072754,24.8305071126871,72.3438873791194,-0.640947089962961,23.5478942990981,6.05520977818469,103.009585675268,18.2247952837699,433.296682600327,-38.4838115567718,825.215373377387,105.785263551881,1781.38293984514,-164.350403230055,2303.76967988423,-158.764512178724,886.220592241498,-28.8050720178999,154.071793016578,81.6942634721862,512.454853768561,-72.3336157488195,318.179233806631,-8.0351187495146,358.121541387437,42.8786553542464,1386.73521933745,4.86540669967193,1724.54309956711,-292.196518929167
34.3993451367211,25.5309837932317,72.4088408486448,1.38651703022514,24.7243710292343,6.85787248320816,113.3399398299,10.7891217735645,444.351879131483,-41.9398377797573,838.019319345389,110.109142803821,1824.76100395742,-180.453963176714,2343.65244234052,-155.037181517592,902.383935085112,-30.4186047362576,175.508946690662,75.5031935672431,526.677866255073,-77.2124949719628,326.336867866378,-9.27756677758111,361.147384889261,52.8191698763489,1420.85490991392,-8.64775422688903,1745.97108125735,-283.151756126945
37.7192795802094,17.2064586941883,74.4541093539338,4.56084440950178,20.1207355799532,6.26262728235579,104.144142047937,14.170995329307,438.322679890365,-46.9713670719266,831.821316418542,105.369531181108,1778.47735472713,-163.226968703716,2276.31956164734,-148.370814875399,889.289006249225,-28.4630794495074,161.918416619888,78.5677934945191,519.163026679111,-80.3976742829156,315.090960132932,-7.34321904938544,358.213914531104,41.9679336953379,1399.57036863697,-7.99202124155383,1725.19976596399,-303.310079708044
31.2787529119606,23.7316763242615,66.9904025548782,8.31221949815718,32.4768204080489,3.10651796134626,118.191509512075,8.32107382968174,429.206756394403,-39.4339022399771,833.889189621824,110.194982500186,1803.12136649445,-180.916475272817,2302.91701366346,-149.743427478247,888.848172861866,-28.8422333359703,164.911630877024,74.5521518341247,513.565115148585,-72.4046612999925,317.976560512067,-6.77315161783456,356.606760011374,45.2706030668292,1397.15660792417,-1.13353856767457,1742.44789990714,-288.75113037873
25.6091031889016,32.8014682089846,70.6484769907301,1.63332310454319,31.5633837123937,1.24682123886216,103.856020363875,17.8816586345626,426.014957004086,-32.2348903871798,857.01161363107,111.725702580279,1832.27798999628,-182.325447539055,2336.02166103643,-151.566895271843,909.968864190301,-28.9129518529996,157.911032063181,88.5276677985726,524.804139366017,-76.412697068293,327.087216816829,-9.21619040170809,374.216530203363,41.7234732997484,1433.10064769842,-8.74540736048595,1755.65495552989,-305.526918321398
30.8126877450514,26.6301028336873,75.8554442868773,0.893921312770594,25.4843136004889,6.34993456191765,109.622588307301,8.06872983316101,415.134759082927,-31.4784114350633,819.286733260436,124.685826696764,1771.10373760854,-152.138603876035,2301.92682337852,-148.007211697586,882.14250390689,-25.5585036721762,162.744664915366,76.6218600288382,506.990161462823,-70.0957184444909,318.813534557884,-8.38943022389343,353.817806539611,49.6292494007279,1409.85857790161,-4.21756758793319,1721.22181924903,-283.053344650682
28.5695774842251,20.4024759648812,71.6646554751894,5.66807659110592,22.7739915596588,5.14135022677244,110.652648331252,6.99487682862565,434.323903954992,-41.133240296803,843.1310630419,105.068032089317,1810.25092230503,-175.996911385488,2293.07474009489,-152.023146471127,878.881704800442,-24.2606810549827,168.620666806108,70.6319491776882,522.241304384497,-85.5554746755275,320.945966014979,-8.98774373682168,362.250403397092,43.6393789467909,1403.72905808022,0.716097949267618,1732.23472206273,-296.178797367386
34.1971795301496,26.5623645130874,66.0590404026984,7.76135497810637,28.7727171923029,1.9194693613961,103.76720279307,13.2955386728843,449.416062776948,-46.8551434828858,850.028556022958,109.000878208074,1819.89594352453,-168.622143436523,2342.88668258637,-159.928163737466,899.735915707734,-22.0453729066294,174.779940549423,75.4736532153002,526.288947750198,-80.0036274707694,327.133913613308,-9.03314531982503,371.491897007131,42.8588221898234,1429.37308746042,-6.48453031140326,1763.56859721172,-292.254344458027
39.4573445877858,18.3124803736645,61.0825023570855,12.7495398336634,20.071063962948,9.69369391494584,111.347418610365,11.1152509386381,428.552262897981,-43.9401910412926,821.408545248099,114.635755412797,1777.74366752803,-156.181549230564,2305.7141414802,-154.19635114571,883.195062025795,-25.5708977625124,163.278068506476,73.7728943095359,505.808270564251,-74.0699249549226,319.771817215385,-9.65822848206653,360.160191349321,46.1961731146524,1400.62095501461,3.67535467061056,1722.85476750024,-282.494023318092
