29.1744555512423,19.0783816537189,60.1886655308092,6.3421151521859,15.5539680094726,10.2167487516593,92.3130123564782,16.6539917398741,400.596424360643,-33.8720309248806,795.532945309638,119.2041520283,1758.44357901356,-169.129427407001,2142.81862825321,-113.93783355314,795.341704938329,-11.5992622339763,138.893574609595,82.2043446964073,441.646536840614,-57.4447983937375,266.231412774851,2.36868990300678,289.660474235988,60.2361765582082,1210.09881335018,36.3521221125301,1638.84318404622,-249.503675136608
22.8073864003369,25.7116962877922,55.3111152109746,15.0493632694561,23.4186183715,5.86356228876871,98.6317752067786,12.3252161264174,396.151535783427,-27.9474903040908,797.662188085658,117.502421125238,1691.96071765582,-136.739866529122,2088.10924562393,-100.385315305955,794.214079648432,-12.2641524026244,128.070694170868,79.8093068116223,430.43129174439,-54.3555280083379,258.938144259281,3.01384456798625,286.571950738136,55.7186160468687,1183.14413872296,37.7652013969759,1623.38298956807,-237.418749323858
23.8645008111074,20.6868878070782,56.0064749700893,15.956443651449,20.3139625182676,5.9810603426626,94.2078747957459,14.203530587467,390.655164573718,-29.6739730922932,794.137996473761,115.124651166355,1715.4694348245,-150.15269032244,2094.08792794027,-104.069997595213,792.062236139965,-12.3476825721078,136.765391852623,73.715877394868,441.256464419455,-56.4792403229041,264.528137898351,1.21789644009173,286.431589884634,58.0156477706769,1181.99617885184,39.1267633874993,1610.03887294253,-240.123679974925
31.7387484156997,19.8068577586504,59.9685093304715,8.17355997643327,23.0576184952038,0.487754613858905,93.722670477918,15.6826766913474,402.117241394529,-34.5107367418966,805.139656431608,121.962091022104,1766.54770670456,-160.099063971277,2136.33575987514,-108.198920261316,818.376289665315,-15.955653176039,143.588636522875,73.7405081697656,451.294993861132,-62.6963661283243,271.042514675771,0.764744296875294,295.471436761257,57.3585832161128,1217.11683454898,36.1148122132494,1643.67814950397,-259.038100534054
33.3508371157591,21.7641928312909,59.2325069208591,9.45356319925272,13.3516024812824,9.84959248730956,95.567006710249,12.8365174609106,409.948536058231,-32.481800722253,829.693717314973,121.253006831467,1763.47737666884,-146.029827054908,2205.48531468628,-122.472755607512,815.371467122613,-5.57713197709759,145.93116493516,79.8325478212084,461.216912930831,-65.2287510379823,273.225940731063,0.0937464730566809,299.305196284517,57.3112140357993,1233.92992359616,26.8036443868025,1627.63838406006,-241.522819642551
32.5440007842124,19.6881958192014,64.4787701087095,8.22021091219285,21.7686488224324,7.60525402356084,92.4168016886894,12.8876640108504,407.943506575888,-28.5596703356315,802.416848578691,121.879915737998,1750.977723463,-153.928490718875,2135.85586413536,-114.43038143057,809.514372783161,-14.0510029051675,136.331265155412,78.2913640752477,455.754822945947,-63.6627767229404,268.457694363804,1.60068773467665,293.588699403591,57.7655009912278,1203.75754261544,42.4508318085943,1635.5042886932,-245.860047276326
25.8660232112849,26.1721582839321,74.9985203846309,0.600407540590299,22.5482452102395,7.42095401493816,93.1612758532544,17.1717091396876,398.351099667965,-23.6291712829465,818.355827047613,117.06044455842,1739.17969272119,-143.907709411533,2149.67882730388,-119.880664979625,811.750284592421,-11.9959530879847,135.98486611061,83.970951811459,450.185257091459,-60.5123365004065,273.254053772449,0.175419898715019,296.189358751163,57.5116486785722,1230.97173918446,26.9627907656869,1620.6877856458,-239.684021417938
28.7442933802535,22.8748745852522,58.5731743131622,11.7230959841511,15.1719835213595,11.4655179578564,97.6561801287636,12.5185740031817,408.514816737066,-29.9897121201971,841.517300384292,112.444643203914,1788.64311030955,-165.154713067147,2222.52674644609,-139.758319267872,837.123624784048,-19.1274069191935,153.458791133946,80.6204348695062,465.914182254603,-63.8778197968091,279.104124439347,-0.32806855660824,297.113940807485,62.2578022320331,1230.64774334126,39.5336188590669,1661.87422886653,-252.010208622523
29.2817282541463,21.0508590224643,61.7248575645629,5.47049605909629,17.5514491887055,8.53746652733677,86.627723548125,16.2375437743729,401.077967767136,-27.1044096412306,810.125806927393,126.463206043798,1734.58963728674,-145.568606292631,2132.10351738233,-113.472916293251,819.143347308108,-20.0955183828384,150.372395231265,72.1552903765707,448.707444247116,-60.4595704381499,271.589338998048,-0.199495544191499,301.025929776086,53.1270725164667,1216.67612635517,32.8822397098064,1622.96465378164,-238.50047737687
31.6835932117273,20.5322013888878,58.667853422499,10.7780787621402,21.6863873266719,2.477147753856,99.6661072801333,10.2285439778179,407.596530629881,-28.1740883070767,820.257123911964,112.380421808055,1754.47608945198,-158.747862261325,2172.51799298759,-126.22511076948,822.422848767399,-16.9180124168338,142.191511639186,79.4901537653809,466.030914674014,-72.7138303968384,271.682001070391,1.22155652801243,296.389918281592,54.5443535785937,1236.10462734846,21.2562347511469,1629.75864326905,-249.553727376682
23.5004094861765,25.1365906580178,65.371752448309,6.25746671886716,29.4027003704543,1.84872569612484,86.0806859179061,18.4754391996667,427.906669876334,-42.410814983544,843.503040384664,114.779960800314,1790.5450189113,-161.543586363291,2214.39807996046,-135.219638328191,825.873262451121,-14.6636095073816,149.334085768894,76.6819035071628,480.140848264434,-71.7256649204243,280.186675781428,-0.711529938910029,311.756861307783,54.938556329075,1244.95082528389,25.1203673853094,1685.07241002299,-263.074408891965
24.7538024407578,25.7574671749916,67.4825587555809,4.01978136900236,21.4718681762729,4.8535670595358,90.814325164187,14.3404496829548,404.896335019997,-33.5149528547138,809.622426177004,120.206099920871,1748.36563335155,-154.18664051165,2169.97925227349,-129.577112090941,806.01767919111,-8.00740272879083,143.84527369912,69.2600913071103,454.676955839506,-57.6550955083478,269.969831191769,0.271909799355873,293.128647099687,53.6775026474219,1200.35076915581,38.3658244461347,1620.60085307397,-247.087344194072
29.8838338125225,26.3938086853115,62.2296653033814,5.15681309801455,23.8355254043243,6.56520036212288,91.5550210206021,12.4966045652399,401.492703761794,-28.8201353132723,827.076719848181,111.524819495937,1749.42231605121,-157.754234868913,2140.15894415219,-113.10755389123,796.452827852609,-5.55426291448598,137.561836027047,77.608755907416,462.828239351263,-68.6261850261895,272.838745119758,-0.276198196908276,299.56381531929,55.7654648999994,1210.91348612859,32.7477748951617,1620.38384680578,-242.774433587896
25.4810090130458,26.0519324865749,60.0956936919627,5.83417836350367,18.7734593652299,8.30449611522215,99.0499288957244,10.1500539543928,402.173519500469,-27.4816457160045,827.60125023317,111.239825546406,1762.35201775517,-150.082044873425,2181.91291056924,-124.989401092686,815.413688776146,-16.3318137856693,139.445870889026,81.6317313950783,458.587303560554,-62.0525442316189,274.233534914281,1.64578239893756,295.30777226833,65.2219475146292,1228.23926243362,30.5598240875795,1656.54295520105,-261.964187384822
27.1966824307048,24.9828097862991,62.4995808045645,6.77033902802525,25.5993052667238,1.23768917887362,91.2409909258731,15.7748872836183,398.846111473595,-29.22928200286,800.128645356336,127.351343564642,1738.03206623896,-151.83840475286,2129.514109964,-120.10787538459,795.45205913579,-9.36780899180473,139.065055218343,75.5205319597084,442.786513058089,-60.0229243778991,267.809234631786,0.384092422527532,298.786135887167,47.7472163911789,1191.19433393822,33.6479135008089,1606.44840639569,-248.921761077233
31.2636041845722,21.2998673061732,71.6556942361399,1.26723425393017,19.5697914891412,9.25760258552255,102.115103931337,9.88556203316491,398.795260705217,-29.0719342303095,794.452152910309,122.698647721315,1718.99116586309,-140.333789536227,2122.9702777596,-107.518186381645,790.353868658965,-9.89852424360116,136.988677475278,76.1716567762624,441.739254386538,-55.1578752640586,269.560651804664,-0.0906942153142294,290.85317159726,56.1940368705203,1204.12918611341,26.9770283547851,1616.45031713857,-235.967423970836
33.6229635703239,21.4522268597062,55.4122563295455,1.28385386369583,15.0092394663644,9.59632750066685,96.3389496144691,12.03384846256,405.464885996694,-32.037241056575,813.593176613559,114.101017624549,1739.25405203647,-152.281944112123,2163.70840923435,-129.433495646837,792.386561640172,-7.21914722115539,137.408860673752,78.4863699342623,454.307803772058,-58.429893049349,274.674337663085,0.111686201220126,303.665566287256,53.3931298006948,1211.70152276189,27.3782659026821,1639.81910900136,-256.663721866844
33.1087570738336,19.364570143648,66.0133092856827,5.4178294534366,21.3764399441695,5.55787622304544,89.712662752777,16.9920932566803,405.02172946774,-30.881635794545,796.078634052492,117.686130497559,1733.73663370501,-155.280969038831,2096.4103106996,-95.618757299314,796.90987134776,-15.3026268601166,133.795173633375,75.7188896698069,452.523961246274,-62.607778770169,268.162523367721,-0.121024285874724,288.180112098956,50.586122642378,1176.68598402526,42.0529845659512,1587.78819248299,-234.783345825992
33.2447202581728,20.4130934745999,62.7514375986023,6.74549586951317,19.6555319738875,9.31557251618083,94.1762097228793,16.2696627771134,387.048090133216,-26.4258772457898,787.530973950078,117.858276841475,1706.95581141296,-145.781455516714,2116.76254826316,-129.802981810006,784.058078606461,-11.4645532310155,129.875077375647,79.5724983825776,443.492126056649,-58.8945223922526,267.619315771535,1.39321885660824,281.691931621744,63.4621427622075,1185.75116372123,36.0956999681112,1602.21828155495,-240.316654775995
26.260740090693,20.0978094320849,68.2087465023653,3.90385395641347,22.223673456172,5.12979023262545,88.9124089930246,14.471084045046,401.27504871454,-31.9314362084247,807.630111598009,113.299087759315,1723.46151373019,-154.011263962924,2122.52594305212,-119.423870362199,794.895618033697,-13.2396747920959,139.445319378235,71.2692147866651,454.344638836088,-59.807891578152,272.449366868377,1.02576093841098,293.798405705978,50.5729249623409,1200.26646237281,26.8533846102843,1622.65657571046,-239.214859452674
34.4183137383143,19.7335499646688,63.8723100362418,7.5456194771031,18.8824116574191,7.3803979514137,95.8993167618957,11.2875940381186,400.675757792398,-28.6229203354517,804.150082668492,113.403770347146,1710.40951070474,-138.457000234922,2092.57603127468,-104.573378389227,796.638531298918,-12.3071965786983,123.919308332945,80.3224743127831,448.73243370095,-59.3006127581045,266.616458775343,0.247238065254101,292.593787874977,46.8558751503995,1163.16643082778,32.4376832027924,1610.71829568745,-246.011261924087
27.3248826116979,25.834217903794,70.7400888318565,4.1031879922025,25.4039026918257,2.18656160756338,86.1478260027489,18.19176725265,393.743660039054,-26.679843564134,785.560641658328,114.916409538531,1664.9231878949,-132.327448099267,2093.47364181851,-119.459850478146,767.652505228575,-7.19667797480645,137.327916968346,70.1574428916125,456.479866377061,-66.2650710942314,268.135642643313,-0.278622964196816,292.531913876943,53.6051271682804,1171.98065736003,37.5010333771433,1605.61271691585,-248.166880548356
23.2789616045095,21.9585458560735,67.551492333661,2.95210625155265,20.8321884400419,5.05052047114573,89.0842500038825,13.5985770702427,390.852817176283,-27.1252182206922,789.448703040465,115.640977308806,1701.29426467915,-140.734550463179,2110.93924568408,-129.334285980824,788.56687683527,-11.2296149947336,137.386417809901,76.7093841598387,451.291282944286,-59.3935458414017,272.344664619523,-0.726603089709133,293.474392777361,51.3805695551815,1184.57121417379,32.4048134069446,1618.62984558314,-245.251064572594
30.9095354416443,19.9951352827061,62.7420008767745,9.16972792206805,15.8016895152711,8.73201851853629,87.2086642863151,21.4893385126017,411.701331512748,-35.3948396121576,810.961713875631,112.314163701118,1705.80560374637,-132.386619054735,2137.68482412223,-120.940377525812,805.326850542608,-12.6522730774502,133.329442953147,79.9998352650687,461.086651032049,-63.1237310037089,274.310541290945,0.113878048858113,294.526677846029,48.7625340879618,1194.08132432612,22.654518313123,1615.13560043579,-247.706535178955
27.6758258777483,20.8437440469567,71.4787941804539,1.21806408249642,17.3005438395257,7.31578394743159,93.3865518950841,9.02552936515904,386.011044193006,-21.0159601486768,783.393607398219,112.803624114969,1658.67917964521,-123.648551866419,2050.29065333981,-102.712446372839,779.658722818712,-10.4087004849946,129.194028635196,73.8127977790372,442.152576788808,-58.3235086293668,268.914225840748,-0.154755584064322,284.75569027176,54.2494787530352,1168.55766072726,31.9844229280617,1599.10858675379,-244.327063441226
25.1217613963659,24.1291495865131,63.6819137611384,5.48851246178048,14.5155520048076,8.56893766642476,84.5522751726454,20.1521455236278,405.457292664769,-31.0805560092222,788.304342861483,109.129666295654,1663.54928890979,-126.575408791729,2073.39785070478,-104.317389453837,770.331281688509,-3.49437724477463,124.819886588768,77.2732166092759,454.288738700969,-63.3821662595595,272.59011248018,-0.356730234360984,278.578296531299,58.809715225921,1165.1027418693,34.9827203141661,1622.95020289352,-254.074339701814
16.7380499612266,27.5224796774005,56.9814307899651,13.7434142008066,11.6987580669096,10.0063864085495,83.7051876196891,22.3054851713881,408.649246349846,-31.3221764018176,794.572891563354,114.049461851996,1718.94477415549,-146.540926131573,2113.21798668245,-113.285655983227,786.524362626276,-6.11397681843064,143.548892855935,75.6685999063586,463.966303093507,-64.9526796815441,279.558987867538,-1.93141916635215,290.272914595264,56.3491637784092,1199.03553645661,25.8287221897565,1638.33866089295,-252.926705572996
29.7728381216345,21.2710717895053,65.4855274920491,3.66511672628752,18.0720646019698,8.11585510354372,89.4138273108754,14.3536838784894,398.208311842458,-27.3898399517516,776.758796228891,121.204281202159,1671.76203469167,-132.974815341609,2081.05433194055,-112.40349120436,769.940680001972,-6.8467564298901,127.333744543375,75.2327060286208,442.688135662937,-53.895522476802,268.565837204527,1.27760824598829,294.470690390009,49.1151901170224,1160.40457996543,42.5471505010043,1615.74418193118,-249.155862325934
26.1468368387428,21.5060919182956,64.9292447955726,9.66635736600464,15.7205723075536,11.1646138845367,72.6138438714446,23.228949767368,393.274218230096,-29.4478816978905,779.400627117596,119.635921307314,1666.99430878592,-133.078750536877,2076.8690920195,-116.411835847045,772.425954665674,-8.84659482828576,132.099770567377,76.2351810754555,454.297639679407,-58.7527881443983,274.598434943281,-1.71203042719729,268.487405846024,61.5921423473011,1184.84825072306,21.578068816006,1611.8678792585,-238.458279066571
24.2251515534628,26.7358969940324,60.5863984523108,11.8527008375175,27.3408543575514,8.11405942030016,98.6297296341564,9.47754769183918,403.343568178661,-29.1988492236335,797.10668623535,112.951751764165,1711.91509384402,-142.93363334768,2093.53302762183,-106.465754766027,776.923762928929,-5.0626935233,126.680645240317,84.463707185731,464.822261012778,-59.9789118672837,278.687923636129,-2.73573550154109,283.313854437903,60.7013629868189,1178.19822304843,37.9663295631965,1637.91058198909,-256.341823597757
33.0355441220214,20.7665681917327,67.8859655166965,5.82510060076125,14.5378854593666,10.9802513306622,93.8504779926929,9.43009318278304,405.910427005188,-33.4698491489908,794.163970706169,111.434140739961,1704.10112498119,-144.579784047186,2095.59208106367,-114.333993830669,767.02922359629,-2.42689882534156,129.954815325358,75.4459825162397,446.938547782896,-56.7985899327308,273.666548848602,-1.70503464589852,291.75792542987,50.4423290039185,1175.22412857532,29.7509908041375,1604.41949839586,-241.752569247614
29.6036210953696,22.5861380561522,62.6195635076696,7.79012279082478,20.8227728007882,6.13962116726578,88.0680707013812,16.1305647403218,393.86736061455,-24.3530377846769,802.32878410794,109.999832182396,1700.90487436099,-143.639934873666,2097.16710473062,-119.002261319594,784.372802499879,-10.4770562375755,135.561935375836,72.1207916408354,461.270594239241,-66.5659407556127,275.503786864133,-1.83891784406531,294.498418609601,51.5571670941696,1174.2111419281,29.3611491163779,1637.52152294808,-259.763884743161
22.7405933968307,26.0441354051311,60.8681991253149,7.78689235939369,21.921981815761,6.08892688100652,81.4220802168927,24.0347852006614,419.953290478572,-41.9464299625977,799.518405354241,119.250277355262,1706.33587348623,-137.008803158367,2126.33572621245,-114.860866757254,791.745068415609,-8.36027393422026,145.200006187329,67.7432362250083,466.941015145829,-63.4334546748098,279.510244332636,-1.17415014304581,301.060273315388,48.4272363015767,1198.97347566287,18.068957883668,1632.20343338073,-250.457522343345
29.5613299223182,24.558907076126,64.3446501806655,6.98728823634139,13.8028723422662,10.0173853083362,91.0816884854168,15.2860687502014,413.08109760875,-35.7250221652887,832.15510807121,105.872455354152,1743.98748844838,-146.92281520714,2157.8263316943,-119.304555588277,800.470161942398,-10.0343612843168,138.661200499849,82.8270018188046,470.95193171391,-64.6593674357308,281.273961874845,-2.58399776973721,289.146970060792,55.2384563416869,1185.15473629497,32.0855925203458,1641.52897424552,-251.75962988398
27.0439256196454,22.5655371005356,66.6203675249791,3.20397639581436,16.4516450737909,11.0086926508498,85.1486939623726,16.192524749065,397.002130727641,-27.3863553135956,825.398238286448,101.216374114728,1707.65909821433,-145.86041801719,2096.43642578311,-114.511611127155,789.081123573963,-8.81667638492797,129.676587772812,78.6731716244602,461.408238140087,-65.0825075922951,275.121325982319,-1.31765131173122,293.298108238347,49.4371929616855,1192.17300947296,20.548378280067,1615.32057180828,-251.171080190568
30.7702439253276,22.4850275380683,67.8017467891897,1.71787136944545,20.5620868880039,8.50887677548274,100.471484726732,8.85924478540124,404.096986942271,-34.0635605983042,827.053965470833,100.565029592774,1715.3813368025,-153.404871484553,2121.42357397052,-115.502303025483,788.889966847637,-9.54742484425125,146.040828728318,71.0937201746906,462.036679631028,-65.1454094180249,280.546855673229,-3.83780916387503,297.937891988476,54.4444904860902,1192.15629058236,26.6761191032244,1638.49309667992,-264.376624715401
40.7659729991492,18.4185031867598,63.3590845833314,8.44050824982943,23.2849172449662,5.57802961753054,96.9756390848444,17.7646775058815,416.003218965338,-32.7299274087201,817.196578878388,118.490541789287,1744.71584737397,-150.971673539998,2166.6464288299,-136.530607736591,805.215634790276,-14.6754983753495,138.927017609034,84.3584752033683,487.836157316831,-71.4554489000682,285.025312536882,-2.93848263682188,300.825311071282,58.6568648350747,1228.37602900776,13.7976158929823,1652.92910007624,-261.110564363271
25.4999277415991,22.3683831362161,64.3446260011227,4.80263093317237,21.6576329539022,7.25771702631037,94.2387720443107,13.3663007029789,407.299528452263,-31.8500151021384,824.264831653393,111.836990261052,1728.11449029969,-146.994181578164,2121.79042548003,-123.977127068852,787.715873769975,-10.1457772483833,132.503648320474,76.7666772825232,458.064543009071,-59.3480639030774,274.773789711873,-1.6740080008613,294.304614556166,55.7375948609984,1177.76066966255,29.4918656449224,1617.58109115547,-250.113703660309
31.8594584311446,20.752599525552,59.3375879025409,7.03856305750338,21.9534607186183,5.16879036970489,100.187934990748,10.8092987533428,413.668558369762,-35.9064005806098,820.039952501232,109.849613515527,1723.44276300134,-152.387194362933,2120.78863230981,-123.369585586944,777.821340513688,-7.94783887168366,139.243897460572,69.6090341922986,459.169279573788,-63.3655536898015,276.398744200824,-1.17759915606628,301.439529871883,54.862637647849,1190.15342312478,31.3409574084028,1602.92836095196,-250.365213996456
31.6189566551964,20.3681587902233,68.580643318102,4.54455952919448,27.2758938392776,2.84648856975397,100.815794854503,10.4204644378059,423.54615572622,-41.6889806420778,837.388172792705,114.965331441277,1746.08254230868,-142.108941376673,2168.37280017512,-128.96202328633,805.818203708027,-15.3112419384516,146.277855157198,73.926584302676,473.298151009708,-67.0190286068884,280.055114625611,-0.567909443275878,309.752497299891,48.7945781601163,1199.53378844676,29.9503533684112,1646.74156468355,-258.005479416829
29.2839996756105,23.3344108663429,64.6130903847162,9.43843275994522,28.2118733076012,3.95717893501809,98.016732826816,14.2430534274125,426.242097896246,-37.9411143375404,846.780675839454,109.538060434467,1778.66649770698,-164.462227940585,2193.04917493309,-129.788641351541,809.96075364896,-14.1937031020493,138.281936709224,78.7886287567047,469.759129730116,-64.1147944673683,276.401420974614,0.0996227109001651,308.562746182271,45.1331777855927,1204.84840868116,19.6674969140886,1629.86780515779,-261.596162241436
27.5313051115583,26.3726840265177,70.0626557523494,1.35078250414136,22.382556030773,3.87945376932183,91.0944999924936,13.9345007587275,399.925150504654,-25.9114017783352,826.702908785543,113.753130866462,1738.2073936592,-149.826996626739,2144.78690185408,-115.118815869772,795.044539923243,-16.3048191323605,132.951131019519,78.6125569163283,468.637182427146,-66.799446426077,275.245170529227,0.179889607695478,298.151101643054,57.9896001325419,1201.0679377163,18.9890808861112,1623.06854253552,-254.749965900937
31.8818361342032,19.955740385378,69.1295256109242,3.14490986307916,9.72070284915754,14.0937512456599,93.0640164722882,15.826783427208,418.040274230058,-38.3472718183562,834.79269321481,111.366108902695,1750.90184773026,-147.884196063438,2189.05230450038,-141.212890123889,804.387952006971,-8.99982580067528,149.684324306897,72.19418580951,470.163100352889,-63.6757326186482,280.386795342758,-1.16270649751696,305.853809825618,54.7440455165286,1216.67846985453,32.3801056290047,1618.94500706286,-248.620424204403
24.7781213626093,25.3289381557048,63.4111234724795,7.11874620541246,25.4287463094202,1.07971143011417,105.016151319269,7.13189136235466,423.760272595134,-33.9084729326142,852.604483580725,114.921664236011,1790.42305747563,-158.265656779035,2218.82222962371,-143.651418365104,828.468480403792,-20.8796929851238,150.057826970889,78.2825295086675,481.617770853854,-64.2765867687526,288.952882943167,-3.64180905279842,316.812484747842,56.2517904480509,1227.54901565475,27.7895184494354,1624.82457725892,-255.002513604597
33.1435692125787,16.79465305152,65.6668179906429,5.53066945283346,21.9462185042032,2.05261823148555,90.6584979278172,13.9726343183857,405.319977079029,-25.6282926512744,840.380248675546,107.887500667885,1747.53622673056,-156.299698095819,2160.72326077481,-120.769324327838,795.992076157835,-9.78653763268714,140.007823662475,76.2132281277356,471.704750415527,-67.1005288759333,280.313458905996,-1.11135959264717,308.476489867064,48.6828811059887,1195.12373551893,36.4145691542294,1591.69535931783,-239.490636330135
33.8206891483899,22.2609018403651,69.2191400493069,4.16178234215229,20.5004802908736,7.87915327796514,90.8911382236327,19.7611926460826,415.556851050573,-31.4164364092663,850.343835990242,106.1031574623,1753.15776739709,-151.815280170542,2189.71374892287,-134.116731810682,804.887651129482,-9.98673354619034,150.938861898097,72.1512301459931,481.573344994776,-69.066437988079,284.71375016854,-3.06250456856314,317.138572729392,51.8699328185326,1214.45437873153,23.7763475484931,1612.43896889844,-256.403049983295
34.7805332878108,20.0546042598884,71.3197922341172,4.8112827018992,26.533800839884,3.65636867957606,95.2435379904923,13.5961115359695,424.302352149982,-32.4478868494945,858.962188816191,105.006245510356,1802.11028253181,-160.66189465541,2235.04192348587,-133.122259707081,819.583067016889,-11.5851224218304,148.435855412091,80.6791984658664,486.351727047725,-66.3011391973634,290.921201617386,-3.68623035262991,323.326464252276,47.8300191905344,1244.58903868339,24.8761766627289,1621.7540108547,-251.726137602295
35.3562828073556,21.7529747965097,56.5244454231473,16.1013481174485,22.4946145105215,4.5659733409604,103.590186703404,10.6657626992106,418.279605668006,-34.1319546656873,835.908003565163,109.306627539161,1766.38506572303,-160.511653581522,2199.02898597772,-141.771965415118,814.617520451405,-12.3674651386942,136.848938719063,76.6493826716766,468.706277835873,-62.9405162454402,281.703800175486,-1.69284445602653,321.805945555542,44.3351552501431,1216.4849963892,29.4618209214134,1577.5144705809,-230.145587043946
34.1738207005745,19.0275751939103,75.0145472811816,0.0293960912861358,22.0966370519597,5.27468718584373,93.912629100515,18.0687904877522,412.216355186313,-33.2138405818368,847.175124442615,103.953884207955,1740.52567864765,-147.042788463154,2193.3462218166,-136.320740632032,806.608593871036,-11.8700697617647,132.531465990557,81.6977301145583,483.998395639623,-73.7271204386363,283.589933672541,-2.62928603309806,317.847725404871,48.5091642023958,1216.8383922081,25.046826487146,1574.54436133437,-238.452707299636
31.5811485445032,23.8825354715911,70.1778484296035,7.98915882557482,16.8955955585543,11.6489330418115,100.234985865605,15.3794259925952,425.230119314104,-40.4732250176734,845.495467438175,108.066630968068,1792.85390689403,-165.761478276376,2219.99568017581,-132.282768112456,829.274808513034,-16.5221896131069,146.759904779639,85.5770730709761,480.502288512247,-67.2733350357207,288.869318745143,-3.20266458268286,324.458924890407,47.5266540591626,1238.83898209248,24.5329716055454,1611.473246856,-245.619719309653
21.0900839870626,30.2624647873959,69.6151845319805,5.17725635883327,14.9425470610038,14.1651224029682,99.2569244630997,10.5564519670205,427.620240554409,-38.1545097063984,868.640335370647,104.224358412987,1821.00480631931,-169.902313333434,2272.13966222056,-151.399465770355,842.328498649014,-10.9502265974883,156.0515835047,81.0593866671909,487.472433962838,-69.2869911875427,287.452963676547,-1.97906802804749,318.831110044808,54.7685865118029,1220.51124076703,29.7356085501209,1610.71280815265,-245.643232440251
29.2266659208083,23.5013871998978,65.1311698377061,6.53730499798915,30.9033074166161,0.673569758544999,100.190389328418,15.8472403220612,417.198030649266,-35.6762080561206,843.210556649291,106.546728376643,1770.02825471344,-159.16873756674,2186.27198675806,-126.362019148802,810.193591866358,-8.06357285138649,138.892163402034,77.1499490341533,479.822572738682,-65.1882155184454,283.780836655179,-1.74850651826804,315.876754333449,49.7758713907192,1240.73401889266,15.4894825233715,1593.6671615496,-251.068130431323
32.2772245819218,24.9167141850118,80.7417997666739,-0.508585100933282,23.26550674304,6.82512573824207,90.0375696739626,19.0580167621257,425.092227716042,-39.4443228895114,843.382531807705,105.254329149459,1774.68978719298,-160.662544412275,2226.77714136792,-134.15168562162,836.630127701202,-22.449701961698,149.279806280168,79.3090586473246,480.838530033784,-69.7495885374989,291.804587418458,-5.02769626507121,316.199025862375,56.7202221292184,1247.99036204711,17.9101468217016,1586.02244787174,-241.843451870951
34.0032476071377,21.2255712518906,77.6274383768632,0.612688466694888,26.9674435544254,4.4348710149614,114.570260018993,6.17058759056278,431.154366401845,-37.0877880750439,868.815094567291,103.963008357157,1819.62827304592,-163.276569446771,2259.45881693211,-131.945448867689,852.625940992601,-23.6151930929576,163.448938349225,80.2494147020911,509.203439560696,-77.8825816332408,298.136998850854,-4.05427125260208,330.416653626937,54.4166741008355,1271.16971760815,21.925829322815,1631.8552364905,-252.70531338989
31.5299791772016,23.066044373977,66.9992518390275,6.39144308887559,23.4178503112757,6.03674487888482,99.7526871552935,10.0910781297236,430.555310515548,-41.8834477182288,851.157347489233,108.733940132008,1806.12883265989,-174.061127269266,2193.63364230267,-121.008487205277,834.62890028552,-20.6011987224294,139.864007339744,79.3645808212748,484.039943310829,-68.0523235050976,287.667114459618,-2.35259305259432,322.707330179459,44.7554446804217,1248.99162960834,28.7572223217885,1610.72123212056,-256.989503467876
25.8307059153895,28.7770073524141,65.6601176974408,5.28579857667246,26.6743186147816,4.29791912162693,93.3142948791983,21.2639821134423,425.715700151062,-38.6367683580495,859.199222585718,106.937417069186,1788.37998107791,-159.010133633941,2255.2745408707,-147.590550404901,832.323217408319,-14.2490656813166,146.389420553935,76.6228953317396,489.584875077369,-68.0123035181533,292.801774937369,-3.93197805979145,321.496794710102,55.2163402674345,1239.1638083311,41.6184864742347,1591.14666988059,-251.26593021351
29.5027848291503,27.2502392318482,63.0819804400913,8.43623801458628,32.1646777506602,2.64252918349007,98.0118815924977,14.0638493478951,432.58810855039,-40.6864586971396,864.267404444582,106.685085115035,1819.36435753486,-164.337448174288,2296.13227069475,-152.893454482372,846.650217131379,-14.9125263464716,154.931711740031,82.0251702192877,498.82683774444,-72.4031035148374,301.04761336963,-4.16497143640329,340.907306572567,45.3663375606283,1287.86359018092,22.1199750876466,1627.54441116436,-253.97404606943
36.1587043732398,20.4954342985881,69.5018713202895,5.33602914209278,23.9755465608582,6.06834246815579,91.6739422779522,22.0788477294803,418.055809030528,-35.572819823618,852.144089210511,107.984145666005,1795.60087121229,-164.26539278287,2235.00938638329,-143.37235092751,842.767596205206,-22.2915032187939,141.582654703648,76.8622749765754,494.433233862332,-74.1187786316569,290.947836271604,-2.58084420696512,328.407651213858,49.252584575894,1265.05331636213,15.725971879217,1604.72826812001,-249.303634768522
35.7488291444455,23.6931149103976,71.038495975869,3.26034199849774,23.4195492261373,7.36735182769689,105.03036306951,15.1081131586971,426.778610668021,-36.7244474720783,845.916277325819,109.978572219887,1796.54866987611,-159.978888126362,2239.44583014443,-140.506252403941,836.178358312793,-12.8680718740539,147.860091441635,80.5437867359056,490.21390756775,-66.2730780596998,293.885878086825,-3.40791021128468,328.34746801204,59.2721568658558,1263.28616602663,23.9575604019408,1604.43068808014,-251.973647185907
28.3671469803832,25.7696102449823,71.2962583547171,7.69090096589235,24.3331311174219,6.28936469765848,98.9552149389085,14.2762459016828,427.332629242131,-40.3785726476029,872.430873403235,108.519142372699,1833.94096128956,-168.958321039665,2314.09065538499,-156.343593902713,857.04634232161,-24.4475254571744,167.732846715817,76.7371530177205,485.973264151145,-59.1824345597295,300.89413491705,-4.49147072075854,343.024748764212,52.8698575979537,1307.16016350717,8.27327759040601,1653.27897616773,-261.718350473514
35.8921793626514,23.1157701152863,74.1079103169438,1.13598302134087,23.4027494763276,5.08036452723412,95.030567488373,13.9610064347074,430.099620359366,-37.6730739528659,842.58114419595,118.19185017736,1796.94835496602,-172.758452008602,2243.42333058064,-138.921786889046,845.068235787242,-21.323529445883,153.6918746484,70.8276726867518,486.690221944416,-67.6830160929304,291.443471571944,-3.19810804081977,330.251813710566,53.1542690297154,1267.9509902474,14.4626247054337,1598.01726318606,-249.989095970108
31.7603010471773,22.7062820461329,72.4404302776622,2.98730265064351,17.6400790057456,9.32714859986723,95.0381279388972,14.8416289989639,427.976410917235,-38.7127274712573,851.660793095378,105.541956541186,1787.34473323281,-152.498123646882,2253.68964349516,-150.938272001754,830.495516664784,-10.2333697221394,149.502584236305,77.3177820774621,485.882951827327,-65.7466352630192,293.415105481932,-3.45048044158357,327.406643884486,52.4352405625708,1262.50040086509,27.7412464662365,1608.24377660116,-251.466871110717
39.227179035617,17.7774046114918,70.0859157490392,5.03435247870714,22.96545385621,9.14548206360364,96.6371619587361,14.666510677856,439.400024405692,-43.1978172391333,864.067294331221,102.632315925649,1809.59547836401,-155.262501001931,2285.80173856567,-142.51730443167,851.060131207126,-19.7994895044592,151.395733613824,82.4829679653348,498.069796232707,-68.6234678634852,299.693995102424,-3.61119226988959,338.953648350468,57.7196108278034,1274.71171838435,27.8640764937868,1630.18345321565,-246.753843217211
27.0467815854071,24.1553148034071,66.6983061490962,2.92164698382392,23.0539221342744,6.83038928376179,92.0225381281167,15.8003258877171,421.551932281304,-37.6661668438072,846.874692663545,108.291168208773,1785.14106436272,-159.209786767817,2244.97136648308,-149.46111834558,833.851072960967,-10.5506983308482,145.471063221619,76.9570710402538,490.058608392522,-69.5887279847908,290.488082044102,-4.00269770844746,326.116852466313,53.4923556693425,1242.79328762791,31.7771812353969,1600.54845829017,-247.158630371686
22.1645093870922,26.7392175577083,69.961815261456,4.64577804456185,15.398646389863,13.8147579524328,94.1358821131813,13.8146264322842,421.050910172873,-35.2979464943276,837.581341894769,112.577726216138,1771.12679051856,-152.339501445635,2226.80082341055,-135.428234276015,825.433972234804,-13.0416316860518,146.152269708749,78.1765256162407,489.942256156709,-70.7662957521558,291.811903673167,-3.54933913234025,332.103831978769,46.8592656105423,1236.51475974557,30.3243054578275,1629.4481220546,-266.571053357752
31.6951042936744,25.2452866007877,70.895044029817,6.27608190608534,20.1607591250458,10.4797243418697,105.067208112743,12.2044007733505,424.193546035885,-34.0362800805584,855.367488374859,104.383076489422,1800.00017923368,-160.894492343685,2270.30186713269,-145.505099443895,840.560405686786,-15.3257781459724,147.142056909941,81.9087284995329,483.212383365159,-64.9485777955559,297.741744230561,-4.66907154473629,334.373210529736,53.5940763230394,1263.89036252743,31.1036663502196,1616.26938929717,-250.450289783232
35.0311677072761,18.3103361592714,74.9076248534156,0.704273562854029,27.5201654486969,2.28771087650981,96.3139783071628,14.6612860602004,428.980432581725,-36.7871330586761,848.780785796476,112.421578936892,1810.95916651951,-176.079812781332,2244.24063053801,-134.166590220644,834.413900783629,-13.4922079372105,151.572410652413,73.1632140559776,477.260361880371,-65.4122968512819,289.531201972486,-3.01125787648555,330.489468993738,48.2605802310058,1248.10968716638,17.4131074827997,1584.00807973469,-234.896805184984
38.2813632477697,22.3529505485621,68.1168030481313,8.18488679837098,18.26438334697,10.3959771561691,97.0537493864975,14.5682496349848,428.046350751563,-38.803469575616,836.119802197921,104.750286346101,1761.72044378729,-144.485736171856,2213.84243438207,-131.641332662218,831.651218258507,-17.4295724073459,141.693359345681,76.1461447532803,480.668814297823,-68.7756878798901,291.865281080348,-4.38262461014305,325.85300639681,53.7949379126451,1261.78664998133,12.113112308757,1586.75274351701,-248.163631150534
33.0443570561933,21.0997227270424,65.9408529235182,2.889860484577,15.5281999639919,9.96391365031609,100.382291207165,11.121871792721,422.023107307835,-37.5954057855139,834.588899626293,110.189773557082,1782.21455596121,-161.707152497171,2239.71533517869,-139.20732599226,826.221832386159,-9.18906183105611,147.726600543476,81.1440069330613,489.20216553471,-66.8158852490223,296.008184054316,-4.18386304956316,334.028310960227,54.5078110393555,1266.44820521167,19.2515799670174,1602.56042501167,-243.493190837146
27.1810611966005,28.1416529693291,74.1469824657941,1.97731424599215,25.0796124775043,5.68843445067647,100.185394012963,15.1929994920049,415.748673215471,-25.650744845666,863.942084894243,103.458777191164,1814.40936228302,-158.821471561416,2280.78670928602,-139.770666011611,845.214127745143,-18.2286246645163,165.740918584058,73.1096057063793,490.333083922157,-68.868197212748,296.991663757553,-4.75131702979434,328.349107688794,49.7183036606335,1270.46816363699,26.6658984906555,1606.23408934686,-248.196442666928
41.6395477929296,15.6675230294027,62.6973856581779,8.86475043111418,17.5886568196589,9.37512262089987,103.159493191951,10.160207971121,413.489555027094,-26.7540540870058,831.791192910064,108.722941122481,1752.67481475166,-148.016503248012,2213.38853636057,-131.522332269188,822.29983708407,-14.4396392788305,143.91131962754,76.6458388655644,485.155505055414,-66.7624066193511,292.444886219344,-3.69047506068178,331.859312536661,46.7799724511405,1236.8564806431,36.4217631766375,1599.91751197359,-253.838401529048
29.4307753431602,21.9530314497069,71.4573253119137,6.74901372865041,21.7667558903868,5.04805401273798,106.685817261559,7.66616966211197,413.998544218069,-30.6532335778909,828.396267129835,108.782052139565,1788.36566197445,-163.882562473272,2234.14717930505,-141.872615289169,833.172394224105,-12.35271063577,143.964564184187,80.146160892641,496.147171090927,-70.0408080588901,295.500058624759,-3.31538076388179,330.168145291347,53.6708614551908,1268.12393133492,21.1500995740495,1609.31126237265,-251.582566715159
35.7187742700682,21.8027673887222,70.7319291237808,4.85846675623087,17.046780398952,9.92325946326255,106.208812034689,9.65120772775064,437.287011996394,-41.1129146042096,849.922990281626,105.784378183355,1812.52937517454,-171.382727771119,2274.81024877823,-142.731584865901,859.377790423527,-20.4892328506478,160.824556097607,79.1977983500174,499.828062145454,-71.4183880884715,299.008603079031,-3.25613943929584,339.435779956401,48.2624845965311,1274.21112381779,23.6508022184745,2001.54093905462,-324.75802678224
27.4773917073021,26.7422088523594,62.8783297131735,8.87571692499823,8.2558837745723,10.95923408654,95.8017275541588,13.9961371678363,416.090690090575,-34.5411245316633,818.912827084289,104.441441966769,1770.74913656533,-151.997682164239,2219.97986496286,-141.383321921992,845.213652750595,-23.2892643722981,141.138161644184,79.7600013630209,496.834739220413,-69.1501334944486,299.081671344176,-2.93541809140749,339.698042482384,50.2019625033337,1313.95182466802,11.1500965928879,2362.4645372716,-363.072725520319
37.0314288008704,18.7179698523544,74.4105671728039,7.62619356008199,26.336651919975,2.08056077595144,93.1646348953673,19.0075388363658,415.592591239095,-35.3588832179259,840.53321857433,106.342714110929,1803.58822875502,-166.953285602354,2248.36849208545,-143.791617246247,860.459664203977,-22.238000105856,143.886509532836,83.9952878372293,499.467672090957,-72.9160780796109,310.500068497616,-6.48423131138323,347.405350361811,55.1980249332493,1324.42857018405,24.2051067512341,2459.57433523258,-387.1021974031
28.8124003869836,26.1287240057589,80.6469587462216,-0.293206032545278,18.8921113201,6.95180661348827,102.397798752146,13.0132587886108,422.06528555894,-39.305427612048,848.271960314014,107.437527348202,1840.50863979447,-167.578293628521,2285.03420458537,-152.774148706342,881.419229073991,-23.879118649697,158.002100322036,77.5446213875504,505.546176163994,-71.6116392937043,314.819444396489,-5.73063985179789,344.768540247807,53.6502061327225,1342.5967710677,9.10324621592796,2077.77249302693,-312.049673477112
33.4143404882954,21.8790345248893,73.5232925297431,1.25860947502667,21.1268242236945,3.63628734809847,91.4395387508911,15.9802859605332,400.810453028403,-30.4049762856588,815.336725642228,112.730584097951,1778.02817850485,-157.172671937052,2219.7110896849,-141.691363934989,840.61053686482,-20.7342783137659,147.75042820471,77.0116143526249,494.363215755288,-71.6575399595641,302.65807535763,-4.44474124999345,343.648840269675,46.997440674345,1286.19648517032,23.5977519691964,1791.17792230027,-267.108212581869
27.0881815656688,24.6795292200244,62.9866077312494,10.3688167675382,23.2554567317715,4.03685048175663,96.6229474316042,12.2330584008108,425.925223661574,-36.2562334391112,827.876165344957,103.171836328859,1795.85334223368,-154.467894709652,2274.17642345599,-158.114152182986,862.850880650847,-21.5575823136391,141.676461582711,83.3395119285261,492.523614831601,-61.9499963969727,306.157352531545,-5.35404290923341,343.329913227622,50.993844538747,1282.7050880532,30.3156038745859,1767.86852820977,-262.92910570845
32.604235972455,23.9190301727871,67.7149518802639,9.66849846590664,21.8870361655647,8.29623651617351,94.2597775393212,16.3112744067878,430.368015773591,-33.7532159429574,836.429863951493,106.761348891202,1804.77079671835,-166.278592034816,2290.9387685936,-145.878923681639,868.263091160594,-22.6033975334131,166.933834417605,75.9929872717457,494.038152505498,-70.4318434118252,304.364778822309,-4.42147495251718,334.135475318464,60.2200523516991,1278.33416240456,25.6172090292207,1721.05727972178,-261.201646875746
24.8520249590337,27.0509154458405,63.7000382344142,6.36314300701295,13.5156173243583,10.7171350136353,97.6139927310313,16.6720874425546,423.49145211504,-38.2386836222953,816.942549856005,105.995241066462,1750.12263504789,-154.315186032061,2221.65254040626,-141.933898840603,836.652143645707,-16.6769640473146,145.000165117482,76.8027127491386,488.730642667147,-66.8078198352174,292.989697302123,-2.22709004677957,323.478176151721,54.2697075852983,1258.313221138,20.9506053951548,1658.15609229591,-239.756119488117
28.1528579602527,24.4324655044518,68.2261329792678,11.4615075557728,19.4496533321851,9.14434106598485,91.985272733689,20.0592267963017,413.700081895264,-34.635542956543,826.900174422139,102.222250896947,1778.80542346822,-158.240816598652,2247.66021653648,-144.565451495959,849.201875337423,-20.883450616576,146.408656438215,81.8163588673844,493.083467208829,-68.0737518981412,298.968891430918,-5.30938159020746,340.515370348116,54.0496630690129,1275.8010881229,21.4320798033155,1641.43590384357,-238.754414481371
35.7040184809581,23.7127795001431,67.9325315764178,10.0266837502147,23.027759736449,6.10134823204508,105.376989897982,11.781929625318,420.599481331067,-30.0590471489477,829.907587060113,114.170154622383,1796.6789164998,-159.009655927677,2242.95788017657,-133.425041225246,847.939270388197,-20.2715591937195,144.726279783995,83.8981168754024,489.693721733982,-61.3722039969395,296.036251074275,-3.88438517526891,337.604374060272,54.73996874506,1263.32845291959,22.6931152563932,1915.74712908138,-302.91234190101
28.0561667672895,26.5184029059254,69.5850089300774,11.4998111234934,23.8491608765391,4.28600606406583,102.519428541218,11.0218828446658,422.958348360956,-37.6806076424005,824.591635621027,105.152830552955,1788.81798059325,-156.699339739544,2222.28041211243,-135.089627514709,849.933773497273,-14.4180808438606,145.035873737036,83.8934398802309,487.418002296511,-65.0873024107098,299.728124504805,-2.90866154894448,351.151119188539,43.464808834474,1292.9987806287,18.6413039957396,2157.11942915581,-336.007500524055
36.0371411045925,21.574457277706,67.6977528462932,4.58661106516457,22.1144801970696,5.43252511423957,105.306788950142,13.4915905235603,423.204786917468,-33.1473647014199,826.621454025932,108.18082020312,1838.60793583049,-174.578757179509,2289.01072111027,-160.327769934951,868.936939663736,-24.2395592108194,150.829260010435,85.929981027218,503.474217088773,-65.898251617699,308.164906714776,-4.42147304110155,349.976373151605,56.7170097538508,1313.97665060421,20.1417322450434,2153.61924007308,-338.630735684998
33.613911831129,18.1146690043614,67.0588925705154,10.2843878699989,17.3596968589443,10.6951109269271,107.780354687941,11.5569291022827,421.239026471445,-35.1916181324637,818.198687420127,108.082306972645,1794.02121923148,-162.20611396292,2242.97933939087,-139.885097111509,865.854179979111,-29.0294125575562,144.82422094356,82.5767464492322,495.043486030048,-71.242397179288,303.082058233014,-5.02151611213853,338.770793446734,52.3225706632803,1280.69785283609,20.1432195994827,1979.2524790135,-313.544238619951
28.561332315907,25.8085593940848,72.9799921831426,6.01845903401675,28.4875426787443,4.74095999900963,101.215592931552,13.5401872308098,425.730504829859,-40.124931616686,823.633895776084,110.492820600606,1801.09793485614,-171.982829087036,2249.34571603726,-150.005677583119,847.166533562785,-18.5397426514086,149.980692449422,80.4728596256062,497.226986558966,-74.3993368111743,296.233284469349,-3.70223518203131,334.972525223718,56.4535958869651,1280.54980123661,21.0137457346184,1740.257014872,-255.031040411658
31.2320732739784,25.5005487298365,67.4612215083399,6.90000871261677,20.5023658217311,7.30183250385637,105.339565603056,12.1814388333488,413.373155657417,-29.3996780820582,843.785475924897,111.001508328191,1826.13001143216,-172.218570856889,2281.94788881846,-136.615460039009,866.332046414076,-24.0376466530527,155.549878352658,80.5377676915163,505.161140911798,-76.2663221138487,300.139920243121,-5.11123714382487,347.836042116507,49.8213592652028,1311.63450783989,13.0749729834517,1696.3319313762,-254.103691879679
30.9407998414815,21.2716016112397,73.3059455693399,1.92652440691323,27.4256484283959,5.1442520091972,108.757933490146,8.4444660152623,411.271770465885,-31.5688211627465,845.055970497608,107.242817255911,1782.77800812702,-152.822850205529,2251.12418673652,-141.900807865963,837.880042430938,-18.6278503963909,154.150846870197,72.7187135582557,484.856654532912,-66.2938438860542,292.561682573935,-4.77011361829017,343.962746193226,49.8325060022458,1263.5992910428,17.1431202945339,1618.62039427187,-247.031496768119
33.268468649489,23.796073006155,67.4096457534303,7.58995012279343,23.4603919282055,3.46651959276242,101.170145513752,15.9063619474254,414.227053242427,-33.7856069906687,842.002117622845,113.227894166491,1805.29268158446,-165.929640151736,2261.73428131813,-148.760873491531,848.365911162007,-24.308653447556,151.0577879031,78.0452630051234,494.337823496523,-66.9090888841895,295.43788285663,-4.95260029374247,333.680906614655,54.7313727299506,1296.45102097621,16.2800931891332,1590.20231053627,-229.095113656501
35.3886345065404,16.7975206153469,60.2937616434869,11.958567167409,25.7084809451717,4.82484904459294,109.517640588568,14.4670007908469,419.558568173242,-31.258660827853,861.709973404839,111.348633297324,1853.18369966198,-174.301812971752,2325.11755514376,-156.490906299103,862.633747776415,-27.3894652401786,160.816937806075,85.5676040166815,512.294897260931,-77.4243985025708,295.752087380294,-4.06933511938227,348.820522553163,46.4192204142238,1291.87386072705,22.4179656075016,1579.71439974742,-242.193647131702
29.5528893680723,22.4256766263794,74.5525696206555,3.8244646432049,27.7334559429471,7.37597786034029,104.399375407996,14.2000505697316,412.80254116962,-30.9916961002619,845.468273766166,112.261692627271,1812.39408485068,-157.200353815312,2282.6396717877,-157.97553802148,862.340407955316,-30.6641430210256,147.930276067704,80.0995477223771,494.49894899828,-70.131472844442,294.218389603517,-3.64790810709539,344.458415584587,58.0273865254405,1306.39264345794,0.756556611386083,1552.10053954212,-232.605288675129
33.5638225296807,20.2261037935368,66.4152130308389,9.77744386162211,22.3705495315122,6.0195195539593,107.959213475797,11.3904146916582,414.816362999343,-32.9566557448077,861.503846078106,114.6824900854,1830.22269765146,-163.617100666301,2306.84509362529,-154.654515896684,857.315111218346,-25.8970212599716,165.328085970745,75.39222938238,498.693865313187,-67.4409338140309,299.541640671473,-4.80328487169272,348.000194091391,51.8386937808874,1310.20241760988,14.6487646423224,1548.91446701465,-230.661778011744
29.5438973731896,26.0643218851479,62.8946213604139,15.6113495444365,20.6373397260098,7.24867946403923,105.003300512783,12.066934368765,436.547279026443,-43.8036393056877,860.402817361356,103.086214500286,1817.57929698676,-169.144207126191,2280.62196612426,-152.129044570158,838.670489226744,-19.3650001920259,142.786756062078,84.6591174045566,492.861219455103,-71.437433570235,294.403170037829,-4.4628546439222,337.923547014568,55.3491262119639,1287.25444369792,17.1967786470498,1487.6478076084,-213.888569895398
26.3136654159387,26.6181675680295,76.5135458358656,0.676455402372847,23.7617433224467,8.52128158375542,106.305788695865,11.0876467490243,421.08816796221,-32.3991477227594,865.911530316552,106.259739621909,1805.96115927735,-150.549763204344,2298.1615761024,-155.81428500138,855.535849219916,-25.7810873721375,144.779519585392,88.5426888248651,503.38597293651,-80.2937565653834,296.598369201174,-4.66696134185271,336.548261283109,53.62156325146,1306.75964231417,18.0909795764933,1481.71189921857,-214.367766980707
33.9014649134198,23.470084887667,64.402653358881,7.83464013931359,20.3711645246695,8.0998988127126,97.0439831884883,18.2316328911763,439.746541873659,-44.3842754546775,874.364101009712,108.744827321264,1835.61358263655,-159.576643092565,2329.56891249091,-150.889532602356,862.82227335254,-20.9146223877047,164.975418132793,78.674731804392,514.371976291704,-76.397794797318,303.994094991527,-5.82060390633184,357.307313721929,47.7357048086605,1323.53399284225,16.2868672462157,1482.28232414832,-213.104355007345
32.4789997565573,25.041673479541,73.6987407277061,8.84165020304864,23.0358562283584,5.62427525944926,101.915867108996,16.4122502919909,421.41040598206,-39.5330442854683,863.269583707765,105.126440113956,1807.51000118369,-164.708129148443,2286.59248023609,-150.015565721047,846.3012575786,-15.6864874605932,155.976472118339,77.8286742026126,502.218558668035,-72.4946575826961,293.681456720727,-3.23900086735143,344.149227446369,52.3536854982105,1288.87653631159,16.4213634626892,1421.44574388056,-200.769444640791
32.5778764029894,23.3313731159795,72.250550793679,2.17301522896499,31.019259306563,3.84308030620455,102.831083998947,14.8800638986082,428.199007470418,-41.4131325411592,872.550628324401,103.851369393966,1831.23484783703,-163.373008307389,2304.49900038455,-157.709404099246,843.727657049832,-12.7520605886331,160.358254449329,78.9936029166855,495.241154609864,-70.2576995613996,299.621665266298,-5.32176783671383,340.229979783429,59.7226309805851,1294.17912035068,17.1439708745005,1426.58206534567,-200.055796101011
25.6014132683225,29.8209997784226,73.0584290505281,8.81051730271917,16.9358420638728,9.15862291165107,101.647891135472,17.1923928047058,435.530200526395,-37.0480277538236,883.844915036388,103.534436753021,1851.53878210448,-170.673497294971,2342.64726155668,-165.100081411836,868.776558736499,-22.8298883148627,161.76716167444,78.100083070838,499.97111345351,-66.5709460793642,299.526076658212,-4.69714559870465,344.338012262609,54.1484163280649,1300.06360721969,21.3752809948778,1383.11117296854,-184.898538376361
