28.0630505883473,21.7955592750661,63.8045220342566,5.66990995137289,19.8136624146421,3.82118606887782,103.156875151264,13.0579480928813,403.100027276007,-30.7427696920646,790.224601860897,111.091497775274,1738.38517545896,-158.790941441358,2234.59606739847,-138.345475726788,866.339737929673,-25.0324758918996,149.649436993108,77.5553555999861,477.985790075056,-69.3748867548407,315.074782342259,-5.66743261278639,328.914786310359,54.811102881993,1391.43721228079,4.48204088815288,2019.54435592746,-346.253672430469
25.5183641057609,25.0571128655919,63.9313796185488,5.37128425100551,25.3354484456415,4.52620453180093,97.1703382612245,11.3357661425805,395.209836796013,-29.4969043945539,778.463892306327,110.11055306482,1715.56388543457,-156.058092427047,2172.5193067289,-129.969196050753,838.347699568327,-13.2525999752642,139.394592862565,78.5610475295255,459.538375690653,-61.1026704065745,308.116993285848,-4.55686871517053,329.08371343214,45.7003293919955,1365.66350023493,7.69523627885949,1949.84197650825,-331.610723517496
26.4954720263728,22.5400068539152,60.647326809838,8.3405816287889,15.8683909896932,10.7101938503654,96.053522266038,14.3699598549375,393.952198482167,-29.3609227981027,784.055496221015,109.133834433643,1726.46592195932,-154.071168110255,2200.16734071579,-143.808864841803,855.602925137121,-23.1922020258657,148.872649466206,74.1752105084782,469.409099483438,-66.6669050056427,308.992597468033,-4.9490002788852,328.906147134806,51.4155883280229,1362.19521018344,6.9871894853924,1982.0568152866,-336.741208110134
23.4610774196329,24.0030429491946,66.8557853685552,7.12745946641716,25.0427571621413,5.08652160872424,99.3079116116994,15.4617972639129,395.676185113357,-30.6413086444201,786.545004686648,116.843677650566,1742.72919746562,-157.728004650555,2210.45300332428,-128.919661211018,867.483277835348,-19.1677171644917,154.978407003789,73.6998390614581,474.145166169113,-59.5994979158117,317.239092919389,-6.10264530089875,347.158069212973,44.083207074699,1397.27679475878,0.702777020505766,2031.66576623207,-353.041447686701
26.1249761447066,27.7687935297912,69.8115822029846,6.67224242830448,25.421694858023,6.18260176575021,90.8672419460317,16.7109491709514,403.664376749769,-32.4620209017713,791.915675560989,112.979577693211,1704.20320002862,-144.543388119565,2192.6911106776,-146.521761712368,857.701269958424,-19.8230384685227,148.909391398218,67.7243542850781,468.43038355963,-62.9807533588218,308.193004033403,-5.40774385901247,325.164849523624,53.4411457940443,1370.72498834638,2.60599734475326,1970.84214657497,-329.444951438812
29.7773168692767,24.8444320425143,60.2670602272914,8.19464320213499,23.6446566078255,7.66034392666455,101.818938656654,13.1983001825979,404.750648455431,-32.354225065529,784.291375274139,115.740256176733,1729.0476814967,-159.734172186272,2204.16989583122,-133.652834039218,852.317999505293,-17.4953860126739,151.697612577987,70.875001598421,464.760811532317,-62.4849493627685,312.771829731787,-6.2643401429704,328.582721730694,53.4286992664563,1369.7309584206,10.5913362771763,1979.95767902299,-327.901517628039
31.906997758145,21.3553419985434,70.0995490711942,6.55019444722379,18.4130476998333,10.5626013327627,97.2406863230785,17.4136464724741,407.826855292503,-30.3238054843668,790.103390077688,112.583486135986,1765.85869037987,-155.897131864546,2269.12943264436,-149.842529169556,874.077876181987,-21.7663832566194,158.219213243574,76.4173390354158,482.721048461334,-66.2766187503324,321.237460075377,-8.55755370293294,339.870385238189,48.8890530466017,1402.82546123214,-1.14853280431301,2021.41440449547,-351.532164763766
32.6684783035445,23.752597710987,74.7162958545374,4.13998680771124,24.121216922373,7.08341451360596,100.967463454375,11.5349535429376,397.210143088552,-27.5911255213588,790.713994164872,128.685573194144,1750.57473019178,-158.776630975867,2236.55537918621,-136.740781587467,863.339145049627,-18.643577072869,152.465336064798,71.0315777335706,475.118121913471,-65.0039080502613,311.743033044804,-6.1514096101587,331.406982212356,50.3046550889382,1380.55521627069,-3.93589564270664,1968.32866567822,-323.315411341392
24.5748260029675,25.3853868317424,65.0724862710867,10.5128080314742,12.8820022522095,14.3091740888343,91.5141684115385,18.5210603484559,403.105956755925,-34.009470179828,776.364609776914,122.964904185485,1735.1331841251,-161.874116016921,2201.72322742074,-130.140205895248,865.603747096618,-23.6881413874216,149.765917087509,74.2775459876223,471.407456408755,-67.1047574760884,311.396347529082,-6.388267323107,333.500738544419,50.6864654222055,1387.76843399958,0.1353066567117,1980.54396607188,-327.723955764374
32.7705333274467,21.2166093784386,70.5697044923705,3.7355632258703,18.3758886184986,8.58651106927332,96.64294871598,14.2523830024241,418.289022676312,-41.9882589809768,799.191320745523,110.879107679566,1745.58889221675,-156.46718731059,2256.44597436809,-144.98436853289,869.103496131586,-15.776992606513,150.400275766619,82.6279807186721,493.794114878599,-72.2914870554861,319.337367668165,-8.09293880003106,352.986307819908,42.7508706238198,1396.9273644884,-1.90814931910353,1995.46418172858,-334.720710887818
30.9562040435622,21.6470188343175,60.3082095852888,12.2149095532204,23.0791650489145,6.26381065664882,102.538687405115,11.733214663688,414.623571428832,-31.2026666735704,804.562151426638,116.320728669317,1767.30597444305,-150.9392064192,2291.96426606668,-145.918154217888,899.217341353539,-30.193472474879,152.888139433048,81.9288431506606,475.339119484677,-65.611743808494,318.379989672771,-7.48773845649642,341.262406806034,50.1947192475742,1401.68012012061,-0.638777363174445,1995.88217543731,-340.482253712109
30.3273437747614,22.568803277036,64.6373609360405,4.78868776784562,25.5317127173509,4.63655565761109,98.0123332351928,14.1755819297988,413.949323540516,-36.783081553327,785.006493235244,116.119564644564,1736.12058749024,-154.423914649769,2242.78706590807,-141.681849891235,875.901556911974,-18.3420625870831,155.733844943433,68.1746756009029,472.544735363359,-64.4085430208808,314.077011109774,-7.19991748710636,333.517693196765,49.1446190827477,1386.70213893636,4.18879177136074,1959.88352175365,-323.807915103708
32.8142091934534,25.782439499837,62.2584108230622,4.56658517274781,24.0938228997654,8.03954332457009,100.195441673092,13.3639514753671,413.743624919355,-37.6293024804786,789.595060812107,118.079733572709,1741.26549548886,-153.717471611482,2257.2727507962,-150.054248203877,862.321805261487,-9.44795846891133,157.117581967298,74.3607205921857,498.458323147427,-74.6996628573637,316.066406341849,-5.9151479858355,355.161808109483,35.9828016663035,1384.33958852775,10.0346427479068,1990.07702356971,-328.82141840497
26.2923820417701,28.1327096781621,64.4144503491059,9.04083871638819,25.8096495850171,3.94520491849781,100.065293294768,17.283291190721,428.076469291683,-36.4924962687076,809.861035479173,117.984085763385,1781.55327304816,-156.71325429779,2284.09846645052,-138.826191103637,895.587568345471,-19.9825089264697,156.023490264633,80.1668012387894,497.021550140438,-74.1936797182125,322.149302595832,-6.16315553242052,352.545471000234,44.8929622004392,1405.18266841482,0.199503189854682,2012.16739371754,-349.823324176456
40.4020936029121,18.2143910631781,72.4674331674017,2.76679412459554,28.7374415841775,1.74404511319754,103.881102084601,10.4612749983942,396.602466092939,-27.2941754551682,784.992320112203,115.487345237321,1722.44510988118,-151.451592739742,2225.07926282916,-136.074521225995,863.251397836287,-16.3835562104131,145.330415220242,82.586374738948,471.030595389295,-66.9424153950391,314.397586207059,-6.02951399180439,334.854843658118,53.3049910791846,1391.16151793851,2.21930949282506,1963.25963963036,-340.158362262763
27.5533564779672,24.2326069112187,61.0968454893343,8.76223111756075,27.2428906043919,4.30094712762144,99.9330331714533,12.9842845176563,422.614695178302,-38.6488822472512,785.528099000619,126.63380636023,1745.02704553663,-159.663862658556,2260.04762631898,-155.105672653143,876.176997198457,-20.3427840021444,129.193000476076,88.0183014977665,482.060758458153,-65.8599225228636,316.118596978357,-6.68426833232405,337.300793281936,53.907992292399,1393.91544873541,3.79679291450438,1992.17085550662,-345.868070978096
28.5311200314471,25.9291779121715,77.6055303699852,0.0175865132301576,21.3410353704542,3.12876956773849,96.2703367589638,14.5245709187383,409.72941534163,-33.9869732686401,803.901988617062,113.844669548111,1757.23850850583,-141.64149925377,2306.4515326806,-160.426162428776,879.991501492108,-20.2728298397349,152.121941263428,85.315504079259,488.939094960475,-74.5729461789606,318.86521704727,-6.85305589177412,350.069228758893,52.0052133197974,1403.9390765574,0.628249285745497,2007.54700550716,-352.862073571003
26.8141059472513,28.3497292381632,71.3013969110083,4.94466167860164,26.4185099852646,2.91981834521901,102.897141880913,9.43251058056712,404.635837835356,-37.27276919177,792.974534882544,112.592159155608,1719.71107205993,-148.731696054564,2218.92904882331,-138.580562559172,866.625431403723,-20.8030849821211,153.301622435805,72.0577158729229,468.011228177766,-63.0540532805975,310.989958142569,-6.38713658421714,341.837485303684,40.1699418592734,1390.43724069214,-1.29118503138805,1956.99899023722,-326.555882457228
29.975371090915,22.7836623064913,72.7502835887157,-2.76734171193894,23.1588655522918,5.07159232905664,104.148021453844,7.56555911338346,413.070107779837,-38.9775027118067,775.401428920114,121.372888210027,1741.14062804493,-163.623190330509,2223.14678674701,-136.49821914285,862.656981933278,-14.4669631925909,148.81862726811,76.3912118838202,468.116938259198,-62.8963208554595,315.187893760526,-6.55268019824059,329.680476449837,50.4492601546938,1397.24249762694,-8.1569725897835,2007.10257520125,-353.367577665943
29.2925840386129,25.1791930390195,68.4488145311181,5.07142174894034,20.5043179134268,8.05438286539815,105.877645678197,9.46685610460922,406.36925725661,-32.1892590777923,786.85983049259,129.513486626534,1742.26588631309,-146.651212475242,2274.23088580914,-146.945255404342,885.149907954159,-22.6518608233869,153.335944218452,78.2123107778619,486.342080670346,-71.674903910085,318.843437656416,-6.50481398127933,338.150918280975,51.8143879488418,1411.98452022817,-8.50645418986056,1995.13431530735,-339.968556446971
24.4028230072357,24.1476516503829,60.7544059288319,8.83487019248176,19.9697925630667,5.22672086966095,91.3160141704885,19.0039962133701,406.032224793746,-34.4799579528251,774.080542219771,121.265215980056,1691.19235456613,-146.643535637427,2217.59982078895,-146.092279514305,859.593491609373,-21.0596250558871,145.880506274501,75.4286820239859,476.581598577243,-72.161739282884,307.459930162742,-4.88449027357486,328.870374675232,53.1572914479895,1367.91012634778,0.00264949515820824,1958.34294412793,-333.153404602888
32.7043388729357,19.7207334001551,58.6847049054541,9.21037097880436,20.3102179204458,9.95366801290972,93.8121383699074,17.8359236833225,395.463632110784,-28.8891785921929,791.209749495493,108.372687110031,1717.51199758982,-153.200573529785,2188.78734513024,-129.134660658614,859.87184088629,-19.201980776783,145.949975835369,76.7535807144549,460.494180578905,-60.5037845498633,309.011710963783,-4.90567367410552,328.79408281051,49.8752913261092,1375.11103790755,-0.749339378929774,1965.41129897395,-341.845871366634
28.9766479255898,24.9809406803686,73.3945018341359,2.39580258648762,11.7883558487698,10.5009015749331,91.5696562272586,21.7644313129935,403.528717037906,-30.7091317546594,793.144507495996,121.822976557062,1721.52837502692,-147.532741948405,2233.29883617873,-139.386531280343,877.229755477784,-25.3293197967994,146.926168699657,81.2320455798834,476.398270433768,-68.6960339846616,316.568014608588,-6.73614961439918,344.747937117876,45.9806697601339,1383.55266611871,-1.82362651882182,2011.39858881082,-352.784029312978
23.7835570622215,21.6974806154016,57.3538412136923,6.45683692658436,17.3947722633445,10.3994894346385,100.178164201687,9.6600578855912,386.52830445894,-25.4662362545991,782.484473254809,109.159727347272,1690.74841674749,-148.914841873995,2190.12621660895,-136.801045105149,850.962976706252,-14.764308898971,142.267793553131,75.1371601406132,458.816764012519,-63.1136020896502,304.694136066275,-5.11890410507805,326.12323691966,46.8304688457689,1352.87384532037,7.64915341270483,1941.09170049919,-327.416848834586
24.3721692439434,25.3171585733368,64.0884265556416,7.03494586468648,22.0689872872562,8.60393581384224,102.453762095164,13.1591604868454,396.430659716876,-26.9308015872688,776.222239199677,112.240999463111,1676.55462536113,-137.936305042821,2174.2344591098,-132.089197553539,849.792163558717,-14.5829507456026,137.128404021626,81.0372344025311,473.110152748257,-69.4523575133765,306.774691331121,-5.55014787511165,319.674355368704,54.2690183058928,1351.36604216321,-1.80117666888965,1940.14529069438,-324.508130636546
33.9461721778221,18.7423124190304,71.7555419745525,2.08578801541341,21.8423780263786,5.9342479410528,96.7710596798428,12.8710321582783,407.205178395002,-40.3218534813597,769.94501663579,129.426110951543,1696.39837040645,-142.773715995318,2212.54065749821,-137.65319100782,868.394308775525,-21.0640769137589,142.97447988351,85.1510275223118,471.547188887845,-66.4846975679227,313.171937764101,-5.5702636134691,337.042349076184,47.4377819936807,1373.23696522484,0.616046262082539,1989.88120878946,-345.85495368177
27.5279071458671,22.806765298793,59.1787445617618,4.80808649467706,12.7052991530314,10.8118162877385,102.092105902881,12.1516134090999,393.165791963371,-33.9163106418314,763.032409081985,126.076291231924,1683.85854960208,-146.651170757743,2166.77240992383,-130.172164771482,831.509784658165,-11.6694748872208,131.406654863094,85.0818863572333,470.046650065424,-72.4949585003034,302.596447898197,-4.66095294326968,316.39269029278,51.9630949005857,1334.53537567759,7.12456101713017,1948.3196899174,-333.776704851552
27.159183216507,26.2812374296758,58.4657135079823,11.6421084282087,13.6256686725896,6.33261655218059,95.8888639093917,14.1099666085914,397.006597739281,-36.3292281559159,769.544780771335,115.486895176769,1671.5554022202,-141.913695028546,2160.71238943996,-128.30395864111,840.394137385974,-17.9823545235627,150.975537496559,68.1849776418615,453.368950052083,-54.8929230186918,302.763337629426,-3.30332792287762,312.100738848768,54.7546036605583,1329.00675713647,9.47442429510934,1961.9854998971,-338.889164241311
33.968434430504,22.4788570863975,65.9020640231251,9.76389107487398,23.3641036762286,7.28302859116272,98.7832067302688,13.5564626507667,394.760766519819,-29.6749402293464,782.893079257756,117.580245253857,1700.4850175406,-151.542359111142,2211.40883394272,-137.532466291495,849.915276667094,-16.5326682200757,139.369478688192,86.0313444613679,466.356709856795,-62.1368372352406,312.261989527556,-7.18795612099422,327.708369028597,46.3578921273023,1361.69703096908,1.350807273809,1968.62558151504,-341.729781238146
32.6612080344113,22.603939205298,58.1586215396655,9.79014799928628,16.9869144950986,4.95370472701842,91.5819195905008,14.7222794437246,388.178090197729,-29.3415514273829,772.207819659263,118.017210861453,1685.61088943607,-146.483177115696,2169.15489078142,-123.884938757859,834.230511012028,-10.2768660968206,144.595730945653,71.0807814787266,454.14820540661,-62.5193133315904,296.881104084647,-2.75037366874887,314.254582038785,50.2462825526569,1344.31188520362,-4.56463425085928,1928.82007083481,-324.024627596544
23.6626923923108,22.9328887054906,61.8356069990239,7.25737678959383,28.4351236754409,-0.351967965758971,85.672578803932,20.1795746967584,385.512988384169,-30.4991427695638,765.926377011206,113.936967239242,1655.0172199888,-136.655174280116,2159.30953006885,-128.191845452711,826.094488165524,-10.917572940522,136.627806673682,79.2619410497846,445.405379870702,-52.3127755440182,299.880536551286,-5.60761759044444,308.651659536023,52.3371174496463,1316.79704209348,14.0253086409224,1942.30300152056,-334.456657108504
30.5481872744087,22.9976799210194,70.6981386329344,1.23394717615543,25.5743755723595,1.80884154083072,98.6779831421514,16.7303554104141,389.101539071732,-34.1714796783999,780.122599776723,115.73668434225,1686.40748441516,-150.448959275476,2173.19547615249,-135.849469769772,846.322774680693,-22.7028485147578,146.641880428849,77.8233908040562,461.197939573401,-61.7730577571459,307.734654035604,-6.27158058547303,311.69409256161,51.9629067700027,1330.51111516352,9.32440083008907,1954.26155339528,-337.804356296466
28.504770781948,21.3479478354245,63.8681360350223,6.42628055114077,19.8577519631022,8.2299394557237,98.6369381707739,15.8553133399373,398.714945216267,-26.9190522490228,796.630877374603,108.955723130416,1710.6015200367,-139.023233212867,2224.1246274307,-127.105072700799,852.300853690612,-18.0381945304848,150.742257718995,75.0650245861583,460.823175584361,-63.9549745690259,304.53261981596,-5.98644870485071,322.035756135873,50.7848362556186,1337.24799013286,5.74281529646401,1955.06456213876,-326.766698791616
32.3412540959936,17.9040761955956,66.1261913335548,8.44381603353769,21.4215275335576,9.27666936956432,85.2612479809405,17.2172248333939,383.350052027536,-26.5851143029868,757.13827307429,126.161274423505,1653.74616970078,-138.765264468584,2158.66381076042,-138.08427401266,829.55780316317,-17.1681073241629,132.108841211376,79.6868588626576,448.12409541488,-63.2940396386814,300.474731788116,-4.66112360538172,301.803878002062,58.2147285125309,1329.87220110136,3.45063990826169,1931.9896588866,-330.23444294321
21.9879756541108,26.7266149160848,61.0534789869121,7.22761536183316,30.6369302530319,0.531458788390371,95.9578001029804,13.2884781907513,380.815416664346,-24.2720406699659,774.158202227021,115.046446250162,1662.4374441918,-141.743206516458,2161.8854796892,-133.642888369314,834.150267109866,-11.4954436341219,154.088925864471,72.6077330135892,460.653401340702,-67.9489946088925,305.591091471285,-5.9667586660657,317.344186086559,47.8306787891441,1328.37819919533,8.70326856400717,1959.50400505456,-338.130304433704
21.5951735341346,28.9841640247562,75.6046744147617,-1.97861782663428,19.1258545966394,9.62917191593556,97.2059102473578,13.2659909377454,405.181308962892,-34.1055087705859,781.689841263612,114.453573039272,1705.35356792313,-154.375144984734,2222.97528922768,-139.776709050379,855.55020813565,-16.9595441328853,149.218976086157,80.0473555864394,472.5232338414,-59.5911066981937,313.280254822169,-5.92015671403075,317.391899395152,55.0025711846497,1366.76344691762,-1.77662508091486,2005.63256256683,-349.472319536032
26.9412508765399,23.7033745978243,64.9411112470294,2.0971905201547,26.1161864383909,3.83100816615519,91.985746524734,17.4189005841634,395.654670313896,-27.5173463519739,770.379865851278,117.10465461582,1680.36938447023,-147.068052907776,2125.8243054257,-113.15209072976,831.625673800786,-12.9347753378233,132.577627815654,75.6570798780257,457.752389261622,-61.5822207421859,301.564139154244,-4.86462110783697,315.903397135469,45.767979231808,1364.66100023111,-11.4883865812422,1927.23450810154,-321.780232380893
27.9471392531043,22.2797741902546,62.0051187491744,4.04863015119076,26.8861173277279,3.63421361042029,96.7099162662904,13.754054590846,393.080032411688,-29.1845030392374,784.133442321389,111.400964114771,1682.71802863515,-141.393944069773,2159.52389888419,-126.959563700087,832.563732940353,-13.2975085351939,142.813182129098,76.2755529806652,455.50324708184,-59.8539582281548,304.922768062023,-4.90108791488886,316.151455934857,53.3093477633895,1351.60308633202,7.34620386146155,1945.23193370068,-322.469422714231
31.2322791113085,20.8382538882059,68.779843439848,2.5942949293327,13.6169533271395,9.77417220478724,95.1373547833803,15.7340967567133,396.298806140575,-32.4200689122021,794.521313161628,112.519081081213,1724.54326323169,-161.656239152544,2212.37121918189,-135.857118795921,849.035477282336,-18.1098388252772,153.349341943237,74.7529989609968,475.375625717453,-65.1273552748433,312.040489547892,-5.23179695569544,326.422343724418,48.1694330183642,1376.37006407503,-1.40214817137151,1987.28113801539,-336.181390367149
16.3209242511665,30.5867381235638,65.2107652641263,6.12959283138645,23.2208660712018,3.31262314829582,91.638591491507,18.1906712432265,394.176275455786,-32.1895696413963,781.463238289871,107.420089800209,1695.27005082641,-152.974047782598,2176.6676768279,-134.874509731201,835.802013295929,-10.7537350778708,138.056300210066,74.0671744557871,456.664266810064,-59.1249946853798,303.670324269403,-5.62686226938177,298.725352968888,59.9067448386547,1364.97090855865,-6.40095611940538,1979.62693574866,-345.7626250033
19.8571490132781,24.092912544561,64.5627182145445,4.55944566886404,22.3933629438303,4.90910633667686,88.8821563727391,14.4568278534178,397.853925570741,-29.8020875318807,786.653577298566,116.021128384065,1700.35383233862,-155.075398564011,2181.33728669869,-131.916307967617,847.362701932512,-15.570028252675,142.475459015314,75.1187234600029,466.299114039544,-66.2962229159995,304.769408510419,-4.58601398108406,316.869813310074,49.6481738761697,1348.53141869894,7.01486378042941,1969.45249133852,-341.91517213111
26.6903741304821,22.7658339637578,64.9342166048397,6.61139401073855,22.4023491600755,4.74012288973379,89.1435663510835,18.2973497720282,394.857924933677,-32.342425011892,796.6923699026,114.380470377246,1735.88977528911,-163.179384851774,2230.84669679909,-145.879416657053,858.393173890316,-16.4327122301681,150.053841826356,77.2068874217642,477.177625150466,-66.2959359255349,313.039561285744,-6.34869473867451,318.613671159929,57.0047826499009,1383.16513760979,-3.99119398985484,1995.51569180697,-356.548374221285
27.0911189988871,23.3832621071933,68.7023132301894,7.88121511402403,30.0391794078119,0.673743797506515,99.6354318712215,9.07679917790022,418.069577577527,-34.713031166056,806.315553954894,114.905275403936,1756.24292862539,-162.444573641469,2282.10245598064,-150.513611037797,864.349303868295,-14.6226176501873,144.893728039271,76.4169518533984,478.997900515267,-70.6236603496764,307.408312459424,-5.53517111427347,328.141226303292,48.7828364372731,1367.72247066373,1.47519838183117,1972.98408507906,-341.588866249426
29.6997003918183,20.8491938685525,71.1265211588507,2.62009302674846,11.556732955976,14.6949176236288,90.0737005497756,19.2578469098219,390.175373089507,-28.1670601354718,789.72350217988,115.057756132868,1713.59884873535,-155.906410327129,2195.89884387309,-128.07399597186,838.568298464906,-12.9393469267685,143.750365756199,73.5781158517906,457.211164862383,-59.463051644211,307.357739077164,-4.46895888634737,308.802721001375,53.5819174708574,1353.92027999944,5.90131015566905,1942.89033989951,-323.540054749878
37.001356232532,19.963596386262,56.4735830231805,14.2865971945424,20.8976724439442,4.38253831504098,93.3140844921342,17.1031352330016,409.884640615081,-35.1975627397469,785.604550622012,118.66416296346,1711.16178380767,-142.608606586637,2216.17849804893,-132.153389332717,855.373201573932,-12.9358685252836,150.163231843655,77.7192123930422,481.69615038813,-65.7924939191372,312.89097954148,-5.58354522168033,318.668368980802,54.1340508228676,1401.75462199119,-8.87057231878905,1995.7829133608,-344.87942410049
31.2606282180401,24.008430678765,72.432012641479,1.51336196547225,26.3101004906834,6.23703720984238,98.0963017197356,14.0026525668364,406.338828038367,-32.0493023217419,808.491956701117,118.416618969409,1750.43168552826,-151.548772426797,2281.03016022066,-134.961929159458,879.48168222891,-22.2213247744275,167.553283933307,79.9317820269263,497.059715292256,-73.4843637207293,318.985332340316,-5.39194191272988,346.413540357641,47.7261927985281,1426.15439696269,-8.59723359970116,2034.01603187283,-350.835304398658
19.5335496475209,32.0758179710454,67.4049981448079,0.896556020369313,21.4764433569094,4.51164644460594,95.1807752877088,13.7184705956325,396.972412931816,-31.39740368648,791.379780075889,116.369778000134,1714.92269702282,-153.31947140138,2208.92574651003,-133.536804859176,855.946972064098,-13.1211572787442,136.892972030107,79.3106659980234,475.148088982892,-65.2010746090959,309.263692709415,-6.12595501481636,329.797769096553,44.9070895743283,1371.87657139872,7.70393458538853,1971.58185272213,-342.11169285126
27.1301701873953,25.2226508849687,65.3978587583773,3.25056806526087,15.182790574917,8.53941018902027,86.2131796395332,16.6721823243047,401.222618979722,-29.9754177418456,793.0613980444,117.076259108953,1720.73874139509,-148.974888078954,2234.73695680511,-131.554583440578,868.706806645933,-20.6447008698588,133.465629788787,85.2229795743035,476.950896135386,-66.9630775669219,312.384363813541,-6.15870439147782,314.149789116776,60.4102873031307,1389.5244839252,4.7631164716951,1993.9449883022,-345.969824829186
36.4683867768911,18.4129953521769,64.2191589603529,10.7965075248055,18.2473254710932,6.49684316078876,90.6366544850485,19.1991487742628,409.379051760195,-33.4887136384639,805.139004440324,118.459931257565,1752.95020998595,-154.110786646512,2288.51568503215,-150.627074727979,871.818764155347,-14.6016283654266,154.212526470661,73.0190277453829,487.480170828498,-68.2107812832237,319.174226042816,-5.20366719761363,327.362450809607,52.8873468927587,1407.39612577003,-4.25254294465511,2037.73481771992,-361.03264395985
28.5202649812073,23.8916088387528,67.7910134261651,7.32198291400531,27.989008381674,3.25105052048886,95.559055263441,15.6178354494028,393.769833025365,-22.612298790998,805.343440723863,119.290116159459,1729.4265544298,-152.099287723481,2256.43640137996,-148.57244072892,867.586514234306,-15.8097762572159,135.474215663384,84.3378029556029,479.549170818228,-66.2315301967101,307.334258411692,-3.63904978777015,332.362106140958,50.2488611288759,1380.10327319618,8.36629308350408,1987.3288616361,-335.375214858874
34.7971192416338,20.8587360984894,66.1370057940423,5.43550250104879,23.4176803876104,6.52796304936849,93.025688341046,14.9106052487894,406.499383859328,-32.8944988525279,803.119720762052,113.029591072973,1725.87581708869,-145.230112959297,2264.15477025291,-144.878911057902,868.073998367062,-9.03328486291503,148.976704769698,74.3413614913187,488.351045845443,-71.4386504828654,312.539339849365,-5.40730969459931,330.454118983215,48.8044351524222,1398.60426634526,-8.68937175301345,1987.16668910237,-346.811477575394
30.4724479612473,23.5390618761883,64.6620401800688,6.99492691283388,6.23984424074294,17.0784668614,95.8923975840089,13.8208933579623,404.27250368906,-25.6964844024203,824.889501631614,106.542759291563,1763.71136932484,-159.141676270362,2282.52969132328,-133.702979836395,885.779907508818,-17.6183124089944,158.613838829746,79.555476552311,484.90614245629,-66.1887478409263,319.915471368318,-6.54070709057519,332.215874773072,52.9627687631248,1409.74453100922,-2.273149156768,2008.10937174299,-347.394840659684
22.0073925329333,26.6892185208422,72.2872326013475,3.45256101601592,21.9451235090703,6.68312558195747,104.211199026384,12.5078395661292,434.880716401819,-41.3358095656621,825.990439853054,113.211487374755,1779.71075022246,-155.918063415197,2339.14322666674,-157.401821251402,896.733061005087,-17.7850377147615,141.143488957906,88.8712555747324,489.599096507417,-67.7394004725165,315.338021452311,-6.67527430248726,334.78267919117,54.3808909333438,1395.24640716456,2.89799748794421,2027.97449510423,-368.017213384572
34.4848184625969,23.9590339798672,66.1858867291735,2.0408430034354,20.7190115786751,7.09054014004597,89.8286472279738,13.7798924773827,398.991879482717,-30.6831870148733,802.045759379648,116.832673509708,1740.48573389146,-167.530114552394,2260.16504447361,-146.657221158423,875.910900643688,-24.7713169781755,145.917875365036,79.1454257109138,481.987624817328,-67.8406067351897,313.195288180249,-5.94258581144999,332.848124474508,50.0833945732777,1387.2056473414,1.84756345013466,1991.38113639817,-348.885810767826
29.6045202422836,24.1081672408285,63.4240745475499,7.95289980653259,32.9257831469201,0.291263946466969,96.8495134589959,14.0973214589947,409.970383414325,-34.5486075058069,810.916970583068,115.909443452695,1750.7993716386,-152.419368915911,2289.39333268385,-143.322626940602,876.899075477495,-16.8950866957678,140.393425595457,86.7795273571044,494.078695230619,-71.4353196126281,317.010612100236,-5.59637409744063,329.595130481168,53.4803237596413,1406.98737262861,-1.30327091257712,2005.95099021679,-349.64157811914
37.0863938990032,21.1329066089313,71.5395324684109,2.6305461574981,26.4512340507785,3.75908089997767,101.408376576174,15.1166461165521,418.452690431838,-33.0534234374771,829.79455125008,116.116654538066,1797.12858865862,-165.530677439858,2319.77562177199,-145.74425795872,891.017272012618,-17.9203646155827,160.831338048715,81.3898127087315,510.988744934185,-77.2879504044596,324.065922954143,-6.97674332577564,340.028441928305,53.6499949424442,1408.562901808,9.57461196586539,2053.15399433479,-363.0688627484
33.4564110941566,20.8780088739582,78.4244083098536,-1.78881342444419,19.7660682653688,6.63542621616098,89.8093883529465,16.4258871089106,408.864424997277,-32.6152773601173,796.00346215102,114.920842367715,1736.34298521728,-151.871929534957,2260.46088044809,-145.292800999865,858.31634479961,-9.94003415149294,144.732679101111,76.3129749406315,485.308878919607,-70.8039837418005,313.321606088092,-6.30103058565392,335.592912707412,50.4893038862747,1379.18031166503,1.98080332040364,1981.88577080484,-348.952229473604
29.9086374147527,23.1259146831916,74.8550450659484,2.51130317032411,16.0583009085626,7.49523103370938,97.2073492501341,14.560757037433,412.805732754615,-35.1238795478762,796.874126157511,125.0074846528,1739.78065064733,-145.78999315286,2252.69802104575,-145.747923918032,862.833703013357,-13.6794149535098,139.360113589543,83.6959058862411,490.661203120388,-72.8629884966793,315.751448239834,-6.87032498610191,336.781546470923,52.003397540032,1391.02801984691,4.01984474523325,2008.44958873902,-358.236827944109
29.6824608083883,26.3660617080641,62.3489991321793,9.6582598625156,25.4704278430249,3.29547124605719,91.0429575658421,15.0601884145747,414.318371162791,-34.5761560516676,816.2017886847,117.477237404413,1785.94636905037,-166.349731822562,2315.82438144349,-157.901051563255,886.367996933092,-17.9345952950612,153.743083380186,82.7398954081214,486.759221146269,-61.3026673717653,324.261749934651,-7.79130348358065,328.9501520928,55.0329115791217,1403.70941795669,4.60618487743659,2024.66353422393,-353.243925788488
26.2810510901481,28.6608168568639,64.1731684739175,7.78553702506976,23.1325073062474,7.00178638822974,102.23052189849,7.46764726874194,394.56137095469,-27.9575382227676,792.644815933647,116.424857928546,1717.61744666677,-151.338066609643,2233.31777696487,-140.721000728552,873.121096426312,-20.8379889418488,143.299768505021,78.160812570258,481.466895382068,-69.6409086504275,310.253649954555,-5.18624710144907,327.139415501077,52.6590992894384,1365.02966950625,10.5203774285039,1986.43799114014,-340.620072817864
31.9556103661984,20.9621961425537,61.7616699139377,8.06790539144438,21.778911369718,7.68474835875263,94.0618154602484,15.497940532785,401.87987238591,-32.7979648323858,793.239396141898,118.150572676033,1716.4529214509,-136.67760820606,2266.39007468044,-154.754042942885,863.912543766258,-11.4108326778964,152.101480171647,76.1021641480709,483.963722218823,-63.5944691110287,311.106107657719,-4.4774223618101,330.522690991656,51.5628792774903,1401.19001252512,-8.837728190523,1981.63905060742,-343.153892884408
30.1948581154865,24.8746556757648,64.4830944738519,6.15323480363772,17.3113939133389,8.37952934234569,95.4066555176021,9.29202242875148,417.033090984453,-37.4124066589878,812.381748864337,115.056987502139,1764.17697092077,-154.789411474842,2284.38573700445,-147.678264582286,880.423192715015,-17.6469700413891,151.316666116128,79.6931464804885,495.403752712892,-66.3655138755095,321.103049473942,-8.64118878717246,340.919588193653,47.4010510955457,1387.8245438519,10.6913685771454,2037.28120595993,-355.270994223427
27.6698986002036,26.1288463769037,69.3066903115665,8.08150353222552,18.8644595838614,7.64273947780333,100.334914345326,10.4190754357642,408.880209808265,-32.4575230464487,800.686543769464,111.019564201656,1704.12832127321,-149.182811366188,2238.61570879089,-144.521233946262,861.812537868738,-19.520161186556,135.853127881831,81.8446815046163,473.949750544354,-62.9889706013132,307.45159108221,-5.64451337378125,319.841144390975,50.870574485685,1356.32650146632,11.4854192449678,2003.55628475692,-364.547743333051
27.0828778144296,25.2548048097221,60.3441705810323,9.27408282185326,22.4685534133426,2.267692090284,90.6759270319458,13.4962656061534,396.995994078078,-28.1483851470564,782.185692237979,118.163963313749,1697.4875093749,-139.29983877269,2220.28994485659,-136.070507075531,858.033762285209,-17.092467004799,138.726185876737,82.2314256245499,472.731084459333,-58.5413501456578,309.183732010486,-5.59368746620728,311.351771673344,56.1050785024167,1359.82691690465,6.82394366604601,1998.43145074008,-351.48624486039
31.7290511233932,24.8289054103694,62.5437545976445,8.8926412136973,21.472297712588,4.68737050210931,92.7415137823049,13.9547286574508,400.64330155087,-31.2797903321276,781.244311908103,118.744028293073,1732.70387054869,-156.462169486178,2278.64855557234,-159.41902647391,866.787422008338,-13.4046922196245,151.951443513504,73.9591495822951,493.303727148331,-71.944813761616,315.951080854372,-6.22672812488159,318.714558961361,60.1699249121946,1392.05287737383,-6.26843630671962,2033.36254634949,-366.683475843681
28.4527829375105,22.6930059099865,59.4635987465139,12.1673557104846,15.559261454342,6.04025353154258,88.8093686757126,16.241922247155,395.878862471438,-32.2747229641991,789.31787234505,109.245272419675,1672.47400364079,-140.557051229942,2193.77658579716,-125.52502896814,842.006102358486,-10.2933996752106,134.631166482239,78.1815562558323,472.009806365947,-67.3887956147638,302.996958359962,-5.9059095678542,317.770687013338,50.3523053235572,1335.45581950296,6.5349684746594,1980.86852425544,-348.254265948901
30.637996649575,22.1960571441137,61.6223446784829,7.22241022136964,20.0542386285045,1.3565813573655,98.7261590530131,7.7905351508059,393.314781954003,-28.9146139967617,769.150442932245,115.844961214141,1672.89838179827,-140.758795964703,2194.405468561,-144.118539290531,841.243746221405,-16.8235251436993,146.69454781708,72.5704711070343,470.132345399891,-63.234620968503,304.198318695402,-5.37522030245771,312.431708983333,55.7865880374733,1332.41341592208,13.2619886217698,1981.16266842263,-346.835361700232
28.1706107727964,25.7797366838291,71.725349950594,3.79626306028513,18.7153393350319,4.81929248816536,86.7935657563311,14.3095418833168,399.59563308115,-29.7493917866571,780.281561792391,113.180599323509,1708.22608406498,-152.20955716202,2230.12378341406,-144.663870438134,868.199075920263,-21.2355574673856,152.166745235737,73.6442424504018,482.019622386525,-69.6052460326297,307.48957503994,-2.92714439221344,318.913583337101,51.2841357361692,1354.2065055921,11.7315243868569,2029.80058572986,-354.694887685946
32.7171100740128,20.911706261429,56.4391644986225,11.2685884723218,12.8006745072035,10.3925822633533,96.5937158836368,9.52974044523986,398.959470357422,-35.0758272602267,769.808091645849,116.527902552533,1673.12126311565,-130.034180735077,2197.33651961098,-134.859462256559,842.499266037331,-5.28213727586392,128.23677034578,83.8344401573728,479.321186876267,-72.1704257102638,302.091814144458,-5.23305657861231,304.101339869096,54.462457185081,1332.37973341414,0.0463744935724026,2026.94640536638,-362.411669297552
22.9788750429534,27.2782651699831,59.0329358587721,8.68537801300803,14.2657350155252,9.56935282131117,94.9978993122892,11.31804301076,391.311155526585,-27.9492331684956,767.92688177289,113.014845977491,1658.90631240109,-133.894524778969,2173.49844159847,-126.661607233315,857.82323257947,-23.8942481674471,134.916952923871,81.8807276051041,464.915857612549,-58.0708832751494,303.163052357932,-4.77283793171785,311.356664356192,52.7452630964547,1331.98600594942,2.99822393313184,2000.03679802046,-349.591843874128
28.9411756625024,22.795496502648,66.1547821375515,-1.61682369687733,19.5688790037725,7.01522545928935,84.6228922423467,14.6814833519075,399.520268237806,-33.1202843186042,757.532602455235,122.917359403888,1693.28922230875,-144.965060420077,2224.35583999439,-135.199157762791,865.39633742871,-16.5139140578868,149.819410405875,81.9833390196014,482.61981046304,-63.3301814871755,311.21605514788,-6.08409501196309,324.112521385838,50.3428586111757,1342.97756053667,4.87088181328713,2043.97306794748,-361.960566801877
27.1235127529553,23.679519929435,67.7252192653799,8.93679712115004,21.6405173324419,4.79091892533383,92.9288517987903,16.7521100427517,400.714513141793,-34.5413377544363,768.590488685275,117.05337828704,1697.51989620724,-147.898027186686,2210.61254188721,-138.017412586206,856.495012278194,-9.26160710217516,133.837816197518,80.0092904135303,472.780789130148,-69.0963441296762,303.397138130435,-5.21218637718974,315.402609692694,54.7653268754758,1332.46424537397,4.54084040266308,2022.45206791785,-367.260751561283
25.6283423666928,28.316412787534,62.6457888066868,8.15302545105732,26.0977785005928,2.34628495804231,92.468816442814,13.1088497866919,387.969872804854,-26.5075061215812,757.258529176901,120.842447698282,1674.27678285953,-132.29993281834,2184.00924867958,-130.165356911899,860.353218990874,-19.2189830168028,147.311587975433,74.3373113492865,469.450739261003,-61.9375475862465,308.552594510151,-6.49825782558132,307.277585571002,53.0768393676662,1342.27573401948,7.81591487156012,2004.63302505738,-351.659559251213
36.0334433975805,21.7551552690197,73.3032506660878,2.95561604156745,25.3095199851868,0.962224706881834,93.6224085709279,12.7493036031479,395.737388289076,-35.3887952100728,768.62171648627,112.328862187004,1701.0348027865,-149.906304046407,2244.53812698347,-144.58250659116,851.008049122431,-4.36481573351343,133.456510594345,87.4142798275927,495.575598018558,-69.2717587747923,313.897213523089,-5.44275034450361,320.308084881561,51.57472853614,1366.6263395326,5.15300266813344,2046.25978243035,-367.428665061828
27.6114419541798,23.4694283891364,62.1944896057632,7.32709205973639,14.9852941662794,7.40516768403038,91.4151204734122,13.0586520542526,393.032132673753,-33.1939909595266,748.039248608403,118.822286874443,1682.47755459035,-149.795610888956,2209.20060472287,-145.213586831078,852.283688718959,-17.5090494661926,133.324830388335,76.2619012699298,483.26016262448,-70.1550656524455,305.767051962037,-6.37584749029697,309.889692710213,54.8805625654117,1351.6752357032,3.71307372797622,1975.10261571532,-353.40436229306
34.0261940323579,20.6538158721254,62.9924991533587,6.37285127428791,18.3052432807083,6.57111700697475,93.4915229586236,12.1254188117023,393.727259134224,-33.1556468519669,751.930665295653,114.953098132668,1676.56857146653,-149.338789005191,2184.1936656612,-131.649956459995,853.057917945162,-14.9218897440147,129.821855968122,82.9908569758803,481.750218574298,-65.6850400772487,304.765631476628,-4.31939115743112,309.506779931729,55.9825991000936,1351.72416631655,4.31866973455146,2015.73121161109,-363.041372623519
18.2034615886209,31.5494761094142,68.9376127637359,5.23168676335961,13.0163580553035,10.3493122797727,93.6312331858222,14.8217185784716,397.601486172848,-29.2540267510556,764.124858643999,116.925721444297,1709.18200677276,-156.697392922922,2209.74470499157,-137.543621768873,875.890863687056,-24.4490721260748,146.235114930481,78.0254191087445,489.871962091323,-72.2192134043058,311.058946081409,-5.92134697986535,308.628425093949,58.6806393808744,1372.87690159626,8.7210474601962,2153.24566991363,-381.236990929787
31.7536933362125,22.2460530083946,61.2898370112452,8.09411529235004,14.9428560708058,9.20979263246926,85.1406214119491,18.6903627800054,392.606251208465,-26.2721103615731,742.494292920482,124.598853617506,1679.50876789209,-137.875020400734,2167.39265883407,-124.232351183426,851.612310520149,-14.1064009761458,127.612134903232,75.0780638949142,470.852524673685,-65.5431528591388,304.484788452298,-6.43980318506724,317.125760073205,46.503457480961,1375.73003891787,0.466552259198731,2432.89725590048,-425.190784975311
26.4416398402987,25.3514641907199,60.7835757285354,5.5800705681163,17.8334498570586,8.75208013466277,77.9264766876327,19.1521753518513,381.497000637584,-28.1938654009245,751.360753571211,117.80781062169,1674.61536009139,-134.901563393004,2161.29525823315,-128.835809310587,848.555198133684,-14.7629907881373,132.046409305345,79.67150709567,472.024426664795,-64.722303280219,306.734842530743,-4.24900464121794,315.408937597275,50.5386580268901,1390.20666744627,9.3246539561335,2514.91649151657,-441.562215696484
28.0334819035929,26.4094100998227,71.579522605149,-0.56065208732217,18.4583734098725,3.64953311807191,91.2210552796346,12.9980287373781,399.887490056925,-33.9617161859299,754.506978062491,121.115864935858,1707.97375119122,-147.322535650585,2181.33488278371,-123.935518907821,844.344012085586,-5.17238215282854,142.330466466334,77.3581845209717,488.080460326576,-74.8094046319855,310.707387460624,-5.09982708459965,317.547780473799,51.6859858578613,1394.56247942209,10.2336415970874,2576.7340172373,-458.076961675141
24.0857789685288,27.0803717666904,68.3532563715829,4.05868205178333,20.5995241144186,2.77312344262486,77.0001994237325,21.6269854985825,379.229421720497,-24.6693169587614,747.16883170119,120.114902900392,1679.78973228162,-144.754112205167,2149.0199889163,-125.018940081312,828.053859599199,-14.4356725456109,131.905209771365,73.1118835363602,456.545521690223,-57.694543797501,300.472726904235,-5.56674169359433,298.745321605595,57.9361030094517,1373.39433901145,-2.67965156255804,2152.59484252747,-377.88369484597
30.705807540796,18.3889711770907,61.9886471827633,7.1537038697774,17.881754978151,4.58313045530335,70.4160181666958,23.7858908931056,391.588881394849,-32.806777858558,742.985383588352,124.77713853079,1646.65164954378,-127.911175845023,2113.18324729945,-114.730098757531,819.190122672172,-9.13511314748131,131.642149038227,75.2049366254123,452.813552899302,-59.9969769695285,298.752101490716,-5.10839159203273,306.574004579088,53.3683664277653,1379.17250762251,-5.68249921015988,2116.37561155961,-374.86908314991
25.2621418255164,24.7458469022782,55.8596641043525,10.230357026156,19.8331320082345,7.30369073235172,93.2111783782405,9.38450625820283,388.746497491725,-33.1427005214279,758.650553884916,115.922145422934,1674.37808503712,-128.423243694721,2156.92653384473,-123.750369557781,843.567622222367,-22.817905800091,127.457850503897,79.8376488079551,469.980700903251,-66.055723308461,304.720431793729,-5.51887110768301,311.77819624285,53.146859789813,1396.29063765371,-4.18582689261913,2131.78160414489,-378.10196259052
24.0985635125929,24.1312274032294,58.7625968176996,5.22482912226998,17.9599762727265,9.33197024958622,81.8458383843891,18.1599226000724,384.95358750013,-32.0110432851607,748.159513985895,120.505375007975,1663.78639285688,-137.551398128826,2111.66723874448,-111.444254845644,816.423664821055,-11.6187153263055,131.799571106099,72.3990165485464,462.297050175227,-69.1183812073487,296.266777637915,-4.36772730958424,299.869949034203,51.1274197641325,1373.8708009232,1.39325080455598,2062.46880427344,-353.422162706326
24.7017580925772,27.715248222471,65.7338333101581,2.90316507624877,16.9460264295937,6.0414507292427,85.7007860463672,14.3529100774722,380.698560239931,-28.3357774261624,749.593591817406,123.174265085038,1667.46141992818,-134.287067085944,2130.8017423144,-125.055208402465,832.024647006999,-9.86600186320466,128.396348962956,80.6531280282565,462.941505313995,-64.4336821983486,302.032510535027,-5.36490302686861,312.688042473534,46.748742317734,1378.1198441914,6.65543462716287,2048.86450895368,-356.440434315385
27.5501878493982,22.1555835678054,54.200908489289,14.9082039892501,20.592276977964,3.23697126705127,84.9552713601166,16.3115902155453,396.161918330979,-37.1054043115062,772.031453115722,115.089466907632,1702.48245449265,-139.92691985863,2176.98386563043,-120.87601587734,845.665710793516,-9.31951439436102,132.383918923692,85.1471153479563,465.127069790662,-61.2921295476651,311.229702033084,-6.59159389039077,324.292786256566,48.7771221991281,1417.04371693453,-1.5269453186908,2092.28542200116,-372.682822777281
33.2172009229806,21.0648138652379,51.7714980468027,9.97799438718002,17.1877589238712,9.18926034066169,79.5853327883126,19.1140751816653,371.143841215128,-23.6293029793651,746.179192483663,123.614066394822,1699.01799997699,-154.749464379198,2120.74554809641,-119.042834995714,833.731553384054,-8.12038631469564,133.702469552309,77.5507415900584,462.339088168614,-65.6363195074681,302.349737776869,-5.51648183811371,323.027486330666,41.7735288204014,1388.46162812132,8.81888818558677,2017.44946413037,-369.23593060364
24.8613557044387,24.9131255378834,63.6985047728212,1.06891525809469,11.4393218173208,11.9423978559793,86.2792241490157,13.178291819654,378.570224469718,-18.4419531023067,767.082583857229,117.356255996618,1694.47348132498,-134.161604297848,2151.96948117309,-131.619004802333,846.86158373594,-16.1515533096765,139.104589201681,83.9398275578692,468.279686693174,-68.1278606739398,307.409996738827,-6.29104999227959,309.836812778724,57.7680617589693,1405.38912017401,-7.80387513740516,2012.91427481106,-359.681047523842
30.754492279841,19.359442566067,54.7586856095007,11.8043659593789,15.3031198030851,7.74383390634782,96.488928790524,9.8199033056437,399.867853799173,-35.8283594097369,781.965781671065,115.292370881447,1746.98515931777,-154.260297800498,2206.52586520725,-127.451010835402,870.16447641641,-20.5343039027483,142.382865150245,81.4760626836988,488.64501892276,-72.0404642359314,314.509054845488,-6.1574849082897,329.78194866614,49.6148259038216,1418.42620522925,-2.82438395598497,2045.01484819974,-369.94575543555
27.5202538187925,20.178744347587,56.558099645993,8.61523174042906,21.3570150296417,5.22539880807048,92.5870516077253,11.0065225744916,387.73026118891,-27.9229519620832,763.512594083528,121.847981536499,1708.38197006727,-144.33166390464,2164.59894766414,-115.998806158084,858.736336286884,-16.6468583103493,142.19048091703,76.6417036525538,469.426397565424,-63.7397782965878,307.433291155958,-6.3279176505003,315.645855627743,54.7581891006985,1415.63222264509,-8.45072768560547,2001.40154326903,-360.741944615816
29.2910604997309,24.004357079322,58.0549061595704,9.78507836443059,14.4032297427257,11.2528278436363,91.4562797369529,14.3608784750023,381.520780119197,-25.0565346950077,772.24415878833,120.300341103889,1726.81750657106,-147.240361175346,2200.1076796206,-131.579345639231,864.326943419007,-18.7414600047645,145.339099331163,75.5361746585357,484.907611112298,-69.1354314546889,309.688524619249,-5.40176549696113,322.872895170275,50.1958475744446,1405.45759127152,-0.584860969545095,2002.01741595716,-350.778175626221
27.2375259712421,23.1676892460599,54.9710360468624,14.4570006439362,21.2088620114054,7.00262281766588,89.7328748026309,20.5430864366122,400.629153298284,-29.997403681836,789.868427074178,120.322971131965,1738.32730636213,-147.356744272471,2212.56435311401,-126.795438060926,867.182306317151,-17.6123004124763,138.8063131516,82.8062878535402,474.845099290757,-69.2848703805215,307.501770734689,-6.65751615881106,325.431052581657,52.4236406226063,1420.3243135051,-9.22688613759666,1979.78590886371,-351.173810371082
25.451446573752,26.1103130404081,57.0216122928979,13.397262204018,25.0828294562722,3.90280263697925,100.141119561754,8.99877772006765,390.304254776615,-31.2058170264073,772.780724078987,125.567273602471,1724.82921822293,-146.939278350115,2184.58109385542,-134.321971272144,860.627299166574,-8.16402251816595,143.89914928611,79.2681332354282,472.117902819897,-62.484396615024,305.657871948951,-4.82198206657445,325.125075412393,49.1669203195035,1397.06034935944,5.24817806092203,1956.75244309582,-334.19926089392
26.2094265248602,28.8535042743976,59.3391134230044,5.81768368601299,18.1230636694281,11.11250938414,90.007692106488,20.8169012549572,409.950757774086,-36.3817057704255,781.241744997898,122.807004556458,1758.72271463882,-155.887235274052,2242.7305072206,-146.074254282754,879.735626267888,-19.5063209158989,149.740251909499,78.1223733031744,488.96970135424,-65.3641283443044,314.161201968152,-5.98996734801292,334.517894267866,52.7584721921826,1411.21961532323,4.52969029596684,2004.54088596519,-363.743161683649
29.7133164070211,26.0441542140292,49.3152593303865,16.7578355024897,16.0025112328657,9.96769106626598,95.8725950727258,15.0335102263221,395.700574406648,-34.4046578670369,775.223821812989,123.412868802607,1730.23027473046,-153.157365379967,2202.29845619113,-125.990005941312,866.597748446406,-11.9480940123201,146.276803554479,77.5727463438228,478.412602727818,-72.018056833252,303.710176313727,-4.70610058105021,319.329489375024,52.6369934893077,1419.2803459339,-8.84889249630678,1928.28620977689,-343.271771735122
25.8181898989397,22.2022851555451,59.2360346632801,5.72229636371208,19.8195141030774,2.80787866065856,94.4860521100106,15.8932596403058,397.945773494207,-30.5178133953649,773.799042882457,121.216795237374,1739.60125622355,-153.863432688099,2213.5069092897,-138.838895581747,868.305260166664,-15.1863938584047,140.06240189212,78.2926968539102,481.853580457283,-66.1566281968993,309.186381314502,-6.09604600181879,328.75097515777,51.8803270332437,1394.44356921654,5.99031249506898,1927.38407711114,-348.71476529005
25.4620848775008,29.3900609540357,71.1595553892826,6.35347842429739,17.966595146659,10.0104756443055,89.2191101653944,19.602297156513,419.794624302174,-41.1476576463446,791.586588227713,123.165049854698,1774.13239681428,-153.277235296556,2247.99946057212,-138.007595068096,897.565778043862,-23.0343817186755,153.262644762133,76.5095082599708,496.270678677116,-72.6502940870186,314.181811528936,-6.36320948304284,337.084808582535,50.5324855629198,1405.62983309765,7.97293302564174,1950.39749950404,-345.338553230156
28.5482813426671,23.5991098501761,60.9767544540868,6.65336819443148,25.1655978223791,5.72339180771234,86.7722652152499,15.2239100740989,401.434767927867,-36.0804018151836,772.091558794421,121.109413355256,1732.95175972898,-150.24724944163,2191.32707719936,-117.553654975287,877.567682560478,-20.3789278198973,149.470159312894,72.0462514679221,480.565545539477,-70.2170361861266,305.836438305433,-6.00686999665363,336.511593851648,49.780817352879,1397.5192402551,-4.73557160680298,1900.04891505683,-329.539080261745
