26.7975601991478,24.6852854227086,69.8085608731229,2.63854460555307,18.9587919189112,4.17040838872829,95.0687436029135,14.7868329797174,402.425823150165,-30.9519990369486,758.354526721257,124.84131010997,1700.55082699896,-144.75475787208,2207.81941125037,-144.03708246534,869.991735919871,-26.133963495093,140.278144609217,73.4127904937026,462.306341775769,-62.766803451496,303.033781580499,-5.85047441795688,318.116542861559,53.2732842265338,1360.20714229847,-11.9740606426572,1756.5195978068,-287.100197103494
25.3692592349053,22.5513805719862,63.9102819519004,7.64038352925709,12.3252992030965,6.53189456231556,99.6639223120298,13.2057822068168,398.70923501225,-31.5407872760472,756.033582977042,120.096132488986,1717.54293695582,-161.806031422489,2193.34703711831,-145.324660899288,845.514266456755,-10.2220262719715,134.626575496009,80.1592089266254,456.334822209045,-59.1278753207751,303.305501641815,-5.8381547979391,323.637185499492,46.5144731658747,1357.8760545288,-4.07695620665942,1770.11872037947,-292.236723373873
23.47656949326,28.4723383268722,72.2660350890475,5.34011823944948,22.5213125495092,7.57940357244485,114.578004195088,7.09634520854296,392.194806659044,-23.2955807100726,758.862790493941,116.64466130194,1754.7588886971,-165.39313130086,2217.16126056861,-142.603665380639,860.398453266361,-22.1111407575831,148.904035078564,78.2938747597658,476.201178720768,-63.3679487017138,309.215466523736,-5.37507940381797,326.612590730819,51.1564804596753,1366.49759615844,1.9344820734108,1795.48447058369,-302.869052310242
26.098857931929,22.0120635165795,76.879465201518,1.65092325180783,19.5803923971746,6.14848423734895,94.1748877390732,12.099597341656,408.169794124336,-32.9206808094653,766.140339492339,114.825611265288,1696.01770840885,-147.745285516825,2176.68433865524,-123.138021565591,845.231325801057,-15.4894143900484,133.329191911962,82.4837488732908,472.536010579258,-70.0810330716396,301.736312688226,-4.52605997151804,329.488920529471,46.1847434967934,1352.69358650909,0.652608912976539,1764.50107530103,-292.574197918347
33.1459805450518,20.8012962161787,64.9965242091178,10.8340542644905,20.6294512287885,5.54088272345537,95.5162794430409,12.8630264758377,403.424617432066,-28.9104250690629,753.027696080688,117.44270568004,1714.17762727227,-154.976952628161,2170.10617983114,-128.712482294845,853.18597341541,-11.5607408991964,141.53414068781,81.9801870307842,475.720406668803,-67.6360234020967,303.43555947468,-5.03035886707917,329.323237482147,45.7021458567022,1356.8641608782,8.79942205549275,1772.39587960415,-292.455881367532
32.6960210796093,19.0787847986571,63.8973459800012,10.3633150172637,13.8158427046476,8.23663497025101,101.065713634538,10.3529228223007,416.846293106089,-40.3931544131701,758.689733424167,124.528352113048,1739.40534272264,-164.511612188907,2212.97061095132,-145.699037553065,870.014297017058,-25.7232068056376,145.373605657847,80.6029094299537,469.049011122816,-63.3556823137253,312.558681404309,-7.45180220381865,331.605680336787,46.3696587363513,1380.1505773641,3.08094672598507,1919.05183487087,-337.985140829919
22.4096350020699,24.2710865177062,60.6895375356815,10.1427628066563,17.6033059328566,9.59868790408242,96.9040186169855,17.4216126440393,405.988431039306,-38.7029336748623,745.782440434248,125.6482654732,1701.94841711729,-153.503250072545,2143.52541984256,-125.656468810462,847.590830707738,-23.8923215661944,136.087583602074,77.3522470029368,463.232872047568,-61.5671773732737,299.409018150233,-4.45224000666898,318.502894539245,49.3539150412822,1340.14021486154,-3.68890851902212,1778.35517449766,-285.14504489673
22.98455287825,24.3646560272974,54.7751464189368,10.8991417537923,24.133090671603,1.96182518720228,86.603949859971,19.9258386374944,399.030976512062,-30.3215606466564,748.583684596484,108.389816991927,1700.82733399097,-151.015143992,2166.79522253015,-130.419874828286,849.950997162808,-17.9357742185221,145.429111384741,73.7220616732731,466.444663146392,-60.726422026138,303.761019320279,-6.58082552070698,310.464955991365,53.8018307066996,1318.8706516725,11.1721136437035,1784.53108602403,-293.421830890665
20.4389266441909,27.0093518598904,65.1265153675472,10.8063565843547,13.0314282158846,10.5144258525676,94.276487851588,15.6193479924915,410.560453394953,-35.119446586441,763.877761759984,114.453488158493,1716.13109844654,-157.337404797588,2197.23034455138,-132.778875337812,862.822459589948,-11.7437667353716,146.865269347303,74.9063004088026,493.890065612977,-68.9707425359422,310.881406247974,-5.26799561843678,328.205205774792,55.0413521125235,1345.06347119498,1.59724664037847,1798.67667756945,-294.129388408642
32.3603071608704,20.7703372229931,61.2184965308051,8.35145630162452,24.8608974607595,3.84042485236204,89.497435689961,15.7857641824187,392.388638184094,-28.8620608544924,745.385341823241,126.856692167346,1705.79743458208,-156.512407988908,2162.74924352817,-121.610598050396,852.66884369786,-16.8002077309793,133.649378674203,77.7482404104705,464.647308675738,-60.5495511955141,302.056951320967,-4.0564480819742,319.829411102045,46.8914781782918,1345.10464674173,3.87815996753923,1850.49576214756,-304.996680515673
18.9000337095961,27.3689163543837,70.1585814520643,1.33054709278681,17.0921876353672,6.80412775624451,94.0761558879499,12.3876903330318,392.651664190821,-30.002700713562,748.488688265311,111.407140741515,1684.71496543529,-143.909926437577,2147.67174178686,-126.851836847683,845.094678535892,-13.6208179248196,136.158731220712,74.6333703515104,470.552573486814,-65.2765460235597,303.592496049541,-3.78585251741118,319.05738556016,47.1211753460193,1354.70215471471,4.58782054193834,2075.19673647973,-355.062328696161
36.4115758867971,18.2941772762116,63.711236195249,4.7184666471999,24.0984548198227,5.85841363615717,99.8511978623777,16.4204432337212,400.200847784544,-28.0074996994913,766.895953440122,111.58238619598,1703.28282517807,-139.243200314811,2198.30343876248,-134.953503315303,864.654582810204,-16.9155793103799,154.709275436578,73.3023593657719,497.580209203552,-74.0388021290088,313.163323379641,-5.42945972533285,322.104186795232,49.2246919338254,1368.20725268931,7.22755546524634,2244.63384072719,-391.873966660383
26.5524119092502,23.6961277333056,63.7016428934916,11.0033177416558,22.2350891520779,5.35385723750175,95.862022146115,15.8441028246609,402.613079059402,-35.1895576152066,758.428771066104,110.522639624411,1722.88605343041,-156.988899264481,2166.64312794505,-127.46548898888,874.161467965936,-27.074485284756,134.787713387873,80.3369816412442,479.546581068331,-67.0871327911914,306.130100511915,-4.34982526361513,309.737671952406,50.8652780618202,1328.63834875319,15.2643420614501,2195.33727833079,-373.134821233183
30.5141756333058,21.8475006139363,66.9290937521403,2.4800976478927,20.0428924711347,9.00087585516092,93.4749876294506,16.4565801029444,401.395526659587,-33.6530655882407,740.254501029091,126.353061153358,1700.39182693533,-151.344777128395,2157.66665597078,-132.614537566531,853.193471608084,-10.2056605308896,135.521830468074,75.4787059406265,477.877900021361,-67.9113602729943,308.493552453378,-5.58323802987858,322.827490918009,46.4688672531491,1348.35726829151,4.41284846060556,2105.87523574353,-354.200450824335
27.7748885555141,22.4178688941137,67.5755992487471,7.54022290366588,25.9742103620282,4.31994320833511,102.839932542963,8.89242668633868,406.316707691684,-30.6377372993052,752.536214422446,120.741860126963,1733.39464074248,-159.611066845868,2208.33621862786,-133.111984114471,877.480713697465,-17.5895709648484,137.764290357379,80.7562095144425,504.964505566149,-75.9226258038036,316.559067015229,-7.09679306272557,324.249215606241,53.1805280864426,1337.16403584766,10.2678704094661,2137.97335221829,-361.114891600884
28.5916456970616,26.2549448561459,67.4711561172817,3.4646897417766,20.5690208449731,6.21588581068734,98.7391098387081,10.1306218380892,405.5309963173,-29.9659364176984,776.04533093717,113.792290838235,1746.86288472274,-156.634763777646,2237.47109185812,-130.398795766739,890.401761662481,-16.006005223694,144.300244471114,79.27225890522,497.316889881417,-72.1858973958916,311.422660524812,-4.69713740692325,308.618633595744,60.4947869307544,1348.59573836002,5.93029322431128,2117.69671415609,-347.946390987935
28.3804474683875,24.6927552746467,70.0080140481135,2.22137292324296,15.6963209436386,5.58431042984485,91.3145805545471,18.3805382506769,403.64309549741,-29.694699872737,760.776188509452,114.018645639394,1727.03770071436,-154.642468264686,2188.47426779329,-126.386009437391,872.026144566113,-9.46689372434851,142.456981740578,80.4822605140526,480.310147729516,-55.7338537108369,310.739920470494,-4.79062256215383,329.622260427241,48.6579391916563,1328.73749253432,7.19284142635052,2125.36926446379,-363.193127543063
24.2673395041874,29.6150597925185,62.0112612489844,9.88700334537965,13.9886602525742,10.5407401809677,92.3756508504254,17.8905869794171,418.837212241511,-32.0781400201223,774.944247417797,111.301066921373,1733.54475413356,-144.557805196443,2248.51371429335,-141.996059277507,891.346976486883,-15.8926419192426,147.299439354368,77.7341554376044,504.35813964659,-69.1780603835894,318.655739260425,-5.52392789432903,339.109940165666,42.1432471974343,1377.25307973319,-12.4353775343754,2145.28603587489,-365.173541624824
21.3148374623354,31.6118919650543,69.7748520195359,1.77014397933371,19.9822321610027,4.26659596097887,104.277534508422,11.5061846172368,418.438521009666,-34.765247841699,780.989924859878,122.744628088156,1788.92991057911,-165.097997990854,2280.12485928764,-137.80540698266,919.735890981796,-25.4043351627216,160.855317888842,79.3832168188251,510.444557122095,-69.0813048704127,325.900265852143,-7.32003303136668,334.526060445689,51.8450696724663,1351.03670084406,18.9876710805358,2143.21231807601,-363.180684844021
27.2749701002957,27.7291099272067,60.7194742748657,10.9236220800402,19.8610013158364,8.06448052436458,98.2749940165536,13.5150048909098,419.012695619754,-37.2614722020922,766.234756466229,115.675805795197,1739.65328579758,-153.599421450375,2223.33204275752,-142.106294633122,893.822368517862,-16.5784987092697,158.426109140598,71.1244040769015,502.358772925803,-69.6745936139656,314.599265947764,-5.42996652354088,337.953797362072,47.2345998224662,1355.57528515914,1.8606607432648,2129.35557738212,-362.904998430673
34.7670045821538,20.8033577167424,66.6767212187507,5.68685149129926,25.4561444427919,3.72137563090098,97.3964144928843,14.0053657396947,432.287098831668,-43.98683584051,775.67265997947,115.636122641395,1755.87618276204,-157.994581105475,2251.05564852291,-132.453254443237,918.99918292968,-24.5434715251537,149.249932144607,79.9528000118733,505.583269761455,-70.9851941330933,322.082209809231,-6.80939369701719,336.314047424289,47.159275213785,1376.7514963367,-8.61070744171549,2138.6154942181,-357.138384590293
23.6945802323405,28.0091322711164,76.026802664045,2.15795657702264,21.3999729350772,9.35836842488189,91.9401020422687,20.2000791716094,423.080179768911,-37.7619979377234,801.650357015861,119.500028463366,1802.17996286693,-166.6305582117,2317.37884523272,-148.170981783683,939.300056313963,-27.4756031951997,163.681175729187,78.5795166570794,527.136881991429,-79.0349972092505,331.189538104505,-7.32718827934297,351.247389603355,49.4983682783513,1399.98913628574,-5.01764413013905,2153.23279552259,-359.013058688892
27.0346003265547,25.350316168091,67.8582085702476,6.23413610344374,19.2134498109727,8.17282340372036,94.8103283875408,16.6408440787214,416.050329364564,-29.3814573508548,773.484761912764,122.832246432376,1764.45052814204,-162.791925263099,2245.24648005064,-132.398466551803,916.989727466358,-22.9178904399339,149.804130965579,76.8810993845299,504.554785535772,-64.8301025609085,318.577962523179,-5.44654505069833,337.032711520851,52.1949080807444,1385.8204710993,-11.8655200854871,2094.46807709106,-362.6630192655
31.6259271648797,23.7454861345673,61.2535735068838,14.1371100234895,25.8429424406767,5.46192364871554,92.858536464184,20.8364950319552,428.509971851483,-42.061947353452,788.484213411855,118.02419716958,1762.4236837669,-147.594620451361,2288.3711288373,-144.321295333814,918.053785720645,-22.693872105148,158.173612314341,77.9285565292145,515.059301586617,-65.2656748612905,322.327050036312,-6.08276384748879,342.221648771544,52.043176884216,1366.77333595418,6.9351369950863,2099.50404566979,-346.080817898886
34.3444663102454,24.2498281571061,76.0767879837923,-0.318404232444622,24.6517913526288,4.14063390290185,104.513391941094,14.2608299823884,433.692453809009,-41.3565859708434,801.803255580582,120.5534468201,1797.94192622249,-160.943789067058,2343.29857307132,-148.88627547569,933.807176488997,-22.5022491502987,153.776434366637,87.1614938690747,537.024747384478,-75.4636855845253,332.168685971903,-7.63618172688855,348.763775213973,58.0532898692449,1406.19243609609,-3.50346351825402,2149.92789206901,-370.702829262266
28.9190600648393,26.5304267773565,66.4812262989053,15.4440296127963,24.9227957453764,5.82231278875696,106.246855398253,15.0474005249845,425.737522885652,-32.2001487083617,821.371350644791,110.833102511288,1775.87165614553,-146.387438999997,2335.87146387226,-161.645430775666,938.172439371032,-27.9719274066341,157.467724369642,80.015687642045,534.128172100353,-81.8796907590153,323.415055351751,-7.49894481342464,341.15050879922,56.5063363780745,1383.22212419571,3.59489089800272,2083.42759234054,-353.259156655444
30.1524556844032,24.3428798554641,66.6322756075429,13.5709297525607,31.9719826600025,0.228368803843058,94.3683767641192,23.3066915883712,433.453428113976,-43.0321766821635,804.789083181907,121.889324034694,1788.50602872899,-151.126703128385,2311.12631564125,-147.276675031285,935.586652776116,-27.8473121607637,146.09970932454,90.1208514527792,538.401454305503,-79.2785372718544,325.132738310165,-6.60400990036946,346.335206230416,53.6209091323819,1397.98548162527,-1.90593944954655,2068.79111405597,-340.114464552127
27.8197624168994,28.5994604180794,71.2375968863634,6.86540330718306,26.98535847701,7.79605533917174,105.47356280253,14.3285819515681,432.602540427437,-37.8086623687051,816.779911677328,123.826866997067,1824.85015906813,-171.245555726296,2376.56950608467,-162.686574126834,947.616942426824,-22.7871883656245,167.051690066102,80.9598882506456,552.597653192996,-88.2433563614537,331.880937210335,-7.34364447589844,352.882671517417,57.2903548290948,1418.20943772361,-9.93334864054487,2093.96147980585,-358.325026570328
25.1389364176863,29.1842510441263,72.9123842060615,5.2997192041055,26.2487680683692,7.80842388932743,93.8525110331332,18.1069412986376,441.92226494368,-36.0269314332619,828.370823062343,126.036045983494,1880.38799922076,-185.469873764435,2420.48178854991,-170.697447229378,964.578880449961,-24.3490201375032,173.531205175229,82.0740524943039,553.359671375097,-82.7747466655536,335.725749440733,-8.79709859323333,361.590652584382,50.9710802815758,1425.38305940134,-8.21172263369805,2100.49954081779,-361.830651883737
35.1650780159512,25.0107482517268,84.8402332371641,-0.802784470275181,24.713863653546,4.21784737592219,100.529312665868,14.6582264715685,427.056113928437,-28.9633667566665,840.007034857158,105.954397804082,1809.69813254303,-162.832496212585,2355.27655889827,-156.082670032583,960.598349464251,-30.4764814542588,155.685360342522,89.9586009197684,542.194914426806,-81.0894605740485,329.622532686627,-8.46246295855183,354.423191221192,53.8788959799012,1405.15468273925,-1.84708586927916,2048.37379525227,-348.410627456401
30.655963901687,26.5138121750889,60.3469277111307,7.09335879850422,17.9622181574221,10.0096956415639,106.988364583256,15.3634282617485,441.570844971557,-37.6810523563937,831.754708217946,118.081691817174,1847.52135591671,-183.980978677253,2394.05986141141,-171.585730029446,952.119468769993,-22.8819067624916,165.003774089491,85.8375107822777,545.910982872914,-79.9987904142991,333.947056093394,-7.24523578699899,367.518280496125,50.770183075015,1421.37764112038,0.775768250138478,2099.6333440019,-364.918602561743
35.599563432583,27.6173812195644,71.8915858485014,9.26504401349503,31.2253177975901,3.19381912235086,96.8290186949164,21.8268615568028,450.820433684839,-43.4869865827556,847.711004918571,119.34688643406,1883.58813248587,-188.95440012852,2443.04962347801,-168.23537205025,985.183045432761,-29.9620068673338,182.175909184168,82.1035015040102,577.29824774146,-89.2063360843819,342.791473556063,-8.75986694685995,378.460802814168,53.5012752051268,1444.40236590188,-1.16684826218254,2124.82014218775,-369.450219754793
25.5095919755674,30.0363093149814,76.4979895917496,6.03232651653995,25.535799573668,5.9436999789237,103.198431148513,17.1336799221299,440.608464438556,-46.7116620071606,828.287958738739,117.574500300394,1826.81330378879,-169.227455622534,2380.49125688023,-162.316677877922,958.701951982592,-28.2897302359153,169.698362817267,78.7477327924547,544.731175429223,-77.3959544826405,331.020380822655,-7.10605933276358,365.992573514082,52.5699667178944,1419.529979773,-1.84989646947076,2046.46806706258,-335.860249620783
36.1186766358025,23.3162858868898,78.5649420549935,4.81127713698717,14.7916771404812,9.73767297132668,102.701701747626,14.8554572488573,438.53164877627,-36.1622289172614,831.958741358408,119.969161961859,1834.28835703358,-168.6781853069,2394.40732993474,-159.482918868683,963.532080844063,-30.6463550458372,166.117120937379,83.9257049574549,548.187410681392,-76.9578074873744,336.501963034336,-9.2848129543307,374.645672848829,44.5707506769499,1418.18378607224,4.44834563380141,2076.49503927341,-360.503145629712
33.7303119801761,25.5262691049578,75.3520671533828,4.96081578347631,18.7960066520339,11.7412595778299,106.575691982066,17.2095586105868,445.703050025019,-36.5558730570053,845.572541259194,115.647423330465,1885.5014841867,-186.519863679372,2469.00058400842,-174.414465215678,970.057793833375,-21.2015927551668,184.877472648133,81.442598705538,555.62314138373,-78.0642424876893,342.376946541306,-8.48665765791788,373.853846069925,51.9691609703186,1453.02863795759,-1.01004992090115,2118.44742381421,-372.833190351988
39.0301757600317,24.6333622128969,62.704991089886,12.2270652688044,18.5334310115152,9.11974265297091,106.340605206236,12.3427478252642,431.642355450965,-32.2928755295544,853.554043142172,114.064962322268,1840.39710489241,-176.687030884457,2395.6049972551,-157.403036512142,969.752631424009,-30.5762120931818,177.996716190062,75.3484753604498,548.530966614971,-82.8216121855928,330.404705533585,-6.11000179363762,370.548799805506,53.7860823047288,1427.63398246942,7.67258245357107,2032.98070619846,-343.244891100777
25.2372600054633,32.2610828988063,71.8480510074904,7.12588070087538,25.7330999663929,7.92271468616099,106.385847590418,16.5590137168526,446.924235217371,-35.286808740071,850.560598592053,118.133926635957,1837.57583786379,-171.456385877958,2397.50158707203,-159.113435704811,962.966893553834,-23.6669776373827,170.22851532823,79.2601065704799,536.98113208967,-76.7002348011143,333.860561864467,-6.9701440266957,370.347466834633,53.8488167764328,1429.76379932834,-1.4262645026958,2034.43356835857,-348.518603685014
34.1019184026428,28.2790569560597,72.7812476273546,8.44973626519656,23.6765316714012,6.67310247874409,97.83644381205,25.1840889519189,451.912959585253,-42.2846470879154,864.968255174023,113.716864538164,1873.83652010608,-175.35687524378,2448.52164079704,-157.517341641553,976.786456208787,-24.1103161451604,177.842038850058,81.6125928788957,568.636391905257,-85.3420768310048,345.212979488935,-10.4109188457,368.560451208023,59.1902721163476,1437.55232794428,-2.25264075902299,2072.78584731451,-359.111589870193
39.4877645859335,23.9185128147804,68.0401733692316,12.5233887650666,28.4427849430431,6.90325540855592,101.596930114134,18.8530028988773,439.371715259845,-35.6343501354219,852.543426121239,121.795061257321,1847.19621264115,-173.254504973943,2435.77927835552,-161.223691127296,974.309203497063,-29.3792680365768,168.172820265032,81.4895437071505,547.031495771514,-76.6399300450225,330.98139959746,-7.41586813561587,371.159735576746,51.6801707050104,1431.64515181234,0.270814285126329,2026.31970585102,-351.571974227536
40.2681154371711,23.9163842367003,70.2894324060965,8.11024518985741,24.7908396630936,9.18769489646097,108.178310027846,12.0666739308822,432.243585893256,-29.1109954425915,846.333459391876,125.825741346517,1833.68543819958,-165.122379278748,2411.44317193685,-156.710267542989,972.354948847776,-30.0087131038068,166.647410576215,83.0903134022631,551.351486024099,-77.0494001402678,332.989007436859,-7.25421725610432,376.433832437239,50.1862469785522,1423.00918347815,1.09136618489214,1999.66761456179,-327.718738086769
28.3972352394217,31.8131415103002,82.1305758451114,-0.525471548230584,24.0608294001841,3.70617894762064,105.647579565997,10.9255678515301,443.293964854902,-33.4942555219163,850.267308728744,120.318911179552,1856.42907464957,-169.377238076596,2459.01826137634,-184.748312631688,964.169553413662,-19.7413414672937,185.055615928662,78.5298188458563,562.713803025516,-86.1080374858225,340.248539373271,-8.79417795011188,386.752662844656,46.3049721815348,1443.79632105122,-12.4144360644547,2029.56911844431,-346.019819044298
28.8978430838151,31.0536785387556,79.0188740157966,2.02594156025777,17.5961346030601,10.0329096743488,111.797744129762,10.8410206996103,450.845724550544,-37.0447307080815,874.858362438626,111.699045953446,1892.93827589732,-183.705509851113,2457.0883154687,-165.099713861583,984.027784103024,-31.9277022397335,162.723167609988,90.2280796038383,554.229579670255,-79.0785859694265,332.783485881754,-5.91092921842462,371.934869186549,55.4891999334466,1441.33058548436,-11.9529018174707,1983.02160621574,-335.918941640499
44.3863017766874,23.7244881525697,74.1462175074221,5.11865727870827,20.4324756725336,10.2937022993036,99.8975073240056,16.0904751140865,430.020487935064,-29.4573949236546,857.533384898996,114.07372963011,1820.39299535403,-163.101051658408,2411.36196050326,-168.507992361929,969.294449760999,-31.2846621367411,165.376261665846,84.6645679457725,545.273498424307,-78.2947590736964,333.341238378986,-7.35902318014302,362.710510962072,60.6568264959996,1435.89202118383,-7.85991866359976,1963.873176462,-329.191182241187
31.3834502098798,28.2841598327985,78.0283686853482,-1.36139896505901,20.9556824216927,8.49429126808679,112.202332677855,15.5936080484064,447.280275290722,-41.9558853837226,844.939632508849,115.936566603102,1850.62227294462,-173.126757539282,2453.1454274634,-186.132124065392,975.978986707499,-28.737438714063,180.056539676953,79.3103565250729,554.135398888493,-80.3648210666031,338.077738327606,-8.32443362676908,380.564952918013,52.8654719178943,1445.40669485742,-6.77238759769086,1994.38903538294,-328.8774965601
37.16357148102,22.4066164141213,78.8065831396883,0.215773620650624,24.8604452948472,7.83750380560043,112.58156001308,15.0204335177978,449.770723124454,-34.8856669023601,870.079936161384,109.996065357307,1868.06897464954,-181.894415249605,2475.89805543592,-177.069161539789,987.015034554215,-34.2218778874872,171.14949447721,82.4944847217069,553.134031594995,-81.1556558265501,332.456843667198,-6.15678533015979,374.372143848906,53.2072677437489,1405.62741381339,8.48857835759268,1971.38088569084,-323.891638954579
26.827336221412,30.9803319939115,77.1341376295742,1.83098349304039,24.8753457946344,6.05096984463003,99.1558045969278,17.3241070379757,439.810361898114,-39.108991088213,845.2686177329,110.557651555911,1817.02398818583,-172.571467906595,2407.12341288217,-169.118031713175,960.253080484971,-23.1503904384303,164.551543001093,83.5484969670105,547.593530632457,-78.2327693616548,331.438141259131,-7.28143881869033,370.302819392432,50.7721237424369,1403.45365916088,6.82593208444632,1978.18232261805,-341.058201252058
33.6828552129081,24.4146552907768,65.2778151640049,12.2691048402137,25.1356805067653,5.97392859766535,106.785177419075,14.5908501339504,445.350133359908,-38.7548970462137,842.382513727745,106.752724833037,1838.17555362276,-172.515978179589,2393.6177570414,-161.128227583633,963.543495106609,-32.2657028458587,159.561663020314,92.2901251392325,543.588163459947,-75.6291694919735,335.605243448867,-6.8747002165371,370.908385190795,54.3521272740735,1396.69670179374,9.5665851123502,2000.1375867474,-350.301125921362
26.0533394284173,32.3475807159065,74.9000791610382,8.80561823241707,23.9197165344093,6.24413428301527,104.305126076815,18.1815893068,449.145034481379,-41.3804001188804,841.64562627572,122.185434800575,1847.74486492703,-168.779821131779,2456.66030909396,-177.610898438552,985.622125221716,-34.2801595530825,181.276076008331,83.0251029526507,557.954662201463,-80.9838204571011,336.168003379992,-7.1083219027808,380.873259609655,48.6285310024882,1415.57382940471,-0.738236238446901,1957.6693421547,-323.271106999139
24.6114082131288,29.5058802571133,79.9755020761603,1.70625266787196,22.6815018167913,7.38397141545557,112.253627159851,11.754742247615,436.642383030704,-43.1889526795799,829.29210905447,118.385640478441,1798.11044803534,-162.170593284789,2350.76390727311,-151.972034082224,951.705684650416,-29.1971823031325,169.137551156476,80.9323994180679,533.798582113664,-72.2334613278888,328.782739755997,-7.45683496123929,368.050707032578,51.5708335024676,1406.8362432731,-6.97856490489493,1947.99305633175,-313.232419332298
32.30466581713,24.4057913142407,70.9962458337536,10.2689694464941,23.2463957739504,7.82901306105602,102.311376881533,17.0535485279027,447.82347468503,-44.8908562262658,817.524480720099,118.484538772599,1804.37159088888,-163.208435500264,2370.45886298078,-154.908054133502,943.703494422454,-21.5094579053639,169.579026977372,80.4768557802866,538.109700689606,-78.6927458973363,333.571084582416,-8.16938641528753,366.065568815,54.0647731055589,1406.55463935243,1.06651805443126,1971.58832183366,-328.206203957481
31.6605844180136,30.2026441064789,77.0399792290557,1.77753585197785,28.2590805238468,5.31920150267653,97.1391371795929,24.4772880842683,440.800656902155,-34.2257835923125,840.676170510069,115.968060365296,1833.824791557,-160.98898356969,2421.69277778372,-168.767333693729,955.184317588312,-22.9614351346554,169.854682872412,87.1485652616561,556.737211115803,-81.4176897647421,339.223277598328,-7.82546321193643,362.219919868124,53.7232608454616,1399.01615002508,9.36862853082043,2018.12499972374,-344.240004791765
26.1832030638335,27.7431495233288,72.8759209770075,3.49469825163121,24.5907261617013,6.42712899942658,96.9077717272138,19.7358191514545,424.35042178993,-30.2784454750548,811.826819914386,119.705377730548,1777.57033619469,-154.444695962891,2337.22329977545,-148.111487722095,931.770781363138,-19.9671827076706,158.43520755809,82.0015782919155,532.675126460045,-74.9439072680848,325.786854783974,-6.73291959500091,354.906484401053,53.606819658586,1397.53468167562,-3.10817538811412,1983.45660269098,-334.979056518695
29.1175934918807,27.819121609069,67.6137871163818,10.2206515413371,18.4392972667043,10.7112122502262,91.3920252593324,18.9169531984066,430.769242551402,-34.0975499988224,812.426961267522,121.536429524466,1781.84212187596,-160.203300186931,2355.81531747299,-157.375100511601,934.32137011413,-26.1124863062086,162.954919283741,79.7571332167953,535.393450409501,-75.817493685093,328.996042225495,-7.70217198709435,359.000615628347,55.1920851210557,1402.85666935244,-8.90368841419695,1985.42281957249,-339.915708271862
38.7988843797338,19.8954352053728,75.1300641479507,4.56596913698652,18.8302197976219,8.74294875451393,106.353513398095,12.6448774724887,442.980455853633,-37.2322279625937,822.635077350165,111.012806023985,1815.8533185822,-161.404618012039,2383.41297155391,-152.582210583156,940.807299251531,-21.3430618600483,180.701950068659,77.3140782179384,553.201090252716,-80.016891133499,333.495638024689,-6.30133422768376,364.704760987629,52.8781186766974,1405.14240896044,-3.29910260204135,2027.07100491025,-346.695649473009
31.4003471586366,26.1630878627424,69.6263182792955,3.47510141393164,22.8667457873606,7.69592900235068,98.0609445837258,16.7628756433116,421.65379066495,-35.8986051342184,801.640155877102,114.185958910253,1757.74482481574,-154.309196162655,2311.18365608194,-144.779486533136,913.091311527196,-10.9153175064288,161.056941462897,79.4914909066578,530.337105123355,-80.2410441568732,325.811001577803,-7.6439762068719,349.295061806948,57.0365655310519,1386.93024974367,-7.66270644193823,1964.95050410299,-334.05725553851
38.0753143243531,22.3865287374733,79.2295592867924,1.47965278912034,26.1527291815918,4.54881192096606,100.317086147967,16.4417983053753,419.490601740217,-31.2541122571395,791.579967189158,122.565133677227,1761.93395807556,-159.029076105144,2316.58334596238,-149.441209009987,932.552562613962,-28.9520006459185,160.974589063887,81.1542863429583,541.156093507795,-84.7938853169991,327.256986789314,-7.29403968986891,358.027108364572,49.0763859011395,1365.7882009486,9.96498284270208,1976.22293445206,-326.940108672335
32.5364093769371,24.5384495666847,72.8193668963187,8.48793882976386,15.6036923729735,11.2153412563277,108.27078642814,12.721048318827,434.58737827487,-39.3355285599258,814.501508037092,115.244350596444,1794.93776926904,-162.648178485893,2374.70603208746,-163.612041397053,935.885443970088,-25.1645189542301,160.269537988579,87.4462316145787,539.185510816436,-77.7177093785012,334.189490257754,-8.10798655630787,350.640087396241,61.5386086940007,1404.41729042905,-1.16573499909286,2011.2256374872,-339.314862997812
31.2098916729455,23.9296345389383,65.8012432153255,11.9182390846934,23.4430138070428,5.21925033788314,89.9787486373214,18.508238791148,422.133475875877,-33.3502859787187,792.312706990036,124.198977061726,1747.95727079825,-147.28865258879,2303.71257438668,-162.417003555201,911.827539862803,-21.5258565724909,158.650804711109,71.9340128543625,528.677196769856,-72.6654995587389,323.405843185699,-7.11294507113247,350.759301984079,55.7128803472252,1358.16486110602,5.47782045283061,1980.13951762784,-335.061701425112
33.8777128962919,27.4013560384216,67.4079641705739,6.67873918484924,23.2308095606548,7.16382708561033,96.5803751144719,18.4485117033553,441.686963410687,-44.808605950603,784.297638338165,120.653208247014,1743.36364760149,-147.780390928608,2278.7028976155,-134.194365622447,912.625440452436,-22.3381074700491,156.127795736788,80.4497903939575,533.921804175162,-82.5779931264091,322.744484226902,-6.73110593460335,349.417280963487,54.2989251324315,1368.89163060839,7.53407608705258,1968.94111925237,-323.52998719068
36.0812671695087,21.6310303644076,68.3109320324954,7.20456187902864,20.9447044428395,6.64427886203551,94.1853279258375,16.7912722763979,419.872565994534,-33.3075833468299,793.43637905922,118.605234108652,1773.93402819219,-160.406728890803,2334.3220002334,-155.176493970046,931.920582681694,-29.5523683805808,160.609272769246,79.1692829397669,535.498225997925,-73.2054829628058,329.147821784534,-5.36232097737754,350.203657238665,56.6432728394345,1372.24321966855,4.88193607614106,2018.71193575212,-343.981729521865
26.5290858298193,30.0657719810018,72.9533987039808,6.71955447561276,17.8226327464059,9.73559379493096,103.911855168555,12.8828180854581,421.971414325863,-30.9672381939552,782.174062245696,121.356534228247,1738.02199859582,-142.229598745139,2273.16401475825,-142.537143965435,925.110340568811,-27.3039064842247,151.518559272479,78.7944149465568,524.71941051589,-70.244276307314,317.083203592782,-4.67408436882223,337.180509203697,56.4903482465987,1355.66937871797,2.51842720179799,1953.46701155361,-316.795825170955
36.0500464153798,24.3140977089768,67.1456144733603,8.11066784492579,23.6719761653254,3.78303731770779,91.8322550488889,18.8857510149224,421.2493332622,-36.4739625199295,771.429968495399,124.351196947963,1713.84328732223,-143.968401010741,2242.06558276251,-126.466172747448,905.629822229446,-23.7593450291032,148.341010677997,83.5778276408045,520.797507380638,-70.9504945429643,322.103011926028,-8.09843630451536,331.875871279154,61.8289049143268,1356.30352702564,4.79566706112838,1960.02503545946,-319.755572895619
34.410563937455,22.8453792869266,63.5488806548482,10.1280068859282,18.5573922425103,9.01980757771694,94.7409141457494,21.8009343534281,426.261652856681,-38.1641399047579,784.079776626482,122.065986591934,1754.53290332513,-154.481824537047,2285.35745261041,-136.866903130319,907.820423379071,-18.8350952630292,158.526614628477,76.7066381668129,532.747280721366,-80.5748190901166,326.55430229771,-7.04671861456355,345.106400906986,53.4803491024747,1374.19547659141,-5.15123351641368,1997.90070294064,-341.900611064098
31.4501510588494,26.7993532310166,75.5920895053377,3.30743562300899,18.9506317804097,11.5298858598695,111.715864796667,10.4436703992,429.339311898982,-36.5389204832404,794.162458147796,116.690238431631,1743.19330115248,-148.562034803208,2307.27699746146,-158.746772698408,913.130787815636,-21.1366055080499,153.51951531643,80.6352385830749,521.228972758429,-72.2072741900132,320.700761100713,-6.67674254276998,342.139468492635,53.2592365341659,1356.87914211176,8.57727050153768,1972.21973915302,-330.885107215265
33.5791414254766,21.6991824807675,70.8628002172296,5.81319252376241,17.735075303966,12.3985621321906,89.7286396764177,18.4705966132217,398.508589149134,-26.7790753158814,779.267929096362,117.781732338702,1721.84219560611,-144.46184976802,2222.56169575262,-128.570746682823,890.074984104101,-16.1907064396735,155.140052802115,77.3993021605599,513.738472544679,-66.5911000246962,319.238815672242,-5.64933123347035,332.856008488421,58.8696106153437,1364.90953573801,0.621246131843551,1974.23104574235,-333.190371300454
31.3887021482698,24.6009096119048,70.0521285136663,10.2034520677383,28.6670195193393,6.97928981293464,97.5305254169006,16.2342329299631,421.717958776946,-36.3496874535717,775.313093382488,123.206260221101,1749.93560530203,-150.807321862885,2242.22855004578,-129.627378405338,898.366947839138,-17.9614873217357,154.103011317225,79.6692938869131,525.842231790443,-76.4144301984575,323.841139156922,-7.06771387718182,348.259451528119,49.3381161819585,1379.87178264555,7.08171718133313,1981.93531619003,-336.324000872646
34.0968873894918,27.7836709150289,63.4164304174436,11.3152241045733,16.8249596433422,10.8474786385364,102.254549864169,13.4585761264749,421.592635483442,-28.7262731217133,797.435322353524,119.480674149173,1786.91854875669,-152.634333735256,2284.84141339659,-140.073855979539,927.138399003909,-21.9293306194128,162.408164898669,81.4146796101269,534.454266926751,-78.0241026359925,328.420064762272,-6.54499384977148,352.848173354868,53.1123188777849,1395.09819474949,-6.37096218494089,1978.8154875076,-330.461945794366
37.7135389231929,19.2164695591811,66.3820067500219,9.9086719998265,21.2687016825112,9.2948890733481,97.9317085504688,15.9907869495263,419.379974196485,-39.5750633502321,772.855336797862,124.057162447176,1711.64308868822,-142.552861919359,2227.63692378149,-131.233438860918,893.290660909273,-22.3172197428952,150.308307576783,75.8332326994297,505.733526224261,-68.666588352028,319.943748540237,-7.09495127721192,332.532971336516,52.4673003883786,1364.86845962856,6.69688039893772,1983.85833860059,-334.10053941816
16.1977469116513,32.4494388310399,71.3005515786119,1.72537398383891,9.91349396037353,11.2456800090996,93.2044969278306,16.9911541777759,420.206004099492,-39.523284299334,779.685075508215,117.874854036185,1730.01037657964,-152.611196065095,2245.04953788345,-139.781365868459,871.974957672168,-12.3503175109425,152.870764661833,75.1481018498906,515.556198160163,-73.1014088503108,324.22529366223,-6.78469001496806,341.069198067171,53.2136895264045,1408.57313873314,-2.23814676716765,2471.25715956933,-413.897254068439
33.5202372092567,20.0801730307581,64.5311394312038,8.59670865250491,21.3067086961697,7.37779257909527,94.1841785934269,16.1869851573887,431.108039402718,-38.9391193407185,778.293140200826,128.348964034135,1766.59831119791,-149.597189648287,2262.03875228049,-144.207248143972,884.765335650802,-19.6509551972254,140.230088580626,88.6754576285626,523.442884842669,-79.3577133062695,332.156476908167,-7.83303897135691,343.678052807603,52.1604285851324,1433.3141549133,0.483294621983835,2542.58486768057,-430.366015722308
25.7707691949013,27.6960139712514,63.0746520630934,11.0381638295347,29.8443142461915,0.327798758204819,87.8303016991688,22.8676102909236,398.902718155283,-30.8183852493979,769.390979438597,127.816844080282,1732.3661342489,-156.248806018937,2190.59340188294,-130.638169140317,846.28210015788,-17.8771066340208,148.432087383964,71.6370578802309,493.263186482601,-69.2048993574049,311.442816785181,-4.87460197427073,316.922465329581,57.0438434905112,1376.91396557517,11.7610830646708,2154.90316967269,-363.871049154821
33.104117888556,19.3158838772299,65.0203961124042,6.11443734997484,15.6151624107322,9.71642390186901,95.8670483190077,11.6457089262895,411.056902207554,-38.0122969334386,761.054718486216,127.751660345922,1714.6864921451,-146.2707897834,2171.01172184768,-121.47407112716,827.582233979661,-6.9875263908258,145.484818980705,76.7920464298876,487.775847884872,-68.629686446846,316.648931222871,-7.85440095272169,337.695907684912,45.558660441892,1389.57368179814,6.50495296850397,2066.24696080384,-336.412002351063
35.9152388270836,22.2283268682282,70.4880299536034,4.59987503297856,23.5030756497604,4.63940509237946,100.041442126344,12.4193076589531,404.407603552086,-31.9252901028945,794.205518769788,119.575800914522,1726.84624298589,-146.459414773704,2216.79194703954,-126.072572233846,867.756744064313,-21.4838863413835,159.139334615334,73.3537370561562,497.688665429845,-74.1799400211801,319.442833713253,-7.31302250486142,326.236686300578,52.9961697042778,1397.31712595678,6.76293564727569,2091.85398732648,-350.763145333736
28.3510861347395,22.1408065722291,80.7857217029653,-4.82606756016993,28.7584472846217,1.99507297402242,91.9591166510475,20.4437246541423,401.608547901551,-32.7018029977745,785.419837052351,116.838852702117,1699.08443409628,-140.962632027683,2166.90067352666,-119.147586272516,825.077266308215,-6.72228678555702,145.402539840895,75.8172565332733,481.14650864304,-69.2530180919709,308.717501934049,-5.67657600610369,316.445024554252,50.4318610438454,1391.09278178773,-6.608923330841,2017.56588659111,-331.328229451231
28.7172644406258,25.8779562969234,65.1022148658665,8.32952220087403,29.1217642721417,4.85756632983899,100.143451910988,10.4393450713277,399.780197633651,-30.3467907356907,771.907337285262,131.112275532242,1685.19716947791,-125.308126330064,2177.88873340493,-136.142524566737,842.801049892375,-14.8340821819376,149.682753934808,74.8554636825889,474.429515988108,-63.7883712389461,305.503689156086,-3.39798122613299,313.160535930519,55.696516411211,1376.06045304363,0.877121065266033,2025.7630742952,-351.16775658577
31.512363229985,19.9443231575667,71.3457584419604,2.06890602004573,17.335703512322,8.0991711576274,98.1082972827164,14.5342527526812,404.262129817657,-31.9443942634896,796.754094738812,123.733471200949,1749.29817580054,-158.503963766085,2219.368410325,-141.80434528363,867.249530457149,-18.1963165172187,151.939281820956,77.8069012127317,497.613531481464,-73.6083929172241,314.690176660938,-6.7727226415496,330.381536546733,51.3201010980848,1384.65326163963,5.74960846770319,2020.5804159831,-334.171236436818
25.0566070784567,25.3704559657822,69.3380213005045,3.18866036669079,13.4800532013316,9.33951715002293,97.811780550449,14.3705814556108,399.555266760086,-34.9178130983451,779.73078907574,125.566952680433,1713.29639205199,-150.832024348254,2158.62373753069,-124.017950777303,838.155768528322,-19.2939190608889,140.524814629683,79.7005899184402,478.767726669392,-67.1147717766124,305.92746192866,-5.31956315528501,332.83201810844,47.8411193515594,1360.61185217866,9.59571126410712,1979.20476593322,-328.02884997852
31.8019254198605,21.1620248228404,76.1487123626267,2.82213300101013,19.349759976427,8.19685777640199,94.7645200573707,15.2429877055065,402.992713045115,-35.2080365586428,789.333172851601,123.723059942709,1702.97013107497,-147.945101158083,2186.14290833887,-131.878394122891,832.991876198021,-15.7971910247735,135.998790806481,83.1091519887139,484.383905592769,-68.2125799394529,308.471566837158,-6.0357176278437,322.033681895738,52.0243113137382,1374.40516663277,-1.7626288763079,1967.70379812966,-328.554957275104
31.0642678940464,24.7572516663619,78.400630859819,0.0304729017631706,15.4207140089729,10.1274001401114,99.5896594625585,19.3647563824726,403.263760050846,-27.1527776730885,802.811030027619,119.788626745814,1753.27659141507,-148.652681748043,2241.59665987561,-136.480334878273,854.839580025651,-16.4589692545432,166.368151897971,74.8995146349535,499.753744021693,-70.3029442816709,313.819252858506,-5.96592474272117,331.602552085928,48.8181305565746,1391.67536674727,6.47464829246563,1997.74912012678,-330.49316071055
29.3381181467118,27.1491361920009,64.484104672332,6.60212843221526,24.5446503392057,3.68226467995151,96.3216671346425,13.6079238964815,404.324122730173,-34.2226926800951,794.710430619761,123.976960587725,1713.55890087624,-139.876705077615,2183.1802827099,-125.679204302119,850.371414110175,-17.6106177632853,151.4904620897,73.5242866448444,475.365290042404,-65.395819443302,308.35174616426,-5.30776480562237,326.82997532724,52.3170886202845,1383.82354239924,3.22149120771098,1957.80067783458,-329.101098260622
27.6615263698469,24.4806078991152,67.7067588383652,7.37746647813257,20.4835487745345,6.36003290072377,102.260843273263,10.3030642712494,407.82492938371,-36.1947991048215,803.384437283642,118.582695803131,1728.69023062478,-146.991762508546,2209.43101644691,-127.0956290042,854.309361170333,-15.12252246213,158.865691128822,68.9080929559457,491.215577322256,-70.3509326490489,312.621128555232,-6.70834070108816,336.74408998692,45.555837113264,1403.23694867004,-12.3805095288091,1972.59973176645,-335.499207347421
24.9798395938721,29.4293507028246,59.7417690267298,12.5196744645349,30.205900121642,2.81294913170535,104.441873990044,14.9157725478511,412.423320497984,-37.3030558234181,817.718033128366,120.156920382512,1784.10738605535,-160.07002559264,2246.77661035531,-136.77842195081,867.57442095974,-17.5291170354944,163.374225983927,78.1433648397723,502.410595860223,-71.5143746407216,317.939612279485,-7.72295590175301,340.066223850819,46.9229514659105,1401.59210347096,3.16062599899601,1971.90120210088,-336.742613273661
29.5225088459495,24.4746092202737,70.1188728219659,5.79445796918126,17.1732787327083,10.1937413901412,102.112475250538,9.75581805699785,412.774162614579,-38.886463949677,806.051672373668,118.602127514911,1733.20543284147,-153.218469246225,2198.74129863053,-132.086546992701,835.484163356747,-3.07142487647596,141.864273616203,80.6517273564092,489.407677360724,-70.6770022193728,310.10710362221,-6.64246922171238,329.644266047837,49.5491961846382,1388.85888404295,0.813327021648267,1916.12340459752,-321.326725047557
33.2309954867482,23.0722145990345,62.010763450909,9.77484504770597,19.4315614971832,7.98010629985339,104.798088243727,10.8112784707961,415.611298663547,-33.4217505085646,820.476576221024,110.813030665877,1767.18608526552,-167.52490122833,2232.99263791559,-139.702234589343,861.184056439947,-18.472514722777,155.875747578144,75.7381138022947,502.539831748687,-75.4509949894698,315.694398293223,-7.54167478346046,344.246109084663,44.8248797059485,1399.48319656544,-1.39454264847872,1935.7692317332,-328.446292514079
34.0804208155191,21.3443537495786,74.9951455103433,4.94021642687526,27.2953886730516,4.49791730861047,103.055054401117,13.5202726366336,430.451470294393,-37.4907106773711,838.845857499634,111.628995150956,1771.90955560684,-163.511451508948,2261.67765099653,-140.543395429256,866.049809580388,-11.836092007411,161.523768489906,75.060517187617,499.633481245132,-70.2834348662367,310.633248720794,-6.05262819520637,337.811133548221,47.9335245733179,1397.98520737535,-3.25235319794152,1908.64513422761,-313.093150516294
26.5604794898436,25.0762102424199,65.8543605399049,6.99155763684774,18.4736912768443,8.05825591213159,102.03920184799,13.8263650577118,419.952935050934,-41.3466482081771,804.349908031428,115.927180542177,1724.77398156027,-144.512511989663,2207.32646755839,-135.439083825065,851.858703287103,-19.2012072285272,150.098633277962,72.1732250838754,482.392406566023,-67.8540532772845,308.105983389682,-6.51691733826869,333.548319686712,42.8421198927364,1369.37974009734,11.9366992930795,1857.61041744931,-298.860062058332
29.3619125903688,24.6544943499273,71.4117246753903,2.74250857026847,26.844017901196,3.60222987220346,104.146439705509,10.3932166808074,410.757410264153,-40.8760260121275,801.004760945229,119.783416092265,1748.13652426051,-166.738349685328,2220.4815715382,-133.072586435563,859.37923177612,-18.9976862120741,145.632112421535,82.1652695782923,491.833622803939,-66.6863751511008,313.343530167651,-6.15971416506264,332.608968411574,51.8298783562024,1392.97263110715,-1.22292237102737,1880.01222017813,-312.727442259346
34.4831292105234,24.7420182717381,66.5283071964628,9.60734203046007,20.9133721904686,5.92314978467088,98.5950244832396,14.0134657473941,421.876204293716,-38.5033969682547,804.104432058131,121.861761086397,1770.67728892705,-167.610179430966,2263.63431095282,-158.961442768626,864.417718028259,-17.0077087365923,144.750530166193,77.1830530966361,494.063595669111,-68.0075479697147,309.999567077072,-7.16032278486411,325.931750534549,50.518816414856,1366.88755471561,1.96653432947677,1835.30152467658,-295.732076213164
30.9434133401504,17.1487280671021,70.92365215182,0.784089704814985,18.3829457352266,9.73994250283656,96.7389726697816,18.6070938883779,396.146997928385,-26.3524680806286,795.264822007126,119.163865515411,1745.16056021649,-159.223964991563,2211.9291265037,-146.799525273619,847.769776425368,-19.8901167333126,147.590196296953,76.0435235229007,488.105011554875,-68.3213226128233,304.840876658524,-5.02710481845557,320.799267792314,53.0787437331915,1370.176066797,-7.31690732065106,1817.71110894886,-299.949565913022
31.9837900704753,21.105023437132,70.31256186108,6.186723887719,20.4198134316303,6.09900663752769,100.415716166765,14.5630522853981,399.811694061865,-30.3208179115752,804.633044729654,115.846852109877,1746.38177392398,-168.291796467366,2213.36182437326,-136.690492096682,858.484124747984,-21.236614735524,157.59281309083,70.9711448919216,494.421155435974,-70.7013324809964,313.650922362229,-6.84252481069098,340.502926633354,44.1113042859452,1362.37743775285,10.2351600802958,1868.76178817008,-314.007401398193
31.5634050502956,20.2609557754202,71.4742569296019,6.51835619429501,25.6411485659173,4.57276380643155,97.8339516663676,15.6383343593418,422.6306129236,-35.797922813223,809.348288175472,120.552222783681,1778.34987971046,-165.147695529414,2250.44832937618,-131.776978064706,866.580014897543,-16.2420240329126,158.913293963588,72.8732869807875,502.293490581522,-76.43227429293,311.203576312399,-7.29541372466574,333.25941153675,51.474274567485,1368.52241579338,-0.839904164098176,1827.0765740115,-302.991936156519
28.5417932925529,23.5653805102398,63.8277310674821,5.66987990084795,22.6547929184976,6.8714325657332,103.546044185129,15.0463712945054,413.695932667355,-36.346164915204,801.122158092166,119.21472299924,1750.49429314403,-160.964875490516,2208.74221576079,-139.012161988478,852.111621303476,-17.0464351108353,148.422908590758,74.8900049538135,491.546652408115,-69.9689252809599,310.434041150485,-7.16936323479539,333.554646983979,49.3564627951363,1342.23948316963,16.0675934650597,1819.62141896767,-299.125613978178
25.0676402059059,26.673437628652,64.8327630832375,5.68287397042867,26.4336819133156,3.92318468421457,89.4899588689348,21.4809360519337,411.544791794521,-32.5990249859443,807.944687512372,113.148714083467,1770.34873686829,-166.345181615868,2218.93974393581,-135.112887883396,867.316405611002,-16.6226010087039,157.219519554207,79.4159435151726,498.958932478029,-70.7782007193763,317.050557104894,-8.26690465755101,332.13553309161,51.2024580672906,1374.72129245138,1.15012364825797,1844.23713403338,-308.535713586218
26.2058234470013,24.2950685427314,76.0982548823536,5.06245639742085,19.2638557500244,5.74842101247868,107.062920542208,10.4741708472777,422.665381786958,-37.427294080218,805.411245422731,124.811232381523,1786.10060902193,-173.341555488631,2261.23444578626,-144.70327602428,875.132375830044,-21.0328700785303,155.345157627847,79.0701406216122,496.285111845395,-71.3179706500267,314.834161139264,-8.87036342836421,334.003019835349,52.2113727031507,1362.01802004623,14.297211067675,1826.3763783168,-309.520697352597
30.7542629427188,28.3504514545308,75.6231465392215,1.06503623616696,24.8113363313013,4.64937562132322,99.2118948255045,15.0488565842162,407.894392902357,-36.4044652564604,792.852408460838,122.31100703981,1740.3996356155,-156.977594094902,2220.99066393772,-132.837572131641,849.207287130623,-13.2515311616295,154.71692843816,75.1182738380687,499.155190046508,-72.5486341647963,310.744415879824,-6.02402194850766,332.285537938895,51.7933568218351,1359.54997642858,5.30692214437828,1789.12725269671,-289.348010309177
29.4811695436465,25.2616795753152,66.2596253416723,10.2920243205266,21.5554549016768,5.1258501083756,102.969165215013,11.3193588342086,428.74342563737,-45.3159477257198,801.100480003093,116.982574889232,1771.05313079756,-161.248900493912,2256.9328037907,-150.860631918732,874.785272861496,-22.675068767697,153.987083567965,81.2078848766745,505.960141548195,-77.6373673454364,318.951391174148,-8.81400042269592,337.602702725524,51.4443672843188,1373.38909164028,11.763365021904,1823.84695200539,-295.205262565479
31.6765797905625,25.7660095873527,76.4966535676703,-0.62742018005576,22.9897981678079,3.68909072369996,107.41454056034,14.2458759507921,419.886313241069,-33.7909400139626,822.473426563717,111.645411136328,1792.12542499725,-172.929657625413,2254.20420377729,-134.334728919615,876.028410260864,-21.1911239832504,147.032491810024,82.3911046691061,499.09358960952,-74.3168552493555,311.101393025398,-6.34286574010366,347.324529084351,36.9008145268725,1389.21267733801,-5.66660851957922,1818.06856063763,-302.624855175197
35.6123116550784,19.1385961884317,56.402162357923,15.447173788091,30.1769107554839,4.10057661509913,103.988122171008,13.6307442094722,416.126675932453,-33.9446722699285,795.230296641328,116.512006328303,1759.35774584219,-165.88389405106,2215.73291641359,-136.243969799905,856.905940683389,-16.8388366099197,148.9957001376,76.3916266048402,498.947647967298,-74.6300976929627,312.532694845606,-7.39814985860907,330.742352401927,50.6923559186151,1371.15558508583,-1.97390747883692,1797.93547928071,-276.344836973998
