2.80823021482855,2.70382874235352,34.7094341406021,1.63930566321675,13.8156603761741,-4.64401599179349,508.689930314138,8.15306941386219,870.430576182398,-36.1484460554342,3.82576456920757,0.183350820517039,103.947773868262,-22.3154676060465,117.903354016048,-28.5818089671216,20.9452669615368,-2.67266331631583,630.326239890767,217.944650132369,243.806963311357,-23.5919689501613,1846.879637519,-314.515822551209,179.569339852119,1.16804616805229,789.783451294895,-35.6859678159815,579.443268854531,-65.6790844426862
3.83444516370926,0.27912948777904,32.5844547759228,-0.566751230902661,0.23565174972039,5.24060523571975,507.682195415047,5.82624697263847,869.223578598865,-36.587303511585,0.288747745312496,2.47809604609079,94.3239908584799,-11.1826030220576,113.314665246867,-26.50126349321,21.4578801792635,-1.60680810814801,617.273513669291,212.270610823532,239.117789799091,-22.445218981454,1781.39247016012,-289.060200505605,176.338036342383,1.29898939178626,778.360694808536,-33.8399629887846,551.890800876508,-59.0519512912829
2.32637899347977,-0.108033099068811,24.2149996456062,2.24115702023222,12.6662336335025,-3.24288768528991,504.723904643033,9.6902569936826,849.732459853963,-30.643109040801,0.504751538618183,2.28482657517814,96.9807091506974,-17.9117116921713,108.038869369331,-27.0618711527041,22.6445961618946,-5.76151804378756,614.728008961688,216.089901576396,237.610885030441,-22.537723291408,1789.40845886649,-299.292807753763,174.392043783998,2.72479683330928,780.946523195659,-35.0452102261876,561.314698363411,-61.6717051830039
0.570339645329462,5.29171535725816,26.2823669118276,4.78256719935383,10.1454600135832,-1.22986331754939,515.374654556306,10.7804861430825,865.004041631189,-35.1570722259617,-1.31250792838556,3.69941499735977,102.85905323634,-17.1946677738478,113.285504338754,-23.8826367186386,17.4517121324004,-1.75968993617562,630.235460660561,216.926933474557,242.523164628519,-24.1328272527647,1810.39605409755,-301.272497538017,176.936495731721,2.77404526462859,789.008644148238,-34.1986832799023,580.250565871082,-66.8452988950743
3.22337904623779,0.240477202009406,43.4172305575244,-5.47208038955013,10.983489493235,-2.47317635698025,498.380360849937,17.115728072425,887.734465767498,-37.996245512186,4.65588792077844,1.4414156657933,89.6816140510976,-6.08936727753293,111.460546881433,-23.353147586803,18.2047479922289,-0.827980781118578,633.324665214315,213.690239320475,244.082546172124,-24.0638180325016,1818.19193110183,-299.799070492381,177.405880216664,2.37113553852415,786.477242322505,-33.6252061558816,564.049942305006,-65.2301658786179
5.38125958587951,-1.03506023888976,26.8843003958148,2.78105421166219,5.25191440074572,3.95321864219067,515.868833057169,3.75030050414306,855.696206122287,-32.6847536285054,0.0393734223436446,2.07348412636158,88.6131242685352,-8.91973080954577,110.052043579871,-24.8620610749352,20.6983835366453,-0.732808475200438,622.450115286295,213.677840225364,240.834951987711,-23.5145102922576,1797.30293875949,-292.481388775329,175.743300335826,2.03771152361328,785.622872559265,-35.5301030647182,562.160520947804,-63.3810063148864
2.87291614131797,2.29720098540354,31.4166594007537,0.35580378020655,12.797731762171,-3.39380439238023,511.457061494325,3.42883306587375,863.485194077706,-32.9525156238561,-0.356340182368307,1.62966477004131,110.983260263104,-17.1770346322552,107.811929724568,-21.4257527778412,17.4878779507381,-2.3957195710208,634.067415041106,215.602007245086,244.145643553202,-23.5531270624989,1828.81118588742,-303.71111521748,179.505594735617,1.45254390243589,798.530060296869,-40.0546188854461,578.653006454258,-65.632911879441
1.36564386068887,3.82616748092477,35.9204011794935,-3.96862146327373,10.3710634516344,-1.44192865909121,525.363635443229,8.23366269578758,890.012004827461,-38.4257885141857,2.26746836184906,4.8949058180627,107.306176502736,-18.876162738269,103.936760104956,-22.5802343940307,24.3897081899271,-7.66830337626251,639.932126933259,216.524743791429,246.09822834877,-23.8097419723079,1836.53264820898,-311.592310667919,178.283752421872,1.6460907740582,794.757243191871,-38.9663437327285,566.989780093814,-64.697935349524
3.57727346013922,-0.0282579900836401,35.4598130496758,2.21400831866776,3.72057339740141,2.28746862696571,501.130654337021,10.4933990095555,862.310562816769,-33.868204094167,1.17370789852278,1.21471193407761,100.283603353456,-19.7044759517917,109.760288400247,-19.1882775243599,24.7722408316892,-6.51474088079143,625.41034925377,213.768957241888,241.2322247188,-22.6424405639179,1808.68070554561,-300.032632924739,178.354103711832,0.937074780927037,786.437746413147,-33.8748009966387,564.005073297641,-60.7994655151708
0.410836422410993,5.94835416146489,37.313297463146,-1.3772781632796,0.630039940233567,1.73413282385418,507.142541777556,8.36082844821298,867.378108270985,-32.5273006078854,-0.726713924107235,4.45952279868947,103.641289875702,-18.1002137112847,117.942559652675,-30.1955961579186,18.9081441315945,-1.83237760174965,633.889807276933,215.763894045131,243.932566932517,-23.9067849325769,1840.92812752084,-310.508273396768,180.611382973125,1.0830871730342,794.344577120474,-36.6662337850813,583.50506739967,-66.3769294045745
6.0803140599145,-0.247179514933645,32.663582605045,3.41698397694249,10.7997224245448,-1.02022794968509,511.100247988656,11.7797929773456,895.423551224676,-39.8169010555514,1.79825729900103,1.76561812094247,103.926338719231,-12.087838123227,115.435012159638,-23.3919988482728,18.1907931816956,-1.0091475785753,648.775456200523,214.715155109838,248.743768055164,-24.0145753090277,1854.24985004994,-303.970202694501,181.047038612615,0.830765476189817,799.468549447925,-37.6844394435251,578.41699707527,-65.8277750046391
8.94528355505604,-2.30671760804533,31.8631368280032,1.43927796114369,14.0930474166898,-4.1981866386016,500.105440472189,11.4330174321644,858.366548580784,-35.0272506408736,4.37132319431722,1.67706159824072,114.623217030765,-22.3415055967127,102.796826351368,-20.7524999636693,24.6730056442235,-4.65076689021392,626.362329297967,213.456041098086,240.985949237519,-22.982353257432,1796.14147029682,-293.106982285551,176.843724673605,2.01002664711568,787.777938749337,-35.2984531402528,567.293179128072,-64.2245686305825
4.56278277623066,1.03048219839424,26.3831215416934,7.51465992378324,6.29500205076749,2.25358632309838,503.724837272499,15.9318514704692,866.624693046546,-36.0577606650612,0.84173982279477,3.01989860908044,100.256880306923,-17.7576426969156,111.978146046152,-27.4192044358062,18.4815739007672,-2.36131955082829,632.573115596433,214.93355957788,245.041077410429,-25.2525868755974,1838.63609861808,-311.006455762232,179.098052540485,0.927920766855434,795.428498953041,-37.0522796744086,581.045225279547,-65.5338429392485
8.89223192919209,-1.03380661449509,37.7195112716208,0.116751297814333,0.33520787326472,4.30986617117271,531.930883758128,2.63985569882628,888.265110174127,-37.9374576487838,2.93251930794805,2.55689256206906,97.2807954184948,-15.7154955905788,114.500930231318,-25.2208302034622,23.9603834431319,-5.93056591857127,647.932774182449,215.431098286046,249.712107983704,-25.2495124017737,1875.00888781408,-322.957453536651,182.179103733593,0.725740436658185,802.89965280954,-39.3605871376831,586.536706392637,-67.2380945288462
8.53254470550508,-0.631495839598359,26.5586944048156,4.76519382225425,13.2247557432801,-3.75626636364689,506.53708805265,3.10013958933859,855.457292786385,-33.2281903108571,-0.412449404608687,1.49203432889197,107.244843342924,-19.8888452118651,115.635590587644,-29.6361375019604,25.2510009051768,-6.4390610074123,618.113085416046,217.044739601928,242.468365276493,-24.6034747195002,1816.18644341559,-309.950261263756,177.038694707425,1.13921036161667,788.436430022148,-35.2063384700471,564.825686165539,-63.3314669332284
9.61778142848547,-2.42756885792042,40.0641243470478,-6.06986156990977,7.92398953061862,1.6973226770405,499.754343422231,11.4020150290219,862.286790887931,-32.9857404762218,4.32265808906721,0.357141114830937,95.4046825787067,-13.41992967399,116.466347552275,-26.4626180926016,17.5599779035105,-1.46445876607217,631.598687425982,212.079869419976,243.979418808523,-24.4022628965033,1821.34614453613,-313.495182568398,179.627257495956,1.20322202079794,792.331394063891,-36.872202747979,582.289512824254,-68.2612863614469
3.93519758756531,2.26138340454226,26.5783698969817,7.65859692982701,-0.390037946169866,1.61420411644306,526.184450356461,2.97713221742465,886.760442256787,-38.3538929035163,-0.812442223537101,2.28115510733754,109.659203900747,-23.9315680730654,113.778619906821,-24.5480501876129,27.2594763611116,-6.98645052160989,640.923443781536,216.463161946244,249.475595255919,-25.0920069205672,1875.56905782614,-325.750479080454,180.582351962944,1.50445470114404,803.437014816067,-37.5121957715107,595.704104388188,-70.4573936156647
-0.188947148024641,1.19710478869528,40.2440117699374,0.218847678053795,6.72734058803458,4.7410180119968,498.453147016613,9.43719790596652,859.086414003533,-33.9559700775966,-1.25150195753762,4.91062928745856,93.9260326767127,-14.5004701587395,103.896551541478,-22.9693433235674,18.5524011892004,0.221633975983307,622.68139887335,213.288375742764,241.640848774375,-23.1466350926477,1830.98519769088,-311.768957149366,177.99969701354,0.897456626296035,791.238911071599,-37.4613821516088,568.260380921244,-64.6733610931606
3.51636464140571,2.42394123331631,30.3431175582742,3.8067211994556,7.72728393417375,-1.92809018193519,499.300253612698,14.7526891837362,862.941788517154,-34.094916070451,-0.27352175852621,6.58430912429497,94.0939117237891,-12.8942597382931,108.751950070712,-20.5556945262643,21.4212086297006,-5.54451423945322,630.919355548755,215.015001406584,244.743648187084,-24.6699206605698,1830.70710616577,-308.731043216268,180.150764692974,-0.205211881023905,790.159679590913,-35.1309454101136,580.144980316556,-66.9445192941219
7.01511410607983,-0.133780894391098,31.5689232570058,1.52025800445488,2.97275259902602,4.02840438001876,514.352634667167,8.130560735945,884.161189225107,-37.5540820124012,-0.321416120648505,3.29652079092147,95.6745896333261,-12.055468888587,112.070590300817,-24.6965486697599,22.0507030304089,-4.53949139635317,642.160447404272,218.818699085359,250.058594763453,-25.8286513966838,1871.71170922119,-319.42485485568,183.761111600861,0.517993815667654,806.930223108745,-39.9736109054952,596.344612071566,-69.9351251043031
-0.524251875784352,2.18989622125962,32.44171799341,3.39989774930345,4.22430560826743,3.92809018082909,495.96443892503,12.7019286723336,857.859682712353,-33.1822023577523,1.94828319028939,2.64550980552942,97.2894418364276,-13.8113616956307,103.045810733255,-22.3074597548723,23.871657526618,-3.80196508925367,624.225363049722,213.180408401248,242.900939711468,-23.3107452358751,1819.39955156929,-300.581930367659,177.817303947556,1.57450526071424,789.39063569559,-34.2959410235179,571.914922129917,-65.3105105750613
3.16019357127441,0.5110028652417,25.822840661828,4.43306568201672,4.98193323472068,-1.31003862550075,512.158951761176,7.21667446654435,868.285886040089,-34.9861499064159,1.56402763548693,1.89886790144739,101.046616340218,-16.7108486696015,104.602887919299,-24.6823938950653,17.6881513516262,-0.813145673525518,628.79340383818,216.794065421385,244.711316955513,-24.3282168451824,1835.33407540568,-303.770079113737,179.319716345101,1.53561291569899,796.319938935411,-38.2808868686549,579.440626100824,-66.3343980218611
7.69199019698983,-0.465275261169369,27.9259167275449,5.6293111356872,17.664983627622,-5.06497205012207,517.167084711679,11.9557936152552,891.333017257504,-38.7171255317784,0.545145514421774,3.46408250375782,101.532164561181,-11.6485749439482,117.669545456914,-28.7801789470727,18.7695270935729,-0.773529654646814,640.857691113501,219.349370485664,250.453051837258,-25.4196271983179,1879.1127036595,-321.411952740896,183.814185402742,0.168167736335566,804.656060639543,-37.4416050068818,598.417568614943,-70.3937482288945
-1.66821423922624,4.94962342272556,31.7634006326873,2.48658967426225,5.9060455074689,1.71877479195327,506.91977742538,2.54027994548903,857.539253612341,-32.7808260295239,6.75370149530934,-2.10872654017696,90.1394147528158,-4.05912710888298,115.664247095746,-25.8953593549743,17.7296673871832,-1.43638631929816,621.339966480072,214.06841744727,243.520432026925,-24.9015087233076,1807.41198757236,-296.423147002911,176.428331277821,1.97312291542318,787.358021799107,-34.7176716778346,567.858039422933,-64.9800239263962
2.12623620459343,0.6775014981053,25.738925132988,7.8200428185782,2.17947643611739,1.65292642570112,512.882711859608,2.07442891698577,864.910075467625,-35.5575411304198,1.60603220803192,1.5241243945917,100.212814298086,-17.7373840795166,111.895428714457,-24.5131130091424,26.4349294244143,-6.72992926272683,628.827682420039,216.271018780188,243.503185082668,-24.0336719330856,1838.49514559037,-309.085887975615,178.319448081245,1.33202411758118,793.040941952146,-38.3950281467547,575.260955572019,-65.5833055634775
3.89628419349849,1.33639283782957,34.7302489928564,2.26362813499322,7.88338260148831,1.00352564809705,510.648995260313,13.9227192834772,883.104855845422,-37.3968896579844,3.49060760600601,-0.768489190266298,99.5106799685261,-13.402046227403,101.556877462292,-17.575901366619,26.0692436929849,-4.17155588384762,639.107883918888,218.666543641792,248.18287182261,-25.1312844309872,1864.21303025292,-313.122574750306,181.663826199338,0.59162958706424,801.228617114634,-37.1222757157093,594.10783883205,-68.8849103162912
4.80306131548485,0.693481356712468,34.7348285147802,-2.28847769315415,6.5213591591028,0.439548994104041,511.500569139611,3.90252811612312,847.728480065696,-30.457363921249,3.96465865638065,0.167398151638002,106.631624278447,-18.4754072645854,119.793388699647,-28.8597159493169,19.9262609102586,-2.40802322163548,613.971078500807,215.202780867707,237.454713006935,-21.4906718009442,1803.34153323719,-294.08198230452,174.948055808713,2.35283504473679,782.948411713517,-34.8967259968886,561.371339611952,-63.2238105272366
3.7953659204831,0.407254342534079,42.7494604580383,-2.96801355257901,6.43025635719389,1.82142673323539,486.876038063057,15.7184187300623,854.812390121182,-32.2701681222276,6.59224782469249,-1.00062678846049,108.562361558872,-20.5661388975138,106.734099917482,-20.314431322713,18.948038888688,1.19247338385023,622.305950287071,215.274237490315,239.566217034812,-23.7568740820901,1833.69710925854,-307.627366422318,176.06740473609,1.69259784140888,786.047591914023,-34.4740257087158,573.290148207904,-66.0990969814442
4.51337892088708,-1.07623790250724,39.3974248976811,-4.92843105618662,0.578641693568562,4.57056679115563,507.561886802869,6.61864759531874,877.89712677376,-35.8833501627353,1.7825242468432,1.66421552310288,95.1337037606372,-11.6228895070484,111.748130300246,-25.9903100187962,14.8556496822601,0.82847574082338,636.043942795447,215.603949971757,245.884007816514,-25.6353944836057,1854.04228598337,-305.55175115116,179.331853530302,1.23764352470107,798.979551276311,-37.8057922198333,591.696901720849,-69.3850564685631
2.41017559446156,3.50786087113278,32.6316357194686,2.17387083418901,4.31571517650735,0.129760095830956,496.734858757348,12.2554897264507,850.064393838583,-33.0232344193236,-1.18735482915327,3.7411059984999,98.426775302854,-15.4998990101532,108.666287172748,-22.5194958967187,23.9676577215947,-2.74880971326986,611.452084996641,214.735033089141,238.494669787173,-23.4221032439885,1805.48149953303,-303.615025075771,175.524755722578,0.64489588488806,784.778772575666,-34.3693178129943,561.351586256682,-63.3626982974331
0.71007410440005,0.315025476818301,33.733896698381,0.157634758750169,7.34139817691544,-0.958748913142587,502.555625749648,5.50028308545213,849.302388642986,-30.2293387980667,4.55583634698944,0.177634730794322,97.8210383345443,-14.585035619268,104.480560863829,-18.8486321881923,29.3958086577194,-9.44695636258875,617.989931966913,215.241915971769,237.395180421862,-22.6584675087422,1823.5873568918,-303.437327861832,175.128394566356,1.79602354267114,785.918726242025,-36.522343233721,567.830524466109,-63.2212610840635
3.85240064553005,2.43357410854567,34.9646628929136,-2.39750127588358,7.11318454874854,0.937564201842564,513.377423378875,3.89239496781499,873.178537581598,-34.5590396072039,6.73156634569209,-0.81318009620909,103.88342720537,-21.2497960014164,100.063170684223,-19.0142454788228,25.1403811484717,-5.11164728306322,632.815051956821,216.226524204483,241.864207146952,-23.736090675572,1840.76888679448,-306.203611881437,178.167961020678,0.0603839809854316,794.180912225976,-36.960825807901,588.542563186243,-68.0956778682154
1.88538410271895,4.21358115523273,23.707423669125,5.46050342481682,10.2562625937402,-1.78225822252522,500.317466720036,11.8982276610478,848.257945486723,-31.1767050286542,1.46773572430235,1.08701297165316,95.7340712287444,-10.6493781290815,110.272911937939,-22.550202975318,21.1150242985193,-6.65034658396904,612.396715835356,213.961075322912,235.075992203123,-22.0116549293829,1795.69706118726,-303.972117113809,172.09064603795,3.0875922788642,784.310891718752,-36.4182975069943,562.759876268781,-63.1321610149452
6.56540751380973,-1.66021521366755,38.1471341425263,-3.81832515401225,2.33885882886101,0.474589518195743,489.149734314797,19.2765194156338,851.640441443828,-31.2247540443429,7.41286395176838,-1.43725543860704,83.6774948032702,-5.60392637142806,106.751274341089,-24.289264271143,12.7340103254242,-1.93217516179053,617.90615941153,217.035536121778,236.480962155152,-22.3781428942569,1819.84493546807,-305.309650425069,173.673456492203,1.9231368021698,782.147894262332,-34.6687047585152,572.87663107924,-66.2056826669922
-0.260643091948072,3.63488778478294,39.9900073205313,-1.57165692315507,2.59209036739081,-0.49770089518693,500.658208470399,16.176728746279,873.32447295151,-36.2678281772138,1.071847453335,1.22890968751083,96.5261465939752,-13.5389055273147,106.304746023904,-24.3374318954074,19.8372130240603,-3.5870012030807,631.653837965182,217.482967478306,240.07843065704,-22.4569168680449,1845.78849342423,-314.857168347078,176.68497590039,1.41825482054508,796.340086922081,-38.7893237060507,591.89132572959,-69.2960767898169
3.57976655466616,-0.440767266834657,23.4651081894365,8.43421544731044,11.9568378776808,-1.20481824985687,488.779641176086,16.985164106471,848.281039721604,-30.4569213885629,1.79967931930198,1.18504898827809,92.7343287937723,-7.42167559569294,107.397147922461,-26.0785610704011,19.2919113589384,-1.91758422006481,612.252184158401,213.595919054416,235.752883501926,-21.9900687714936,1788.82818210518,-296.892301244935,172.211624560053,2.18950116847814,777.335844659685,-35.0730863121059,554.955744483816,-60.4559556894079
4.06049312174238,0.389579416957974,27.2085017529344,3.43072374473469,14.6061973743126,-3.59694661133262,497.324833568156,8.12059147429605,845.042090924836,-28.9186385084351,-0.0867090423079426,3.23443424286087,100.741868788114,-16.4455853615795,106.636475003826,-23.9068571351304,12.7775785900626,5.72106198314635,610.539586077257,217.257772601138,234.05126364836,-21.9409758218818,1809.19156953138,-301.886814241991,169.603032147627,4.45116982221295,775.903039937036,-33.6358071401658,565.407260646394,-62.5350140326103
5.60667861061545,-0.053505876618028,30.7917567868985,3.03598950946782,6.75522196052486,2.63870916425272,510.616107704267,0.468299311548849,864.559927519307,-32.7200548126048,6.19387874299076,-0.682922095898302,109.084211327749,-20.8915190303129,105.313168994765,-17.8766913513661,18.1632865070041,-2.41923111912395,629.079867581131,215.437833617168,239.244172901879,-22.5966864755269,1813.33950726156,-296.307693401434,174.993015123017,1.9408950506481,786.198304122177,-36.39491597846,587.782793871637,-68.8747280778404
4.51605645592284,-0.405445062496646,26.4762659540268,5.06506606291546,3.43838963915437,2.29102441517555,497.728949888944,11.3349614563014,858.510679666136,-32.7866743866295,1.83185767811606,-0.180789216964848,98.5410981172129,-12.3362486522857,97.4851999137561,-18.4722056510307,19.3031537047672,-1.79481582600002,608.03328379976,215.781032847993,234.775354549674,-22.4388184319832,1774.25215301607,-290.538587128749,170.23258658622,1.85246408745555,770.5535008419,-31.3556693016424,561.764320039234,-64.3256574790668
3.50939401388353,-0.340143060744783,31.9277751621255,2.33231500939337,-0.164824885667449,3.61902100617811,498.740168367315,9.46053909472273,848.132673579362,-31.3439472103914,2.56094850349047,2.5137812510719,104.116074796499,-22.1547371714488,100.39804425833,-20.9861640384718,19.5606390639091,-3.23314563718446,607.033685149945,215.634466185982,231.874138390007,-21.7873062410698,1784.34892494271,-305.664385960664,169.728064614384,2.7494188799877,771.19638658004,-32.9878762804765,563.680290365586,-62.2929192744044
-0.65227546161866,4.01716345730122,37.8462030827486,1.700050573419,3.59859976845059,3.97005419235862,508.77826416053,0.755505255947719,864.105920737831,-35.0041623227874,4.07702078670159,1.35875226375836,108.560635735929,-20.7857798940402,107.018449046759,-19.6732101859012,25.0561500732852,-4.49454777232352,622.740116727699,217.909485825293,236.829675907846,-22.266276431279,1824.76819005393,-303.232999166626,171.730206649404,2.75724433597375,782.378688587999,-34.0401622069968,585.471737177426,-66.6270453140971
1.22999221062299,1.34512197949314,29.893038419793,6.68344543094964,6.60712099081544,2.80412028022008,508.973181114177,12.488781133668,867.848342706971,-33.2780792591184,0.408450117365492,2.79377386262637,97.3233050374212,-15.0315052920105,105.524542793605,-21.8583507004905,18.3272272015428,0.724522443511489,609.846903035245,217.374740015913,234.380290576654,-22.0429416846153,1788.42135278178,-295.330070101007,170.358076329016,2.62037454224746,772.129318475758,-31.5327349292366,559.358206972527,-61.8151358050767
5.41350897372269,0.0323177661195379,26.4141822985034,1.73500072515271,2.6669565035145,2.55904214977881,493.050020561591,12.9709726915987,851.240827431811,-31.393602213462,0.113390881083298,2.76572386542861,105.027695063554,-17.719477183878,113.185927918666,-28.8157402520486,24.3918955782858,-7.0902069040673,608.959992015611,216.326610483303,231.851945944784,-21.2731588282321,1779.76418185098,-290.094868094852,168.913109764812,2.76562436621479,770.848430093053,-32.7390978872636,564.257277000091,-62.7896193379428
-0.430826759611761,4.269670649299,30.306873970733,2.54362890954637,6.04065546636613,-1.19589082161605,491.529660390916,10.0448448406114,861.955812932058,-33.8219014875072,5.43454817592341,0.451700868025843,98.8690673470686,-12.9427493780241,110.257822374977,-19.3132593342311,24.917934365269,-7.98755837241847,620.217480053428,217.880447719319,235.880337122526,-22.6205075973447,1823.31503677703,-308.218662855316,171.573413589491,3.45824308951482,780.509199523713,-35.4390249279165,587.720848173045,-70.0116378688662
-0.410779383860719,3.28537109434522,34.6494041657777,4.49362416766609,4.81926427028581,3.20493064891342,514.764243707935,5.06552795061346,873.379042543178,-34.5006113868165,-0.578043538232486,3.55539348256198,96.3424785859744,-11.8122550511259,103.38827889354,-21.0936880293117,20.1731059613412,-3.92065150894082,614.206927460093,213.894583355355,234.630823503257,-21.3539885396043,1790.79564044029,-297.68968132577,170.654475546551,1.77699586938518,773.430419822343,-32.8865764388686,562.070709552058,-62.4456455409356
1.37679014518882,0.706916801960379,23.9958775506106,7.46532391797111,9.51933335299613,0.378393787868834,498.309223733642,8.26072374998763,855.978853733837,-33.6241420008918,0.111903769839575,1.34289922823675,90.2024045390541,-10.9854761145128,113.098220972314,-25.8066794038531,23.767995244232,-5.1435560417091,615.456363491952,213.898833086991,233.587319109911,-21.2816589515394,1797.87803862625,-299.777371828801,168.775911952628,3.2230157045767,771.680415556995,-31.3593790863702,567.100988015782,-63.6942837652436
1.07068520303684,3.88120956863671,30.0912935193086,1.31128581928242,6.57865225949137,2.24333955262585,497.74890338742,11.9409962359324,863.986433836963,-32.1655858967293,3.08245590123628,3.18004811325747,106.138824307351,-16.113446993934,107.895338726943,-22.0429582683689,15.3171879075589,0.0347944913179394,622.307651870239,218.130902405831,237.755428182057,-21.914029083946,1826.49741424929,-303.258811742814,170.616652207911,3.93176571211417,781.859494499897,-34.6623170804542,588.950159845369,-68.375727804328
5.90334641245033,0.11865083540071,29.0822412998074,3.53976652641061,2.91915392428984,3.26616199719429,513.230631506183,7.87542510130644,883.074857249929,-36.019475180131,-0.618702141088624,4.88672562009034,107.111079574148,-22.508137830441,114.302751219354,-31.6735530804473,22.5409794243537,-2.00271857212502,618.94156841161,216.051880574957,238.334185691981,-22.983446423975,1808.77133519877,-306.78396873652,169.941785632544,2.62272115163113,774.587695955216,-34.0069117663742,565.759612050734,-63.0978904220689
4.02215444149105,1.82936340842966,28.4826534039796,2.42382414450336,7.40273983598496,2.33799612588685,508.071736513365,6.00291150455279,853.726239107244,-31.2842478332682,2.00605434396885,3.32618929566368,94.8658070095845,-14.6796743561689,101.487588949916,-20.5501970869448,22.8327360500233,-6.67036732986899,611.936510607885,215.007067992516,232.459321988585,-20.6723332173544,1775.17675850121,-293.934890678056,166.735712744526,3.69843059206918,771.149328329398,-33.035197743976,568.324716572038,-63.7937865219761
1.0166739879779,4.58762192954457,31.9859450205859,2.18621102660667,3.43762287969001,1.33797255866386,492.130191316736,10.7630067544088,860.273384946227,-31.9929899692803,1.37731280797331,1.36327275319196,101.561228019397,-15.3911098611721,109.504915346021,-26.645911968255,18.6846145133932,0.351493229058903,619.25066617181,218.171074176111,237.203459065306,-22.5758238441152,1815.66206405002,-303.897776697783,170.545003780413,2.18034761103416,776.552147486048,-31.4296839578289,584.592060418345,-64.9879840829703
2.77511007924151,2.53480767761408,38.0521433480318,1.7926317888308,6.52011325768704,1.44985015119899,495.536844618818,21.4064099153445,881.337947311897,-34.5410479132502,3.01516964219156,1.75990310024719,101.600107038,-14.6949969481735,109.930743385644,-24.2162935487169,19.5453200418027,-2.48351601521257,627.678227658873,216.559537548955,239.240145318338,-23.07091024985,1813.07393151686,-303.000016985449,170.113974290223,2.96503273839229,775.941777423969,-32.8572779866432,570.224644166281,-63.7092729376773
3.50511106913761,3.60559757143145,21.8979602306856,8.32526420843734,3.88905187754926,2.60062726398587,482.702379669975,15.10054181764,845.948427940573,-30.4309482917841,2.66360317192468,0.539879810235722,95.0947086637746,-13.8191080626114,117.703952026969,-30.9389223733079,10.6780817334766,2.45492316588068,602.688677770504,217.565578487637,230.780962668797,-20.8865082421011,1785.16258522787,-293.67825609344,165.872276538689,3.47624426389159,761.379979015557,-30.2385112930749,566.491682583612,-63.1322297768085
2.02181849754651,2.92382441391913,31.4207677081867,1.8623979779184,-0.768012354528621,6.82876627980035,481.421383767018,17.0599924177831,853.198943546948,-32.316571887006,-1.84683554363348,4.02438437279454,88.8783097529717,-11.125960746891,113.284571524569,-25.0811439294972,13.8757572839336,0.426258228754717,613.727144542966,216.082678450466,231.880847373176,-20.9217165154083,1785.5695787255,-292.218278587532,166.389813119413,4.42980855343075,769.530502472536,-31.7647731441396,584.149051559499,-68.4091867330829
2.30406837246987,1.99343093454958,32.212030534519,1.4220317422839,10.8493829239049,-0.874701238297475,487.346580440391,18.3891282488802,873.278056633308,-33.0583330145225,6.87203483661355,-0.628637523901723,103.731898740368,-18.3266762005646,104.889187677033,-22.6579341903363,20.4481347406781,0.126923489919332,623.372978735635,219.135075054947,236.555657133695,-21.8691133638811,1801.28820153373,-297.118668016529,170.744570396895,2.2040125662029,773.64948938785,-31.774421970368,583.249542581459,-65.5357732972066
7.27378564932018,-0.540365821440385,30.0906632930217,7.05926453024012,8.11591134441543,2.41119038663968,485.661115384529,3.65407065416141,840.696139475665,-29.1023830966764,1.8489291483529,1.38657306147294,102.941845784958,-16.437109074697,103.727871153051,-23.5582496259149,13.6874327747661,-4.33163953593432,604.616361008256,215.13247842924,229.830825661852,-20.8016910299617,1769.05822296301,-289.09377970972,164.883661128807,3.49980122662616,756.876178200222,-28.5610130472267,564.243201547177,-62.2664281383217
1.32849324109219,2.95871197407981,34.3068233789378,-3.50668952406487,4.78695457612957,0.504486601780229,495.735444837483,5.64482193673153,846.890870153862,-30.7365636005882,9.16430149641055,-1.45854554768948,94.5122478077361,-15.8842545987685,104.862377312775,-22.5089239190015,23.7410072359978,-4.89973012509481,610.036093267667,215.310835734172,230.765391716889,-20.927436004771,1784.43024859569,-293.206058604633,165.79097707621,4.07494381653028,767.416849532867,-32.4538666130272,579.131203463371,-66.0226390436161
2.42134098698916,0.373623805966539,25.3687502791093,9.11694278378221,9.52693877403364,-1.35412554977962,503.50214112945,1.58312286789326,867.105810618259,-33.135407593669,4.6235848534993,-1.03496801214379,100.572841915407,-19.9749446766398,109.64105814107,-26.9632179926756,22.3522281722604,-5.84898971744301,625.427155450919,216.862240540064,237.135472672666,-22.0469832957565,1829.10867683968,-305.925561249699,169.653337909353,3.01325307260568,773.590860721133,-30.5845793778507,588.899027897836,-68.8592335856666
0.839878684408279,1.00349210933884,30.4098856454429,2.34776014447594,7.75368454782778,-2.1150334072859,480.342972910327,13.5475907897691,839.579164999485,-28.4190079267215,2.4796738365181,4.11742375516401,92.0695273995815,-12.9676648135034,99.9205069423715,-19.2871703555104,20.1194265572263,-4.05494466022737,600.44274376785,217.872091404329,230.694335562822,-21.5505747247229,1773.51449992869,-289.111573078057,163.573466515111,3.87478931480755,758.204014632264,-29.8347255550498,569.378549591024,-63.8197179684732
1.22381931606161,4.41168780157593,21.4695421004622,6.80019422455357,7.37953409724433,-0.31554147514561,484.088166978851,11.5229313852421,847.34146606899,-31.5995576889924,3.05438168415284,1.19568217661472,97.7533955693262,-18.0265997759157,102.073925481588,-24.5295674268892,20.5654867276206,-2.98144205736338,612.079744843352,215.767702880061,230.7167289516,-20.3289955883116,1797.38023219802,-297.4972331711,165.158062817189,3.51523843686804,768.892546903408,-32.8591074844848,578.645714297484,-64.4442394826569
-1.30576088379462,3.65717179686723,24.8671150576826,6.32183188258793,9.30236464953643,0.14530644332695,493.222062977745,14.8298319419598,872.755047701458,-36.1167265776587,3.41062883547719,1.49642439697787,101.974424076652,-19.5758483596995,111.195868398215,-21.9672680012661,18.7325890910585,-5.12140493792633,622.603260939692,216.971526481746,236.812367350822,-22.3902775451745,1828.92688696808,-308.795967998776,167.130083995168,3.21808503944251,766.572785112521,-29.5398167833501,576.28773647234,-64.8516299932606
2.67236821782927,2.82544594494987,25.6617762422313,3.38705838427705,11.4551190165991,-1.11349243786719,481.618523969799,7.73584542137904,838.443474509957,-27.9771817115532,5.59434721869666,0.595980659853191,103.833397551892,-18.3168796775356,104.712903170117,-25.9704415827119,16.1454740157427,-1.64244264122846,602.846880828131,216.190894460996,229.943884005134,-21.2347648922735,1777.35809074264,-295.409809993201,162.600217620382,3.59706382478451,758.014702411653,-28.2191129408171,568.983725591936,-63.9899579501358
2.8215229254667,0.181397999584686,27.012970143624,1.53931588042473,-3.14188935888448,7.36886628392061,483.502432308242,10.7736872118147,846.227258357333,-29.6227167371186,-1.19447392759294,4.78731098567854,96.2957654409511,-19.0673226801325,106.539980514422,-21.9913812610447,21.6677561234093,-4.81310255550614,610.077941219793,216.637392763395,232.04460602272,-21.7197189592423,1784.12967355243,-293.387081408752,164.628166048028,3.57048604197257,760.840841489566,-28.9211969366176,580.380957690437,-64.8919534576705
7.91221205575371,-1.64515925720375,35.9993952782149,-0.215733553284065,9.78519949014725,-0.0713394314559325,505.071830950807,0.622267628010663,870.824360476578,-35.5387578946376,6.06592948703368,-1.31150360276216,94.8643794967529,-14.7404777473683,105.929892094672,-22.4869682446477,20.9946522834016,-5.31353824647554,621.384244070249,215.487319023608,236.279325440147,-21.0570570632063,1823.48952899474,-311.022527218122,165.276544609009,3.37321582866624,770.232346913343,-32.4674655162373,578.872120129639,-68.2959660988323
2.49237775834585,-0.4865866492656,30.5707356211547,0.548508336298997,5.7072462449783,1.31801133219877,483.042245620048,10.7366574524569,836.939810670106,-28.8222078277188,0.361039652652056,1.84227251973608,91.518094928684,-9.67888840683012,102.434195627544,-21.1630206040917,24.9169360775126,-6.59640025225454,598.101067684971,213.773450461933,228.914383965628,-20.1599639125026,1759.63173775349,-288.949713854239,160.011577848998,3.74536323636977,754.563639195819,-31.1281848980089,563.979753859142,-62.7339005263715
4.66628355628947,-1.57219614194669,28.4544916268755,1.94376784331701,7.99710472148284,-0.433383301311145,462.839960049858,23.1319725497011,840.341674496933,-28.9784502228761,1.29685702457234,0.958163949508548,95.6363174925422,-17.3170780952644,113.194737312962,-28.5986712893036,23.5649297061623,-3.63881119035872,604.850576037616,213.901443020984,227.675680110477,-19.7247532612025,1786.71800366043,-293.796825029375,161.773973798826,4.56830987767418,756.252545201733,-29.7922224973582,577.630612117636,-66.1848628997461
9.93540595964532,-2.97187480361066,27.1762709845008,5.69229174929589,7.11898379434988,-1.78623460489206,494.935642859548,8.45046972060146,866.614725672635,-35.1472977886675,3.97703319206683,1.29246892777304,85.2342728775724,-10.1090530813648,106.832936503627,-27.9449768929387,20.1342174883294,-4.56863308437285,619.033148972261,215.139087789874,235.000295789962,-22.0241021419123,1806.83215595245,-295.470010848445,164.946540739603,2.93743713259609,764.676248659305,-32.1676446793626,582.662992624669,-67.6671674139919
5.60734584154869,-1.11042046890584,29.5121966423745,2.71771605245582,8.79737523831894,1.88530628373538,475.929792584438,13.2627758098222,827.647718952712,-26.7621262867407,6.05518301599727,0.178099757730806,90.8567881248631,-10.6539847770977,102.432759896638,-22.1046715373091,21.7724265328803,-6.62932886307837,590.849438641273,213.896382661082,226.505445052224,-19.7910190626726,1739.52414948128,-282.824000496973,159.179537477602,3.84331031934346,747.981513568412,-28.2508017548492,560.077768274119,-61.6141446500293
5.74735045984892,-1.26121752421011,33.965928626884,1.869590626712,5.855697540614,0.725381248033781,465.811352550241,19.6990957405036,836.321272111893,-29.0409937518464,1.47289859660087,3.0166228951982,100.737109388612,-16.1722438552281,95.3627534819559,-20.8639871169192,24.8466903742157,-6.13324047909726,601.676419735652,213.41225681052,227.187900523067,-20.02618594445,1760.71486999663,-282.354641733474,161.092156122623,4.0311109888868,752.342868392959,-28.8396073401888,569.941916076666,-63.5104974680542
2.81754262722323,0.847220758209882,26.5049404988197,6.61000584343368,10.4527692509617,-2.79002131143138,470.199228942901,21.7653286550577,857.031520614336,-32.2117221787196,2.12632902627612,2.98193231334745,97.8952634067347,-17.548171226939,106.588283107066,-25.8149176555939,25.1220467719781,-5.3570519394012,613.306531959636,217.404663187259,234.793267480761,-21.6201067836208,1815.61058560153,-298.122107442916,165.328792736811,3.10997867667273,763.979241694773,-31.3452223228481,592.680051048643,-69.5483405366794
-0.803849356143817,3.49096753459088,24.4920422130948,4.29793793171011,1.39825180051862,3.30814595068816,468.414756133143,14.1659652053266,823.098641101572,-26.3879167756234,-0.648064856945732,2.02577706639902,90.042625268888,-14.7072515316857,100.444972796527,-23.0760337824165,21.7920199072663,-2.07107453851138,591.953814230968,214.131632000849,226.403244820794,-19.4725135290175,1743.41612391056,-277.007319361685,157.840477659783,4.86524934505567,744.540303869579,-24.7525307337524,564.192442887468,-64.4626763429371
3.44205202169588,-0.278113580663833,28.6770046620598,5.77408037432446,12.5421871053425,-2.68376644638734,474.964967035811,10.0150697788163,832.63324551342,-27.3159394471573,6.0519316930451,-1.41518044957801,94.487787185702,-11.7698627101778,93.5389232968986,-18.1459895322702,19.6286025561133,-2.40043932716925,597.007728855012,216.343127068303,227.974395521429,-19.6115123490623,1767.00716681081,-299.404413129407,160.699436384523,4.02426499916423,750.016488964325,-28.1057051002103,574.006406651039,-66.7072645943845
-0.122424131522066,3.47267486134668,36.9675318715888,-1.38392878964187,8.31486824813414,0.941665448099762,479.742607457166,15.810763436713,854.620521510801,-32.6776687429148,0.143293036738949,3.12100337587519,97.4424703154579,-17.629797103433,102.133797547345,-19.2085999449927,18.7946455780675,-2.53113092500978,612.479871871542,216.469340498718,231.587429564188,-20.4582097915297,1787.49706775366,-292.095243765447,162.702406239771,4.14750948107912,763.338505507373,-30.1469020557804,591.085170333589,-68.6577103828459
-0.187483774955488,3.76971721859453,30.1153789872238,3.02282598831591,5.20658277156896,0.825201883606027,471.859673792575,13.1520496422585,825.772138548183,-26.7026003235351,-0.980555755509753,3.52492769715487,98.4063594241168,-11.3715118549526,88.1846254200904,-18.9390931765933,11.9339335038028,1.34362595309059,592.492442783416,214.390755201935,226.633229106841,-20.0662038765699,1745.64758967928,-290.070127276727,158.137024888598,4.80403042045125,749.576961364594,-28.7238664802448,565.019323867523,-62.1780791954716
-1.37327223311443,4.48672148192593,35.297583576792,-1.09854563217717,-2.56911015867007,6.03426980917429,484.736323506947,7.22652408258477,830.713606887321,-26.6999170430896,1.58048863118989,0.674173389133242,90.2608934597659,-10.6172908283893,100.555958821728,-20.2543191332135,22.6434834710977,-5.55958025697336,601.594830248814,213.910429461074,227.946055859177,-19.8041603491976,1772.4230067002,-293.208661679696,159.903353548444,4.1203326028184,755.431588698962,-30.3191017652347,580.160685672352,-67.3210546889893
4.51988824091915,0.0527664376448138,28.9677196785998,2.04182771461841,5.38822768893029,1.69951787941056,476.528740331741,15.0130433146271,856.368246773175,-31.9471506177245,6.2756111119236,1.74947088906932,90.6865972357742,-12.0321861615019,106.19066984449,-24.8372348003852,22.0437147125102,-5.39076008503441,612.957750267592,217.059039706211,234.826255708165,-21.6756831606179,1813.23091454459,-301.628204891943,162.718924429165,4.17680556816443,765.429506833534,-31.4826042308425,587.781670375892,-66.7757365613841
0.244108552135036,3.70041730621886,32.7660829144239,3.76664437251794,0.694904301981184,4.37262761199024,461.496431386283,19.6617306951962,822.494198951727,-24.8276441382178,2.76606015152853,-0.448753986984207,100.688656923808,-20.9824637235722,100.748306692553,-16.946696232851,28.8376648129957,-9.87732457424004,589.654845120778,216.683521683473,228.711961604522,-21.3047786933196,1750.49190286411,-280.505021873154,156.671528780006,4.73022113055578,745.05429165464,-26.8681948049005,565.828442205362,-62.2184702795211
7.07681021543645,-1.26125446216679,29.9671069870557,2.29649784436601,2.49637757252079,5.04002012046756,474.498629940067,13.2879467416527,835.435083099469,-28.5398463436803,2.56387401253553,0.269342746389769,93.1990750010081,-11.1278988382848,99.3528981213081,-21.2984394233008,19.6017413003246,-1.85264101687853,598.774053174499,215.85764935264,228.088601365375,-20.7358686139189,1767.63391092772,-286.839234634585,157.724232388992,4.47031142409229,753.439485187505,-29.5237032763157,579.681668395889,-65.7517447153432
0.599495993713052,3.50357652138482,29.6154910480048,3.36223525944827,6.46132160932358,5.46142645928642,466.164323756836,23.8007926145287,855.881297046015,-30.4728149377114,-3.29449041276097,6.64893482633152,99.4651632868288,-17.0713004039236,104.149201904491,-29.5409910658228,20.0619327905109,-6.71837435893126,615.088028273683,214.072203923801,234.764520018073,-22.3961712379776,1801.77671378525,-294.122190298128,163.480246199337,3.31285856039706,761.085591994797,-29.1525568720222,591.855664410894,-68.4234156414592
1.45317714162614,2.48633692037878,35.832451573582,0.280985207490548,5.97626697427485,-0.3232170918976,463.067207539682,17.8834580488661,820.156330667656,-25.1015140662239,1.17363321626581,1.9690444215644,87.3707417823358,-9.48123934888869,99.227256831396,-22.9306223951993,24.576965134084,-6.3289749134815,585.811381280334,213.08186376125,224.609012911419,-19.479014079939,1731.65889152926,-283.280855325373,155.3077359002,5.01821480606435,743.405954910816,-28.3770600429073,566.326844177561,-63.5385031926886
-1.27122877555151,4.63778140857833,34.4469140012629,-2.09354605926889,4.48035244454847,3.63123273997786,466.631329882999,6.18529064462661,823.932989871979,-26.6455695030341,2.89546445218223,1.15093311557918,91.5782736916774,-16.4842007692147,94.7558239385001,-15.3170678442769,15.3242757048751,-1.64353283541197,591.5161334755,213.54680692416,225.917774664146,-20.1727465180253,1731.8991403721,-286.001960578428,156.679327208202,4.35234464430935,746.501227276627,-29.2165458800368,577.171245323213,-67.9108341003765
6.31534817527341,0.000908492443645532,31.621838174605,0.0648774138727431,9.59579727556089,-0.204319701301407,480.16974235763,15.3898629850999,842.16353605775,-26.7249170042205,-1.09745319626073,3.51408177235764,96.6355557904174,-14.8700443921843,99.8889248487728,-23.5667736288911,22.7954774974929,-7.51631076525965,605.525120251054,217.361211549031,229.781435196509,-20.7344528399563,1789.22237595532,-294.634835253619,160.526245803634,3.74315338696091,757.920063460398,-30.2562445883475,594.592587791327,-69.0307832409594
7.50576069001059,0.673501321349192,39.3901434607161,-3.11006906186679,0.679191565986358,1.63910279198826,452.730545846644,18.5297519063036,808.843849651908,-22.7009501124631,3.89300677576953,1.15961383219905,95.855799428152,-19.0681387616662,98.1014648137386,-23.7140939325191,9.55686964609579,2.43412823030854,576.169343930859,214.933563940494,223.284422193908,-19.4786855363602,1714.18100600606,-281.361098798172,153.417286677236,5.27931722389391,738.574616246161,-25.9873814307074,565.898873908312,-65.3298431671231
6.36554674962181,-1.63610741829904,22.8061347578565,6.34646691339024,3.90440917522331,3.88284254358031,446.731981935177,22.2766681091982,815.415595498452,-24.7781151056346,-3.70697507389464,7.55729064934656,91.52356489444,-12.2342635456009,95.9728628095352,-18.2752341616196,18.4517242300828,-1.53510266498603,580.535187477843,217.008609521116,224.515946593312,-19.5489817615946,1727.46406576273,-285.262827066861,155.588022815508,4.66868188166984,744.0935607249,-27.7047957696873,571.019379765632,-63.9477102957756
7.64098124013007,-0.0967593174327578,30.1244318024656,1.67899572876862,2.11490398393733,3.24160120197672,470.33137150745,15.9116305278859,833.378485373203,-26.9603097649314,0.802873529964313,2.29979851828354,91.6256532969245,-14.1244959701461,87.7700450835106,-13.8042536336517,19.9665639075509,-5.41639835632709,599.665242293668,215.29315760312,230.228347497012,-20.8345730138148,1765.90734632525,-284.520325367849,157.935729183106,5.04957690485548,754.684132643338,-28.9652504254651,589.935230215145,-67.3477313221917
11.7903187272553,-4.30583381533778,35.0268621539195,-0.195821463318223,8.5268725899264,-0.880926983596623,457.895456726393,15.0349365132743,805.569551055157,-22.2559719084777,0.2938724062942,1.96108444324472,84.5300846401165,-6.71904084700925,87.2583388727225,-11.4170071053072,16.8350766522636,-1.33316573339378,573.216832390519,214.572109895541,223.505306553427,-19.4951800678762,1719.50565020659,-280.871476571191,153.959160378131,5.04343868795732,738.840711846765,-26.1944172366001,563.510527961336,-62.3955978697562
4.1042541580658,2.95304324410281,24.7861030328219,2.67030995813432,0.840269936684108,3.90821733352414,447.916023414346,23.5839299405945,810.933191306848,-24.0565149820225,-1.02908379861361,3.87208687516574,94.1665137834954,-13.7510128343065,97.193687082808,-20.160614268432,23.6988520716954,-5.24960655705317,582.485365712686,214.373520148896,224.707400064703,-19.8055316019665,1728.0135367185,-276.717309821369,154.067701427572,4.76899018611131,746.788533381635,-28.3651803215496,568.538236111176,-61.2274105686906
3.62799636764957,2.23046157592655,25.1096685931777,8.0325759909561,6.09772210762055,0.802082801764981,467.51372556735,11.4797827268661,835.318879011314,-26.3977034827704,3.6592805985231,0.816678167798891,87.4125911577639,-12.9750954362757,98.8760597070635,-25.5192046632151,19.1173665835422,-4.02581815239733,597.417600371149,215.974132789894,229.201958667022,-20.1579666232549,1767.43306122745,-289.60935541153,157.928963436556,4.48729454717094,755.404953657,-28.1114718412427,587.259224728488,-66.3058618485665
0.0129834470293409,2.14143724791234,27.4316747310359,6.22662096799824,4.5042146455616,1.34528083536817,456.903022925767,15.0585016897395,803.391787852193,-21.4443358786935,3.32945033821333,0.301016960415272,91.0922436090608,-13.172945174474,92.12081785404,-17.9920606859983,22.7146449032998,-0.40249845247995,570.846737605641,216.220664122852,224.165255126997,-18.8159722697159,1730.03550028887,-286.718578705813,153.519170753395,5.29058199917896,740.774783872366,-25.8330357087714,564.60894524504,-64.0729542045461
0.927934780198846,3.93676402886426,28.2936058632145,3.24002144398919,6.142268549145,0.528955392025953,456.619107341337,13.8567825886003,815.179467031923,-25.4539786717896,10.4948191248278,-2.50027708264188,92.7521214489028,-11.0299837780598,104.946439731157,-27.3891596565873,14.5867779835694,1.81606296017936,580.903591014652,216.630118922073,226.04404439086,-19.4188590977093,1745.23467745031,-285.719920822218,154.597521387399,5.3767095042988,748.603033032693,-26.8675484733496,571.13075020318,-62.7073378870888
8.83170393852577,1.33514125295398,24.0142104187119,4.39189813232195,4.24228149434356,-0.678125137717401,466.692214550402,13.9290176509082,839.770950540237,-29.2842741191753,7.9916641305186,-1.26142800560311,101.594718805822,-19.7566819935624,98.1136990729216,-23.0387326123331,16.301547036067,-1.57465219035796,597.871455071891,215.944938447796,232.278875809292,-20.4169486906908,1768.13394612668,-290.282327454661,156.163075477167,6.45488130922436,756.085334379979,-29.3105509403257,581.957421118355,-67.148096443499
-2.14096934144495,4.53901520437059,21.6915242931234,5.96610461992173,3.96777220618556,-0.590305712253172,452.680383095242,13.9422994264407,800.248451811403,-22.7550293517403,-2.75354365755051,6.1561266461479,96.2893084991534,-17.4606083777368,101.07754994211,-22.4784300631751,19.2311761898455,-2.78614378617473,569.560757971668,215.79421530503,223.538279260057,-18.6453476484243,1706.68591071823,-278.031233599513,152.285590260238,5.56766524244229,738.987639424615,-26.199350054288,558.645961540271,-60.3734266044679
0.735727823505561,1.40159309024066,22.8024062389745,6.38344324959262,-0.414657656295268,7.20704608121393,455.203868292054,13.0969241802201,805.641232777755,-21.9921231781359,5.36059838234461,-0.224814332617887,81.6283614173321,-7.49991362953525,106.427714225528,-23.6056082578938,21.6889199204855,-2.15414374336262,577.174096126016,215.436796132959,226.645582012067,-20.2628868667457,1735.08892721231,-287.188725791741,153.610877270954,5.47870573276955,746.57520416324,-28.4702713195804,574.818626313397,-65.2024214947532
5.52039398217857,-1.67993033816362,28.0517476412174,2.50999792020843,6.70185374691248,-0.334309129722278,466.146148052981,9.7446144978614,826.764706108895,-24.5289255772635,1.09505618444934,1.19739561379586,98.5445391564925,-15.2204828360804,100.315183063977,-19.5125269220704,21.8681880952757,-3.4659043403214,593.279131061656,218.26257101274,231.091543708499,-18.924859009103,1771.67266920186,-287.785788692712,157.810041172593,4.864584951856,757.491138974815,-27.3133654224587,585.206135717057,-66.6498836189667
16.6564581438223,-4.2974713338822,30.1482649016204,1.264797378954,5.67978599238772,-1.04624428168628,443.42500130494,16.8356212862979,791.044272786703,-19.058041763579,0.945175526952887,2.30494695443552,83.1670841907643,-10.8326793666465,96.2858032040187,-20.9643356979222,21.1568633000943,-1.29163423114774,565.054562688443,214.306786056246,224.662118120148,-19.2090069667231,1701.87028919308,-273.837032521848,151.70721879701,5.36760868734591,740.168237422548,-27.4060357685013,557.507374169948,-61.8782034551278
-1.28289409952833,3.45279680193742,24.3057119298334,3.56086143842759,10.8947716596159,-2.03381250588605,454.172332458999,19.3224419044092,798.812677257197,-20.7785349550385,1.38751950567462,0.819222880717529,98.589353075562,-17.8710905726208,100.259063037366,-22.1433960103014,23.2364732059787,-4.83165253345387,574.655327978144,213.912984589725,226.995020026409,-20.6773173079211,1713.88182982961,-275.416779059663,153.339229229824,5.10675650145686,741.792133364048,-26.472782432743,569.362194323681,-64.0911543960874
-0.576444714550766,1.92919424159731,18.8248635094144,6.94455945057774,2.71080697048346,3.52114629842167,466.567278235292,8.36849133207276,822.454944393834,-23.400800695246,2.93669982527512,1.80943477624467,94.8625212848265,-18.2279995914843,110.829278367443,-24.7059356523733,23.95198003223,-6.25047665615904,585.521861258869,220.23475650985,232.234880837744,-20.2337471746232,1761.56656092175,-286.202201301666,158.429854889973,4.06691607450473,756.943156132587,-28.5695060131024,588.187358562066,-67.0190420766526
3.73301914562043,1.02920206025153,31.6107838886688,0.339401758501109,6.55264491043866,-0.837848488196336,448.291194986038,15.9732279826105,797.007143156598,-21.036816989559,3.01221137814574,0.290129343547874,92.0380359883738,-13.2368424771881,100.082710250083,-24.156153274888,19.1022955116604,-4.69175211943803,564.692255327043,214.302639391373,226.709350882338,-20.1686498832549,1705.27466972414,-280.762684253274,151.874656997648,5.84772387133395,742.618294984781,-27.7259414880236,557.197732709859,-61.0640520275927
5.30748798712997,0.109074613479137,36.5077365747874,-4.16961161688169,0.0946307665462328,3.62821697109783,448.171610296571,17.664903641676,802.04693608547,-21.5715368959161,0.358625467983866,2.37077338809289,92.6309702652197,-10.8460325109671,100.768997361457,-21.0553185640565,23.5683930642931,-6.4489259926304,570.685828538349,215.366939499139,228.432030137293,-20.2823510760447,1738.2296445448,-294.692860917848,153.032228095935,5.88714430620173,746.391545123726,-27.4785185615697,567.438162589482,-63.7789437826135
