952.564268363381,163.804963192399,3.43895280830894,3.37130244885784,1.85935700658929,1.78588879310134,22.4758349360757,-3.95462097935311,265.141397596183,-16.2586053495231,15.586248062959,-2.06371749166797,96.8829838969131,0.172665456613937,295.740269379176,-49.1109924317336,113.694049226253,-21.4251041571404,209.109384012416,70.7453242522676,71.0494441199328,-2.1647827733701,187.802449176918,-32.0596537907234,146.341515383878,-3.22224035086328,59.2812801525366,-3.48076928017789,179.622673404166,-35.0240972540716
947.08549746219,162.332543269831,2.72927091335856,3.7553133768962,2.49437051805201,1.18030844261631,18.3284845866874,-0.947695057677888,285.112196665884,-29.4686946399663,5.41379321770142,5.63045527961979,112.242153635639,-14.7402086285999,294.063141037187,-47.4288139001874,117.126679758237,-27.2219159280605,228.609214396334,63.543600762032,79.5338669027445,-7.69106271225853,186.03074178074,-30.4037701061658,147.908986779998,-5.1103773302383,55.0325379104598,-2.65514202572812,188.610802455403,-33.6214763172241
948.187985842553,166.888683409466,3.37644981440471,0.414887564169039,5.96154271612973,-1.00488147505897,23.0474411409175,-3.47014975521093,271.752833378619,-19.6694059862491,7.15825849268478,5.41292615520134,107.515179073476,-10.0654272112291,300.224092429276,-45.1490842734347,119.33310346755,-25.8187455741621,221.301717730528,63.419825760336,71.8574489919724,-5.90124702219891,174.463028730126,-22.345071313948,141.123376668477,-1.42520583462229,59.6932319442872,-2.81650892348517,177.348677485628,-37.7954335895669
953.504334198537,156.677917926948,3.86525115224344,3.22194605323754,-1.45356067545532,3.34773800152734,15.8475323408197,0.252749678607416,275.423189049806,-30.814167146716,6.67754533599672,6.15452396020956,93.7146338691864,-2.91034933820105,292.519594183043,-47.9970869456347,113.399159302536,-22.0659414221896,218.299964190359,66.3684973930253,77.0133071326648,-4.65221817251879,176.567533891144,-30.6136424528912,140.460656397165,-1.48497428156431,57.6354914022379,-8.63339403412983,177.150492929416,-37.9420265720201
959.976465499196,156.503362060652,2.12412209554665,1.05732076388853,6.08226088511871,-0.302508948222667,21.3098771338119,-3.90150918073133,288.370111890062,-33.2189415685836,11.4066740542512,-0.777650541623273,109.040546068659,-7.40361491790092,299.795921894822,-52.0781563683653,111.105714022882,-17.4082170875894,219.273755386406,65.1955741882844,75.3164685813361,-7.15431793964784,177.570233190084,-20.542030468675,147.728769626858,-2.79735382193323,54.4782321653165,-1.01894401100555,184.576638764019,-42.6380709706098
947.918616255784,166.152057839516,7.44067090693805,-2.07418767804963,6.43768327952149,-1.28242988232433,18.8030963615896,-3.46264881029108,269.749834644144,-22.6338359270443,14.296088204524,-0.810286025123,110.639340481091,-13.2624750173897,297.795456383222,-50.8342883302045,107.855710720949,-18.2719091579587,211.239821177582,70.0941536282636,77.982601266828,-6.69564233608033,165.932599473481,-15.5003450985406,154.186665820001,-12.3406785639216,58.1851731380066,-5.18132438695838,187.144834352672,-43.1288278160845
932.741966405414,168.25617188826,8.43827403781942,-1.67358941673536,0.459396882227707,2.31160928125275,23.0724279019844,-5.3548199022854,270.572250290272,-30.6720727096684,21.4544782046884,-5.64138886466713,102.136922209837,-7.12161907547172,293.255410828701,-46.6114445772493,114.92647963163,-22.0848313508633,233.724803380252,58.085847054013,72.2577301913616,-2.74221649240098,173.160774231938,-22.0077490480331,137.957189801989,1.71322713610235,56.1302380298655,-2.23201112291415,188.049773457346,-37.4629400539595
934.929541159944,173.899963759014,4.03859690974823,1.01666407311775,3.08026354495216,0.375216443755001,11.6340064505304,-1.25413194681057,257.763632471222,-13.884456207237,12.3787403335979,-1.16687466657284,108.261791046343,-14.2733033799168,286.862173217184,-42.6607682420774,119.507828985553,-24.7340840352664,226.073379505082,66.2571103072405,75.8654999979369,-6.70123876429711,162.451902384741,-14.4947807240635,139.672202470842,2.16617891234468,58.2333328064217,-6.55095965109145,186.389419889069,-42.0377358136402
957.714857149296,161.66662261429,3.25456155742898,4.30595084853636,4.69599172148768,-0.341251426058295,20.9418301520394,-3.74649772151021,282.337355547765,-24.9885929761927,12.1447699947602,0.725185026718922,102.885453176754,-8.59549122771745,303.159223652427,-51.4822712464869,110.808317559079,-18.3455707075307,230.036940679745,57.5309203363015,67.210312596369,-0.770867803628912,174.182415528954,-24.0766415972718,137.593402903695,-2.21928310736036,57.113371985316,-5.07223498043589,178.281742531691,-38.7025983444242
950.067606409384,154.324723758102,5.68176846170034,-0.68651898928069,4.01376367870423,1.23138729152881,20.9586851909732,-5.6730736038597,275.385531835865,-30.7976366558826,16.4222332554538,-0.517131761530354,108.174151785952,-13.9971526226325,284.433118545569,-45.4135898498889,107.369416201928,-19.6648553334191,223.891793294145,61.2400539879449,67.8301744377344,-3.7483767504051,167.357988165524,-21.4487612738584,136.595128266933,0.551502749254922,59.7712952409689,-6.35347600840686,165.231784255189,-32.2550446805298
938.801980538196,166.047727600644,2.64494791053019,1.53264494213357,-0.779333063232581,5.64527550757913,25.7727182504729,-4.53426054650799,267.463917843301,-25.2542966355936,16.856661051772,0.425236452327377,103.363538791528,-14.5787556360121,296.530026091263,-48.3356380836083,114.163130966713,-21.1978806642833,219.302279091076,68.7952580275467,63.0781165885769,1.70935630369427,155.768116826861,-12.792575792513,145.563793782194,-3.22839797443568,57.5033454569932,-4.29908181997381,182.477488455632,-40.6199438623549
948.485997125461,165.572973787856,-0.613427592745283,5.32108679681177,1.06903681839352,1.31615672951511,10.8935810655345,2.21088195109155,267.923801726058,-21.6875633493241,15.1294022651912,-2.47214327369282,104.842617233123,-1.74320659738108,285.856295407556,-41.046948877,116.676672623079,-26.5459993827833,225.794705580749,65.1726104773686,77.6076440512406,-5.01950044115284,180.127246822365,-29.5394121093501,137.165258596912,2.69712588395437,53.01881108889,-2.67225793374409,186.150055072785,-40.033610768146
938.92554407198,159.285162977123,1.73656704198629,5.68156176417296,3.96078601486667,-0.0179126428555721,17.1591595340655,-1.58655669685909,268.982012556798,-25.6860097655343,15.5373355120655,-2.56572871527873,108.275679319838,-11.1765272636826,296.680152526555,-46.5242386444278,113.206876432772,-21.7993221301065,212.896512084067,68.6511862355768,68.7211439242624,-5.10031394224422,165.078424505341,-20.2597067307099,147.646560566709,-9.36743931378716,60.6481261806439,-9.29721367298428,175.696000007474,-37.8259675120146
945.648367256687,160.35222236393,2.25054915598481,3.91243143356476,0.488393803670924,3.08785386901621,25.6161328449238,-8.05746756420283,273.352986936264,-27.2701786226582,13.0139351691911,1.93246294397743,93.8973363433948,-4.9803757310936,279.329160711223,-40.7455443089663,114.996681667294,-20.4311551554878,219.000911714329,70.5887063996189,71.0770666576266,-0.414614005482085,168.216533924153,-23.7775588398994,145.823375858334,-3.10352995298712,45.7490114808559,-0.27389930999366,180.958718638881,-41.3226259129302
929.37278516768,172.935576255455,0.840847600406745,3.25950030555382,6.35703096884763,-0.578298156974682,21.97521680249,-4.21046141009977,279.841840439388,-30.0186577932809,10.7814925763325,-0.207418049083614,110.06879736021,-9.90772879355595,293.337042567458,-48.4268377171396,109.164094521067,-24.387282981448,221.062652292079,67.1430296610222,74.6755608319276,-2.31794618245579,187.456908866772,-29.4307022553649,148.356742887262,-2.19750425261176,52.8952283294709,-6.61154825065507,196.95178552099,-47.6315195660227
940.240557623857,157.275084354774,1.27438714142737,1.19108399776636,-1.35872746624517,2.78198560625511,17.0435151417724,-3.67095459724842,270.464443738359,-24.0638193616439,13.2804119641926,-0.750976810352021,104.630464320452,-10.2485291318542,288.507317527014,-48.1438092984431,115.50342923836,-21.9054089923835,221.550851744632,67.2208112563455,69.0249406463701,-1.27047094155259,169.070798160865,-20.2343807463352,140.940652195859,0.167917047767436,54.6630519092567,-6.30163841583243,173.359284150038,-32.2212385157872
942.400186525367,157.970809862315,6.51559619270206,-1.761342792719,0.790246448250354,2.37364669279679,29.4294380587447,-7.8331587597323,269.934939751822,-24.3989221256926,10.8558496394333,0.501464950588818,98.3619509500587,-11.9280791882967,285.960433758865,-45.637618273064,114.239351387403,-21.1123869051977,218.891512704592,67.4056039626675,71.0009021783143,-0.0783235106323403,178.507931965305,-30.7349171342169,143.646423538563,-0.315629692849918,56.2782234998246,-2.82503219895198,175.527835217728,-34.9918945428802
955.296298664591,161.735635634315,4.39709079068781,1.8409332774973,-1.1057289359719,3.84018078991209,21.2059875163212,-0.868388383412913,267.1508806315,-16.95813637081,15.7924459070179,-2.22424479014236,110.496278868818,-12.8883729356491,290.082056048045,-43.5579884028244,117.310890102473,-24.5031691906583,227.161084204109,69.2667303880541,69.7082642804927,-7.47749819865134,174.353596486631,-22.1069659926955,146.009007085447,-3.44688036760346,50.3660122239243,1.84036041676651,195.214801918333,-44.5860915898307
945.974681648373,155.171647426366,4.45939093241887,1.01719190502342,3.16572709020091,0.796219864248891,24.9295733263888,-6.08353789770487,266.977938203412,-22.5608390289325,14.2604396030425,-2.89233113703114,115.074042610268,-16.6112897217831,292.860125762488,-44.6443507963305,113.003850294778,-23.780822859404,227.445086701869,60.9439914410969,77.1036339178798,-3.22670046122615,173.492028703393,-21.7051413671329,140.998456139417,0.35905178394138,56.8837803114566,-1.95949267420182,172.638154068236,-35.0725428423682
953.057851714287,161.677565767222,-2.88314212210555,5.11670065563994,4.37050861511754,-0.828886841357618,13.500533281537,0.698729797493742,279.949256182861,-31.0225640502627,15.7330561559957,-0.533191333153408,109.872762055104,-13.9203305297874,293.701438939439,-44.2448424850041,112.255858050823,-20.0111069071332,220.564669682456,68.9139268618914,70.9471142519189,-2.14196828715972,177.804241484719,-23.813994518182,145.955267241941,-5.8521036152342,51.5892774592312,0.33091492757861,179.515578195495,-33.1374316347703
952.604871702957,167.862303815902,3.7791116285719,-0.457217902231637,8.58109977192689,-1.72854998029178,24.6389066466747,-4.13500092478157,279.775223155736,-30.1749817147925,10.3046265971113,-1.39339110468101,109.090554372594,-13.6875122568285,294.734876185103,-50.1563028975291,109.827304349623,-17.8656113819563,238.081992623878,62.1112026204284,79.5788338929595,-4.19047220477622,169.358731477806,-15.7475247290875,144.573204498929,0.667346667192225,53.4903989507877,1.22373608797829,186.157692441526,-43.1051198221325
957.935092119901,163.19254660057,0.633300550249759,0.681164430929267,2.26535301570575,1.79638846393981,23.6693004045541,-3.14895138043807,284.058546212182,-32.7257188492569,10.4314891781232,-0.820928620901105,99.7471263769313,-8.03661198146834,292.139748899561,-46.6903124635282,111.018195666936,-21.6567534235999,213.378589141898,67.8241594479399,72.7959578439312,-2.36077945222014,177.063025087128,-22.7811932897936,136.468155954685,0.956386019970406,53.7270959573689,-2.99683105723745,195.314191357343,-46.3629570778054
949.698897037658,168.02905104348,9.48083784590617,-2.23597775660963,1.08701523800556,0.991722951179511,13.6724401086094,1.11142617755254,277.025478636108,-27.3790032178803,15.9953203200858,-1.91552227993817,104.228211210366,-8.76227288098478,296.236229922533,-48.4366091551364,118.113905881505,-22.9372109728604,219.154893697243,68.6105438482818,83.2990749703731,-5.37229779646457,195.943015813072,-35.3515178616781,139.944383565367,-1.11395931037983,54.8314860151849,-1.29701839890938,183.162633763847,-37.4458313713323
970.040439745835,156.283304070447,-3.15828937516155,7.2238960528806,-2.65335298376532,6.12741963106143,26.296435226461,-6.58284489906278,281.731616676265,-25.8089384200599,18.4487620876054,-3.10346234602552,112.602426557308,-16.4423812940543,298.086321524094,-44.6121797879769,119.028674915588,-20.9000032236544,221.368529346833,72.978584129701,67.111169806552,0.378698644291808,185.749015414779,-31.4300198208657,153.91392993204,-7.87409710261398,62.1853511746477,-2.8164635956282,176.131452234516,-30.8068709509862
947.828921628494,178.705777065578,5.1338774522222,2.26544424403291,9.45410578462617,-0.904710948657838,11.0591797253658,5.37557841537039,286.493309200984,-27.8181513332075,5.96490954115214,5.39039832614865,117.210175375601,-12.2982813655344,299.820699046336,-49.9725356782264,115.594767054028,-23.39954374639,230.665825499466,66.0670230231631,72.3738926299013,-0.933276780625741,176.773614972223,-21.5630576496856,142.752273599505,-3.16603496930765,69.6202523244925,-17.6464735854639,181.664619987401,-38.2330516782371
953.727218055733,165.275527379217,2.94759753200464,2.77890532088335,1.19717314884258,0.706309251887689,17.0769615485434,-1.64242535289854,289.072327658723,-31.9992944922415,16.5358101900728,-2.32830007267204,115.613600590422,-14.9894960431289,298.192584850286,-45.306434772619,110.285482159858,-18.4033794353866,219.523919391928,69.5047246301927,70.8431100308488,0.54641363433359,189.053340681578,-30.3879897315742,147.13119641476,-3.00732650261343,53.8736408643439,-0.922475955115051,174.93970613675,-29.0137833743766
952.896860829893,181.898807573885,5.12188964672876,-0.693578358431275,5.70743494128361,0.676182382486826,27.490152607377,-3.25633971376866,279.830135179906,-30.5705549480384,15.2205556779029,-2.90856474632146,111.631342123478,-13.0775301648947,282.165890502643,-39.1613926296361,120.123443052732,-25.3711033757157,221.581484958718,74.3701340231482,68.7775247147554,-1.8729634715887,175.342134298121,-23.5504179449651,142.628102323323,1.77716710474591,56.7327671317934,-9.9723172176307,185.89642586609,-43.8114734363886
934.00084772397,187.298881220198,4.76619973575208,-0.00156374027930857,3.83172586838727,-0.189880132826308,21.3741591243576,-3.82368166008287,287.470997765764,-30.2392901939024,8.99090025539101,3.04742285858311,111.313872839125,-10.5072305226724,303.145373437289,-47.652120856026,114.520346601309,-22.8496715228653,231.726207063459,61.9193362077149,80.3150345681175,-3.65748890225656,176.092857820506,-23.894639056099,138.526560299027,-0.0113937725901747,58.0225177604174,-2.98691545199537,188.345073381239,-39.7069126468628
948.758174853536,170.369602233548,-0.149635153193502,5.1183200450395,4.51019181427525,-1.04245666814099,20.3992321641155,-0.0258437296943658,281.667021447971,-20.917395058924,15.7395128508246,-1.85413466201797,98.305364619967,-4.38116302517317,296.148094632899,-49.151214099414,115.334981160664,-20.6369055217648,230.229442169125,61.6153230690052,72.373402805444,-1.0600060162887,175.271412044478,-20.2857716137651,142.330332286816,0.518427840228696,53.3373951900938,-3.44672314452391,188.609702658514,-38.6426101293169
940.149978008447,173.088187576287,4.77332950103979,1.24329595011353,5.03905448523155,-1.35177738347853,24.6497583586833,-6.33828816218564,277.365419506673,-25.3614882497581,19.2117276259166,-2.90035803646858,107.036702666621,-16.0223021657446,293.827947642495,-47.01561243329,122.213546390858,-26.5890091361736,227.468766890381,64.1432461847563,70.804934979344,-1.97834102764964,174.237707371828,-24.7440765423087,143.20866816085,-0.954279368405652,62.5186395944246,-5.21331465854527,173.034378474631,-36.951186396574
950.279458793408,176.119895071316,-1.53333439577921,5.19444442436241,6.84147159987885,-1.48098340995935,12.8528962268487,-0.792132115674989,283.22803138355,-21.1387571067839,14.2014104948414,-2.92098941084237,115.100555902306,-12.0449819818483,308.505388198368,-48.2262657076306,116.591383676823,-23.5122570821578,240.796188195635,63.8554000765777,70.4183101287461,-1.03699769164994,188.154496082485,-29.2824902662671,142.878969578978,-0.12184583148834,59.6303456374254,-6.06299598678074,189.757306957019,-39.4102805932229
968.49070557081,152.872675231948,3.83313277833802,-0.710885513077746,8.29072405414844,-2.08780061545995,31.1146787985679,-7.58652742365187,275.580535050044,-24.4502218343467,13.2810220025633,-1.52024040409599,112.053665266055,-8.1402922364643,286.557789468938,-39.3809032930609,113.185950866323,-20.6738241706064,219.582890861406,64.3900210061234,73.3206311309241,1.67739990404443,186.606680982883,-31.9023472859371,139.379955076093,-1.16164904328873,63.229175832025,-8.71138470793897,173.438040424594,-35.4299105822679
930.042416904947,182.501638199423,5.89992151074032,1.52937973000231,-0.402764055746189,4.92020925193663,21.433740233378,-3.75404680291909,283.930270999352,-26.0092898448844,17.2073538529492,-5.58398144971225,104.495475109684,-9.20096510311972,294.431703989375,-42.9256086491776,104.768922868234,-17.8058196081988,218.189976958431,72.5116903328803,78.3958674080083,-6.2158235034233,181.437892566349,-30.5474058931253,143.166157133203,2.27412910846547,47.0450819049792,2.50570154248266,187.752051621834,-39.8429928313427
942.609140295019,177.357870462701,4.54086282491457,2.88982820808726,3.01413773158886,1.47531037433095,29.098391614977,-8.79522965464696,281.994096969025,-24.800825784922,20.2111237029507,-6.77525773663496,116.237431763214,-17.1351472639101,293.601081202399,-44.3799294728645,122.232532378061,-26.6920569672437,239.352939632458,64.6592057590562,71.8120971103293,-1.14933379614394,178.53914691209,-22.532907495701,143.398211152472,1.42455354205473,60.4032978589514,-6.57470161800654,184.961917127013,-37.9915524754391
944.382415233675,158.73691668057,-0.895044690431479,3.28520463420193,4.6292090334158,4.35138126189135,23.3803807955811,-7.19356310865487,270.442560341617,-19.701662610908,16.8768006008294,-2.14761519278536,96.1844742127085,-2.34257117681112,294.987091900855,-50.2776967298185,114.736792364767,-19.53397601436,230.548664368256,62.1545348320904,67.5237069508558,-2.67026887334754,174.174959238473,-23.7079420780766,148.47235258719,-3.1272923981546,51.341053715152,0.926096449425795,174.812046155408,-36.926926708602
942.379654600673,160.573041547977,-1.32124931568255,3.36716187606489,7.10197425054305,-0.586067364991134,18.2591854773609,-0.063359027626462,273.590801558666,-22.9897952593116,20.1171336387548,-6.10908772833547,105.360802002463,-11.5364800239964,290.906283253393,-47.4918839421686,113.837823355272,-20.1307888051727,231.705066090962,62.4551085947672,73.0819897010262,-4.53802016886896,183.895158601293,-29.2884467835681,139.755605712698,1.19139422364676,58.7450652247726,-3.46921723007541,170.847183196518,-35.4165138980385
956.609963133516,160.269919157738,3.15914871444152,4.2678245232638,1.46206135925604,1.33842306576737,23.8385187057636,-8.17042359201543,273.867709262247,-25.2835193346842,10.6536090698391,3.57154712859977,109.999202652298,-9.18641823846676,292.621584912047,-50.8176422300928,112.813915915807,-18.8519427078755,225.232804624252,71.5514200345797,70.5854718276565,1.06411064204264,186.067549742719,-28.3275743107673,142.144632058701,0.687160424940925,54.238133603435,-5.21684722773584,169.35242408126,-29.9959565852579
954.138315033505,170.136260175735,0.584108887125757,3.10071917492629,5.69784167351479,-0.103885850325692,28.715584182638,-8.85289967270923,272.808695023368,-23.091527879695,15.4894474058918,-1.14133153872234,109.7344975026,-12.903990276781,298.703546826344,-52.5513784098623,113.632537135053,-21.8891443812974,231.218694284769,55.8334991031247,76.9716979765486,-4.13299580021622,180.725939112342,-28.9909423094083,138.769910555225,2.88155481508773,55.8563719785042,-2.53208918172418,180.780320512166,-38.187224294977
942.445695656156,169.80886750844,-0.545238900399522,4.55683016021184,2.09165680670125,1.53366101521755,16.0686505641942,-5.13504204918644,283.422237908017,-29.8985034887738,16.4043722656913,-5.08166063575481,100.457571503054,-7.53872208285235,290.138898981656,-46.0003456560598,117.435035224284,-23.603692923367,212.669535193484,74.4481149354114,78.1660219413259,-8.9850588809255,169.54243571957,-26.6170184042184,142.127518052445,-5.04233935694138,57.9366578593505,-7.29081048964887,178.904876372076,-37.6111355761851
947.262578973738,167.838227972999,-0.638222525729749,3.6878151677048,7.10899640538173,0.591470277648008,24.1352947684963,-4.16712020576765,282.746203780003,-35.876487225146,18.7147810651915,-1.36272605255905,107.863796556718,-14.5518800234041,295.987540616969,-50.5864801145799,112.996419177161,-21.7957060378873,231.051887186554,66.590278251856,74.7731095712232,-2.85842845220699,188.108097439541,-32.389083002219,143.738461038092,0.354207878056623,67.7361444201414,-7.65768624524939,175.201885024487,-34.7145425390144
943.43462523668,179.579760166546,2.31466790540106,1.27372488907172,8.84286633069419,-1.50176746906671,25.6658386057506,-3.13601518594242,283.633310964588,-27.5249607498727,13.3173428897453,-0.645591871492222,105.456654631333,-6.27690052361284,299.804586663002,-45.7639132298334,110.50705276817,-21.6321482604254,228.647606138188,66.8451010059161,69.1724100139509,0.577714545022494,176.606250800322,-27.0074621879094,145.75567078941,1.84448680278297,51.1029178549385,-2.70051876032794,177.357019272829,-36.7368449315771
943.447232315391,170.956470676312,4.37138083591364,1.67206017891061,3.85329137149637,1.02239913105266,24.240783886391,-7.7181506706101,273.701482391731,-24.9274683875169,7.6870085085768,1.62460998069309,102.866128273329,-6.73245288662266,289.914693905322,-44.8198931243987,118.752250401197,-23.4917366728323,222.237980278876,71.1990295934567,72.4647811995214,-1.33914202905664,170.975307964342,-23.2749687499342,134.326673071827,3.8380501973752,56.8134919273231,-5.26917796554938,175.50682624342,-38.1102349947098
963.113113978416,160.027678451564,-4.55578938810509,11.1040896728331,2.31093744100638,0.415854541269126,20.1168106083118,-3.53267543726149,265.881765337418,-21.6785046534353,8.28254136993974,4.17135554810532,108.505230785425,-11.6630517341093,292.535056089681,-51.9228483906541,116.272995687577,-23.8524412837324,225.769764482191,71.7454882041875,62.7926419176469,2.43114120351926,169.73969456339,-15.585288683326,144.945566398329,1.92495052711081,51.3256489282755,-1.92811897069347,178.14047937036,-37.1395737990455
966.994696987529,169.588137610006,2.55335485098194,3.933455671199,1.17979946929916,0.573018295302319,19.4962170560909,-6.09386303547792,288.897525617219,-34.44269522828,15.6659885943086,-2.23743252645008,104.146768367354,-5.13899793234053,294.602536395441,-45.9646063018887,115.94222849741,-18.7864074772928,234.478552780945,65.8843922648803,72.5363681055797,0.0281008642672969,182.805398890264,-28.1097215306213,153.992814373184,-8.15814186238997,52.2830125170563,-0.736869849313124,178.698152318889,-36.5814102243415
950.071202779491,159.663973053498,3.03451952682633,0.602893665037932,6.17667018255414,0.392223540138932,26.4482690207468,-4.33841459757686,279.167976352063,-28.9851836453535,16.7237389196253,-2.88860814206792,112.37735274814,-12.0742300386344,289.785544413684,-47.4391947408665,114.982932875453,-22.8611800308699,239.005684277366,62.8732215473536,78.9571776237366,-7.72283942893649,186.624745925155,-28.063388542075,141.776931560256,-1.28787484699108,63.2930696023892,-6.53659973139119,182.977690732205,-43.3168700385709
953.030271334022,166.95922176315,8.80468465164578,-2.13433129950746,3.09443934015848,-0.605958794581033,11.5970998593705,3.8872304512094,278.479000321564,-28.1985309442334,10.9311940990389,2.49663340951472,110.538406535411,-9.03955982662558,295.688876010647,-48.7833058392974,109.424675334684,-21.8351867178921,234.184548679112,65.0811428157225,81.4599424416091,-7.20006837501785,182.032706872482,-23.7405764967394,141.735508731043,0.145407588812981,64.9348908599791,-9.81984550221512,176.387795487949,-33.0450159188585
955.513414789022,175.93402236687,7.85163034439564,-0.503289252403715,3.28883916057328,-0.788258941438893,19.8484687807759,0.0635849630547076,291.075086689356,-33.4966792268121,14.0919683702122,-0.787954469508326,108.274967084884,-9.91008242395997,308.39632784747,-50.0997833208892,117.093446696951,-23.4497375779839,235.896101308824,67.3257163153006,76.0068149018084,-1.68904162543695,191.376757574321,-37.9457793873661,156.582316143373,-6.02230471440017,64.5019168819554,-5.2984078798705,193.448118403814,-42.5720671204598
959.176394179922,164.728749309788,11.3365141669252,-0.375955996126328,-2.85567974860224,4.49121816827147,6.74663489014176,2.59545688296375,277.407152612977,-27.4222487225835,22.8869270992233,-6.1180801733569,113.104844429645,-12.2765708155705,292.619987497202,-44.8352225329881,128.131814671025,-31.0649851223896,232.213091329592,64.5320290088755,73.3452250539069,0.127935189230215,183.953003942569,-27.2780566602349,153.767076308551,-7.28340976666146,67.0758028860537,-7.73235624394634,177.576446091106,-34.216185794303
957.143650712889,165.435007347086,3.96454000097631,1.48166673078256,6.47098966399094,-0.57341758781559,13.8322907318547,4.11864147465312,286.649155247181,-30.2473790261042,6.85942621812684,2.28548359944288,109.95716916364,-12.6664453839132,297.893534861525,-48.0302722618084,118.370227266465,-21.9741823070825,239.873901816553,63.135735590389,77.9607527900648,-2.35073158956545,186.378852890331,-25.5202049577681,147.414688056923,-0.943331036067245,64.1963691161059,-4.71632720092543,181.177421255386,-37.2266308869545
963.122782468181,169.463774988114,4.30001563056941,1.263086168506,1.44895700953562,3.08340046579782,16.2303330451802,-3.27968563270015,286.868923113984,-30.1430397436886,10.3085896828092,5.2468174644617,110.767297839298,-8.95647901826919,302.452188880046,-53.9251209298092,113.019195892906,-19.0837219680717,229.214261248144,74.884255300856,84.1450876905787,-7.6599908003254,182.563493248716,-26.1479062133387,148.649565304052,-2.71997005096066,58.5288160568272,-1.48188232931827,184.46503311521,-43.9595862616223
974.269702545727,173.246436581084,6.36953735804662,-1.42365252291148,-2.23078777207599,5.17208079382106,19.2735525885206,-1.83737340327427,291.628805333734,-32.1142185675537,15.4921759787018,1.28877714841107,113.044255537283,-9.89511674833612,298.592156730355,-46.3846371687779,118.006594833145,-20.5055594653253,237.912240035739,65.9841731607002,73.4000913612427,-5.09550793645264,197.722664207436,-36.5322102343937,145.333669462151,1.09314348330001,54.0773799533545,0.13861395191395,180.842271857913,-39.6207193084733
976.680517411581,159.434362182535,1.05039101823376,2.11933636580779,6.84634535251195,-2.17141772516589,17.2867641243234,-2.66435772823131,291.67564263876,-31.7916760426803,14.799003855282,-4.96563737722667,96.757035462596,-1.55559673288788,304.471426671814,-51.2588969427904,111.530598115213,-18.9715333109716,239.16320637453,69.1070300757532,74.3288756840043,-2.52822092231235,191.416834876249,-31.6565384134746,151.177985927891,-3.96007479858018,66.0963930291035,-11.3772454065438,175.509813861858,-33.1965177216436
976.445980358748,173.061295610761,-0.171368277146174,4.06456917221566,3.33417857618067,1.05100610551226,20.1901429098888,-4.30430753001508,298.368684965856,-28.1211926995864,15.5605485150135,-2.51772745896463,111.335796322839,-6.21333205295012,304.703313695675,-48.0061914489735,114.980007798295,-22.3572603794729,237.108184097346,66.4999484145468,74.2142746836408,-0.916966726671705,191.217990928193,-26.0596337616598,147.035657334754,0.1894196428007,60.2863137924205,-0.970827944712182,181.97318269493,-39.2702962883283
968.492068789896,174.425449249245,1.96422090394582,3.85824838937798,5.57748640295416,-0.0203510012226539,25.2150433966496,-6.38789684868705,303.176764486555,-27.5325508807295,12.1011242897741,-1.4544644285338,102.274554810396,-5.6464100546126,312.569626884244,-54.2268355161201,122.469311201648,-22.4330026840546,240.662924780544,64.9411800610775,77.2778951855338,-5.11599727477794,194.663665415477,-29.1239115778325,151.042286986766,-1.79317646940653,61.739041009304,-0.587126816275312,183.167050130446,-40.3950468802204
966.03358080459,163.743981571899,-1.91237094356103,3.04607591251496,6.75140012384939,2.00200733889535,19.6943563497873,-1.37649378892953,295.588235554389,-31.923828899774,14.8402534806487,0.877210563766939,105.362144095307,-5.69012863030174,306.185290560039,-49.7622871175812,113.236200586671,-24.3772670495553,239.034048092223,61.7969550612814,76.7583880876396,-4.50238426378743,191.079628693338,-32.6027525126735,159.355457070682,-8.80989926234,60.5031177460293,-6.4264382937454,182.968744969124,-40.8195837668316
962.360115552661,169.443690937278,-0.384144363498922,5.26179738934993,2.25552277394886,1.11269158670834,22.4009569245343,-2.47530681512954,288.014770473028,-25.6960961297494,12.3668270233866,0.140298306029086,122.343005285728,-16.3655540206048,304.276851790011,-46.3894982117393,117.075744115674,-22.0799272943842,252.358878909838,60.4422763477476,78.2947591467568,-1.60136295626259,184.500705003902,-24.4410865782774,147.059952358424,-0.948641387074668,66.5403363976649,-6.4847138073066,198.135793990192,-52.823048473749
952.916322369651,183.493490546758,7.50796965855261,-0.911483896879081,3.05700706297681,0.333394971947854,23.1820305026803,-2.98793371166728,295.106509648834,-28.1998885352647,11.4124678066794,-1.34412390607223,119.194307662879,-16.9027006311551,316.589082811023,-54.5186409694211,125.834802085287,-24.4333967629136,244.984965487945,71.2745216342732,83.1115245921319,-5.18668254675199,200.344846071045,-35.774060594589,146.756307675051,2.38840542375361,69.5654212529378,-10.3995003216341,183.57548223936,-36.6193672298059
958.152949482615,167.126773241085,0.264626887039255,5.29338522123753,4.89631381129476,-0.705632811392732,22.3612137418972,-6.5932729877083,291.286599366568,-28.859886909264,14.3849466932688,1.81181742460337,97.331966948088,-8.39599432996508,307.22318722094,-51.273353283197,124.005685410632,-27.4405375985228,234.09959827786,71.1582947732716,76.6130504861433,-5.63498174408598,189.770639540535,-27.1651646287956,152.379273664922,-2.7001441925798,54.8354002995431,-5.10580408135416,186.569248454435,-41.7878643399774
947.963821942392,180.853053683231,7.86560044946151,0.351640669519904,3.65811230522817,1.00882137269559,25.919156139111,-0.495448847850287,295.025107040032,-30.9129340073792,14.5905651244551,-0.783633246789575,106.805966287729,-10.3614038691084,299.943658108283,-45.3254669500785,118.645868487347,-25.1175037688267,249.532025684513,62.3496693882262,83.2852363038685,-9.05085709570388,185.677282393615,-32.2408595446272,145.872168525051,1.17155557969231,62.989681348486,-9.98249359458005,175.234833543753,-32.5407543347977
958.943836453163,176.572955652714,2.85170778162145,6.09163818364991,4.80424957102687,-1.015674836645,21.8168541977662,-2.33138093890982,296.593730228323,-30.6809544470156,18.9407164783337,-4.52818792781154,112.380753226013,-15.0024208332599,299.990030391346,-51.5172215128002,117.323998525497,-24.7057302204701,250.668581662182,62.3496238534397,72.9186590668237,1.83133478550871,185.973854009556,-27.0409564705577,156.316357586605,-4.15640070595048,62.8843775607421,-10.3924616700128,180.443439695543,-34.428865323898
943.415134722154,171.036113669783,-3.15074874685404,8.31946946554467,1.40983648644327,1.71931027901845,18.9376534357328,-4.21257774614326,280.195046705741,-23.4009413895564,13.0831185371596,-4.0656618741208,113.43180529029,-12.4291816070031,305.343776659205,-52.4927762302305,119.834578514034,-19.894736214687,233.403349076791,67.980777573252,71.6899303472447,-0.339433234503961,183.339944196453,-24.9647412879432,146.210434354492,-0.429698699194657,65.0150570360918,-11.162232443943,175.499213482745,-34.7005267695701
935.395158561769,181.923766755163,1.24516449731924,1.97239319428757,4.63918563106189,1.43361875190525,16.0910101525533,-3.11982296142036,277.54467247813,-27.060953367725,15.1416039519686,-5.148410922926,100.865222999303,-7.01397402208551,314.365475414001,-58.4951944238577,110.736043440356,-21.2947422473624,231.64148176765,66.9525846425739,72.5902694719768,-0.499955197825381,184.549080143473,-27.4713343692994,148.799539406598,-5.38238264595721,52.8729472193129,1.76999574530366,181.667321652434,-42.1177408127719
954.735728800608,174.031706947231,0.406749158576611,1.83718224854618,-1.46287353201192,2.9476371588607,18.3030965453792,-2.92154931961789,289.977242462205,-26.8849802314967,14.3647004552728,-3.48363715369385,105.811406135665,-3.11227348547341,309.199624794591,-51.1029801077238,116.956828881354,-19.4262770587032,234.330579263081,70.6352917582167,73.6670278500058,0.873376139985217,198.246407115281,-31.1310088781102,160.709303427203,-7.57288108917634,59.1976032847508,-5.99839723717208,173.064164126369,-30.2770642204647
952.731074678093,159.820098012479,2.69400998911276,0.732637641204985,-0.992660105664633,3.99943074535118,24.7881541369667,-3.14213547618862,276.044565695833,-23.8047959553592,18.2163339363052,-2.45846121909675,104.23343511377,-5.96839307420464,306.03406459871,-46.5181236225244,115.175168216258,-19.6773928872377,238.639242204656,66.1198959995919,78.9133474399671,-2.82704123889628,186.924891107422,-30.8359736799179,154.393630447912,-9.19858686432241,59.2543090181685,-7.49119620741712,178.754250668533,-37.3853035697757
947.706242507232,170.693777446187,4.22349184081566,1.58742565787194,0.351101886247666,1.74909337614767,22.3565702012255,-5.09189812098565,271.854029730095,-20.531008400698,10.5825023846703,-0.513694196893664,101.721339982528,-5.50187718884602,300.707208749082,-46.8310803931713,107.331547174864,-16.7111220396945,246.952996194813,57.0145245005735,77.6079904763573,-3.14409560994757,182.777027436404,-25.1812041958484,145.184163170045,3.11316936222795,64.4596473828733,-6.15823554852358,163.950094670366,-26.6448608810688
962.87154281463,163.488051613658,3.46400376063607,3.9695360565652,6.9347530432629,-1.70135729900774,20.1704025475431,-2.18817655353427,297.556953558417,-36.0075630618394,14.3796385273128,-3.82191613456452,103.211863110107,-5.98113436187251,291.876073752188,-44.7833376886937,111.982572543085,-22.1566389930486,252.878893523204,53.6842214592233,79.6314410990303,-4.26283695316845,189.715756221798,-27.4511238793374,156.11318122826,-6.24088003129039,67.2711661134339,-3.8181636337689,188.814010218791,-44.865259043956
944.589233957705,168.014396872275,3.39314280866525,-0.556458647864958,10.6702038802892,-3.72774029011081,20.4504990385831,-1.4074756018975,290.168630083455,-33.3142316983291,9.61674753642774,2.30053678863374,92.7888196947862,0.353117907054151,294.674650687604,-43.2784462582643,117.174467097885,-26.770815853456,240.600235103995,58.7813601075481,76.8581497540143,-4.89515206194568,178.058072661527,-27.2076270006397,143.617174538919,-1.72180442947899,62.8811854911364,-8.10258708014085,175.037006905604,-35.9516767436709
948.52090353531,161.47081586563,1.73105531938943,3.76588754448241,4.199935236148,0.167889358263115,17.8536054567167,-0.764443061152809,275.464437889566,-26.2122866499428,9.09864621832245,3.32037485541646,96.3931748687278,-7.58743994184288,296.601029890868,-48.8341477461154,111.284758890668,-18.785618107431,229.83922466658,66.8279098516827,71.3385206239349,-1.36050078638689,179.841146580343,-27.171182584457,152.988958714821,-4.61984715498214,54.6959845797571,-1.94085473320539,174.906276316423,-35.4158141718343
951.705723270655,179.769811392362,2.14547866972708,1.52942675350893,3.74606802042187,0.454604950567845,26.653769401994,-4.18162709668264,280.980708433575,-28.2449567947467,17.1451914723581,-2.18115763916535,109.682025384984,-12.1828621335014,300.535262567591,-48.6450799504626,117.182588358236,-21.2279652345052,225.282082991925,76.5293979637997,73.8181887916864,-1.17382250755479,181.790721541285,-26.7003047916305,154.731826522916,-5.42912715967479,54.6484218027617,-1.68832423106095,174.470195368368,-33.0861828012069
943.239697910518,175.716354013188,1.55312804215749,-0.196192364704746,4.64141820648604,1.65132517660988,24.4991651613652,-5.50251795412195,270.160613333201,-20.9268283943142,16.7348493987812,-2.82189441563518,103.527138092183,-6.34592553408615,291.23906106032,-41.4355751923319,111.502416499357,-19.0454937606159,231.108282597738,66.4708955847497,70.6692076816434,-1.9563432199531,184.554196609977,-28.9801654748838,135.79740752125,1.54650188644568,58.7740432964282,-7.62031151576122,175.219268114922,-28.6889477629671
959.083188837793,159.893088094711,0.902171851340366,2.93459736884525,0.672209974916061,1.38096312813047,20.1190036844921,-3.17319825862657,276.582475087677,-26.3294228433583,7.97248109162522,2.08877827433745,113.473672045282,-12.9278480509609,285.636449051869,-41.366883921851,109.287870276793,-20.4854339547362,225.816376943531,69.8098027921135,74.9319729945032,-3.84585944308045,182.818250708474,-27.7759984603855,136.125256112815,1.79436073316142,57.727265436329,-3.69435933035301,181.175804259631,-36.0085412055569
952.346077820298,172.376833007422,5.0792557204555,0.489454046370264,5.39682374970774,-0.364181059238107,10.3401697690599,4.59478035601876,285.82484002609,-31.9151522052981,14.133979442444,-0.761284586735858,116.845417735531,-15.2318790752331,298.898356776711,-45.9726305128664,107.110619501034,-13.5535147366561,234.979662534297,63.2879188456222,76.0468936932587,-3.00317393095845,180.356682000433,-24.1507897794948,135.489503273803,3.10699256029515,58.1842742756805,-2.96875509185341,178.412908838072,-32.6473809119522
975.478385208353,159.148984967973,2.67572077218141,4.30085978876937,4.7639047291629,-0.289348611437361,20.8617204720989,-2.2802719521262,278.224115253012,-25.1381485743125,20.4067018198665,-5.85828747670135,103.158676030903,-5.32335928517555,287.726462614847,-43.3132301999082,116.424574084656,-25.4362894619364,229.769905288709,64.4361185699121,74.338073315147,-3.40410303472361,184.065353798227,-27.4821461554245,145.087428017894,-0.131638667612437,53.57329211631,2.75058283223358,166.524547835305,-27.6264686912463
932.273295390299,176.577316824347,0.313681130225684,4.68671910233717,2.46780846059985,0.991751051220173,14.6082684755392,4.09477857539441,277.976782278774,-20.8526664055262,13.3893566746299,-1.55578834595378,113.129705152488,-17.3288568811567,288.597079030202,-40.0051813993266,106.810130567481,-15.7600111056254,236.803495462348,56.9647623407898,76.8776017074277,-6.91469140413528,176.365482057883,-21.0451238070764,136.488843104099,4.55298659602567,59.6355257759155,-3.15489530180134,181.844121054403,-37.2652501536876
954.408522092131,164.449128071297,2.40277627268776,4.24704096807469,3.75745300570271,0.344810840079834,19.5663059154725,-3.86181939342508,273.358754415954,-24.8767036444389,9.10884077614815,3.0782215391351,109.084389300598,-15.2646954778367,287.561090489534,-42.5428634105584,109.21542226579,-19.017347764754,244.131845877033,57.8667123934064,66.519524703281,-1.3568562129688,186.150427125409,-30.7939550295652,142.820550530606,-2.01773086846632,56.2349716696253,-7.12569721720724,179.708724302698,-37.09127898427
970.398730605985,155.527797086079,0.723327543385483,1.65323018608823,2.77435088865907,3.03743809041803,15.7246910091859,2.04470894781988,282.605519874311,-31.2478848979182,8.66129279750422,-0.100810356637722,110.082298195384,-9.04534165386343,283.276631473768,-40.2975458125821,117.182936826973,-22.2142264322244,230.709373927745,67.9282001639407,73.1979735205364,-5.85305751035045,175.33606994421,-26.9691082674869,139.320177218055,0.838149144945141,44.8007006296785,3.13213607559253,177.73420136731,-32.8018849353628
966.230171961353,156.969301978428,4.33375516908133,2.13590700434762,4.81460377430001,0.392237363546032,27.3427404028115,-5.75372754332617,267.038517732513,-20.8334627227929,18.8012981743128,-2.88781385467986,112.466837116255,-15.354743926525,296.381434652712,-45.2455591256206,116.121982545172,-23.7328893794296,230.936132109567,67.0682653588003,78.6431780960873,-8.31568113404101,190.585073457527,-32.3673237194573,135.732006805388,-0.238100029350004,66.2081101078782,-11.8358508186251,184.521927978521,-36.3705162187465
956.680716864947,162.498589809299,4.00880567631875,-0.10417097944276,6.63275374366481,-1.47202221634709,24.1620664750956,-6.23494607638915,275.735473699737,-28.7618660556427,13.5787106059091,0.0150824805427161,110.588520741807,-12.599081438827,301.244428542487,-50.4658197468163,117.581112855147,-25.6404258105841,227.946040186377,66.8365540992149,83.8368354152519,-10.1925460320889,185.127613693701,-32.2985878471922,144.02757825958,-1.73346921056675,52.0842805342683,-2.76374975550545,180.476806720984,-38.76270146723
950.427197064108,181.386098990852,5.84512057767656,-1.07052908258225,0.21873213510821,1.17006099230409,21.1498937707201,-1.40645694475114,279.713546674541,-25.6923421001615,15.8678677043447,-1.11213533030321,114.641851528666,-13.0314961316765,285.454745725396,-40.5829540373684,122.036196059847,-25.2460483319563,232.758666658169,62.4652838472483,78.9814868211278,-4.651268615365,178.812213287214,-24.2793769909992,144.086317143641,1.79654752287504,53.7049025811895,-4.35865327334938,177.057347985948,-31.4286029265868
956.488656323062,166.535242231091,0.532429213048963,1.18224051782024,-0.607527755819107,2.18919575976216,16.2246990781608,-0.201869409708076,271.280823631285,-20.5769470017289,20.7978594990233,-4.95420199069892,103.295802813603,-6.92284746234339,306.163880894128,-51.5520411733485,117.963039076127,-24.0362648281835,231.327881582289,59.2285070761575,78.3361241075498,-7.26844356781853,181.242694518049,-23.0695398984889,150.579703824231,-4.84789954999123,56.3516952156636,-5.22489865659514,182.978583201796,-33.144846265332
949.445535219181,164.988781873966,0.6145962966146,2.36313877885981,1.91329806672413,0.987011208877619,26.2363440209095,-2.81167013166446,278.271182658675,-23.7259485188346,15.6185224760266,-4.36012762057708,103.417157878611,-7.30458684570769,304.274903735496,-46.6182837931232,115.170911909161,-20.2713930668551,219.75588630071,76.3775408139839,73.3065509814644,-5.29121077542364,184.706556960855,-28.807096617425,149.451322254405,-2.89355179277537,55.2469307442878,-3.78160808241876,175.831196101716,-34.8126947305104
959.502724697405,168.335067058068,1.89843550789708,-0.546462396392648,-3.09773473616894,7.4080130397606,11.6113863742043,7.49320468371259,282.980019733768,-25.9855056898205,8.22344168454704,2.54855393423006,111.482243667349,-8.43532057106452,297.032563782801,-44.6785362418278,124.463953331328,-28.9073428798262,238.655315886149,64.1528810183935,75.0709876092977,-3.77473352544477,176.936007628461,-25.845752357127,149.954306601196,-3.62137193996827,55.0190962512239,-2.94558463821928,177.075886586373,-39.1591976771633
948.316193941413,168.723208387461,6.66002994505292,-1.08696560674225,3.39237548718353,1.87250784828021,38.3583605733921,-10.8301816422117,282.688806243599,-27.3822926290474,18.7808722028714,-5.05913793803383,110.713522685143,-9.76160766352808,300.746503203083,-49.2781969859227,118.309103245055,-24.9142921289147,243.746916271991,58.7505657766632,81.8932950933533,-11.3445056654114,189.130270618,-32.0576265978911,152.599087200687,-4.97724069569009,58.8976452300768,-8.27075697927485,192.535723498269,-44.9346443329813
941.47959039711,176.320883331507,1.08383933933446,1.44423212407484,-2.05027676840384,6.03256862364812,18.3983369818272,-3.10428405757015,284.195665540265,-25.9229768846733,16.8844080224516,-1.07207737548073,113.184342937272,-11.5575031895479,311.724375411784,-52.4906390945601,116.75055291277,-21.6404163324534,235.37670140417,65.3009809478817,70.8498600465764,2.02428712795851,177.898932639465,-26.3206181821887,154.720603866964,-7.38278335434707,60.5627868509001,-4.79609876800664,190.652726207871,-41.5418718578091
961.54705790837,173.844562489331,1.99252442492409,2.12932037447365,0.399672471143545,4.00059644381217,32.0202904555894,-11.0204298461358,279.943645484622,-20.0003075527463,10.3399178868612,-0.475784987225974,107.376169637304,-11.4996175693116,295.235729733025,-43.4396353126881,116.521777871971,-20.250411051481,234.797377267798,74.0073433822453,82.6539102824989,-5.95927777270008,176.545678726312,-20.918796161936,153.906665502457,-11.1941285981158,61.241688181851,-4.92275353828349,198.418592883966,-46.0426394177969
955.98339732368,158.865186114567,4.52444853814302,0.23439854646487,3.74314647732335,1.28434657703333,27.6838641955145,-2.09228059827418,283.650761056339,-27.3194131787775,10.349344694836,1.39142430799654,108.035299540225,-11.9037655209246,304.652041324253,-54.6404519767009,119.660772466531,-23.4219546238407,246.005843421489,61.4393264837252,84.7536214452384,-11.6118917360389,185.625695136419,-28.1450341156766,151.482989114989,-6.89334543237865,53.8181472251276,-2.73456189232874,188.15864347139,-39.9497377428666
954.625344607395,166.604836287441,-0.501791879265228,3.12065463752264,0.929065226705602,1.84042757282691,18.6144804409662,-1.93708021028977,289.303296199587,-32.1017905701238,18.5643336820401,-0.00925799143756942,109.202459835114,-9.56707269419233,301.781363964333,-47.2597173347178,112.615493531656,-19.4565797105229,232.975245279429,67.1366395217557,76.8158882277038,-6.26349200314747,187.42849514878,-27.3815805704876,148.474517623163,-4.17752087534473,58.2149465442552,-2.50010000237479,188.257641529752,-40.6678934971453
958.194695818539,177.136722462855,-0.377309588632793,6.44704991580424,7.37027380136055,0.381606030420264,29.616369853347,-6.60338053742113,294.99636277249,-33.5061736388022,19.4801048395507,-2.8450134168623,106.834229386182,-10.7585097432836,310.968190608936,-53.3404758109595,114.737886625531,-23.7146487780231,235.071312793163,66.3063015098804,72.6205589022393,-4.08211789320408,186.395493401967,-27.848440294547,152.584330849637,-4.87401591058442,61.0655734343947,-2.16024511071651,188.260555968206,-37.4124434888881
954.155675823288,163.452145427023,7.22907028582273,0.325392092475653,3.22911585989395,1.30254815175861,17.404865681262,-3.32507361167543,280.847532396194,-26.6434893540127,21.595957713345,-3.88264010024985,120.415606321376,-16.3826140237464,303.55383724141,-52.5139739003532,112.025930158004,-19.3382760026594,231.979562823028,69.946220922656,89.1081584866487,-13.7200538250251,182.428210905212,-26.2487170055983,154.824493725644,-3.76221188261186,58.850307104494,-4.99952008689503,171.669171109789,-34.7870865333045
956.994220923983,166.833182429961,11.9245277190933,-1.37537385038429,1.09882430728716,0.0687431236667455,26.6900615489575,-7.51036353345358,287.090391244263,-32.600466284637,10.1570083138343,0.239699470695143,117.911054482873,-16.0918005198673,296.300032496532,-49.9907607720441,108.626583897996,-20.6559277960356,237.063387694173,64.6465179134134,66.7846995317853,7.0722557903059,184.326026887374,-29.46269771508,144.787317842416,-1.18621081512015,59.4250121656213,-3.40555452801915,174.27136143517,-33.1411100517929
949.236160238984,177.411560575876,4.15335588558358,-0.0399889013276564,1.4027104838253,1.93072252122812,31.889946075499,-9.90791016337016,298.575772092624,-33.7296038384941,11.1264115218203,0.836846225680098,107.028818424669,-11.3800053196288,302.658154913103,-46.6708208482524,120.932438830152,-24.372284954073,247.733256728051,60.894961382522,79.1581558999665,-3.44525134853824,187.288222208223,-26.9508769119063,155.828665498181,-2.27249894783121,60.0747542609409,-8.53419074243645,186.755675595533,-37.4299560617957
935.03530674436,174.964787379682,2.7911073810547,3.40307169687749,3.0438953709877,2.13053148616366,30.8175146110459,-7.69411275486818,280.395156469001,-25.9317149284126,6.26306024657532,2.00724440669582,101.042004162588,-6.94428807554879,295.726471793526,-41.4359754621921,114.313248837122,-21.3376115305471,240.230166559086,65.1294843992313,82.5628963548958,-8.35185015187898,183.672194843137,-30.1279539193292,139.827347648403,1.47034941187377,53.7995983178724,-4.1591959574709,180.871675550065,-38.9283218395874
959.850330535223,154.565815308581,1.66583375466225,3.91831632803226,8.10406027010531,-2.98313725458516,21.0046205792147,-2.9749688578747,295.220874033453,-39.2954377706738,16.4708132233585,-5.38758186645472,104.670287092496,-4.4982779508441,300.970927871607,-48.676836783123,110.604158867758,-20.4519629193893,232.545462437256,65.4499609535798,75.8466219067295,-3.57905054977562,172.459051100491,-18.9501103976098,152.849727005553,-5.49074380694378,46.8168511590664,2.60218188604524,174.152136140361,-35.3124493285172
963.625495558556,172.664328829081,9.03892112561281,1.61897370063855,3.38444188033241,1.13638807906233,27.9077695828176,-6.26802669592773,296.041090540256,-31.9186616558229,16.6114190971343,-1.40202799117582,102.365600449096,-6.57832635939116,304.603444478729,-47.5174957599524,118.855618589858,-26.522444859777,246.108923969713,64.6330715182124,79.9565239381451,-5.36699018522294,186.93553036917,-25.0009587917817,156.275184290693,-6.40328147393135,59.9614705476667,-6.6172437231894,185.40549751802,-37.778361686541
945.225425712937,167.551935920824,-0.473955749683111,3.72182290158691,-0.0813380015209156,5.38979877580047,22.4826205171195,-4.11440768958374,288.071931004957,-33.3005559932151,16.1453983927416,-3.85177620902401,115.456553036626,-16.0843020039103,298.465662342127,-53.4451343822077,117.936792994317,-21.0675189683108,221.675084700856,71.1519035433515,74.4814957153445,-0.784443571342578,175.010909497297,-20.8990487806813,147.744563805749,-0.570688415700438,54.3224018796081,-4.09956470409126,172.66119119769,-35.0366877568532
951.008287966285,166.711765553461,5.941975539791,-0.448169633522958,0.12535130822551,4.5374486271037,18.8433754063005,-3.31557597632065,288.7669532044,-30.9492473179916,16.7307207720461,-2.87030681990278,99.2150381903721,-6.27115714191333,300.876452410998,-49.2421435235234,121.435708692462,-24.9201358605138,222.637676793383,67.1857331109011,78.1266969051023,-7.63766490567766,176.809353721052,-21.8272057361836,140.333889402963,0.902644601098978,59.8602827477833,-5.6067929511189,179.201278971262,-36.8108304121057
960.38117764918,166.958337971548,3.53726347906553,1.49478239369105,-0.393686138190836,2.88791052243461,16.3396359141494,0.935826769800021,281.629886891581,-28.5108172355982,15.3698028511188,-3.68657063266585,104.779145574324,-8.37241630842592,309.049384386001,-50.4960957445921,112.578440967885,-20.1138547691035,238.957860127177,68.3573055411956,78.8257672379746,-6.56197121889279,183.805150251067,-25.386626766928,157.880281027147,-6.66285829885358,51.8779708533383,-2.37981816495242,178.108545259912,-29.8467282644136
953.826534522188,166.849465950298,5.97944025267278,1.29575637578266,8.35808638713972,-0.250101919162443,23.8161687280076,-1.14063083586502,274.360940314167,-30.0851636666709,12.3292677448851,1.54869748694297,102.596997971276,-6.27752846740575,296.728479217189,-43.840585468034,102.770560027034,-18.2571552964511,225.449295987773,68.939640655784,79.066061244357,-5.01692460469961,180.510768894845,-23.8542041501465,149.26791659839,-4.85168887436761,53.6804037810538,-3.58685585270574,178.089083898125,-36.6379180840059
