856.504035045669,128.226554920751,5.61110343358721,-0.350547164306799,4.60566721818886,0.523009514067264,17.9338330515781,-0.860172625543322,293.487441153535,-32.2134756769966,12.8352361659907,0.157064932401086,110.45636312401,-8.46651735311676,320.005439057077,-51.6252392970439,111.912486774845,-21.4217858959661,252.615260115144,65.9946205312469,90.16048843268,-7.0368845009352,187.881988419618,-28.4494590067464,165.439316746525,-3.9255135666227,76.0752125715062,-12.7575051380677,179.169320947219,-38.6171303180486
878.660333052476,112.713495095506,3.64370610568151,2.07318404616574,6.25190502746943,-1.818331196498,28.1259340232325,-8.89356498909365,292.200711902457,-27.9166179914756,23.6186342067654,-6.58397879481596,114.899024793861,-12.2497036555277,334.672349603581,-60.6521851698059,110.270842872435,-21.3717222719143,266.413802552283,61.080264787378,69.3179654542237,3.23911411162488,190.263027121768,-29.5663354910939,165.672976583609,-3.81229137621531,61.2191710500879,-4.49909972675808,179.420042427167,-34.2860997044307
869.684092584544,131.492755895421,10.6064525179321,-2.4998455729538,2.52932628879526,-0.758192351157514,20.7720390711298,-1.915941891959,287.993668284172,-22.6544795451534,15.7274530325407,-0.46645280528406,113.24448130791,-10.5568544421162,322.360096502288,-49.80795550919,114.337757005299,-20.87948986991,265.263970479514,68.5118184324542,80.5573053246369,-0.921320442797094,187.126842034319,-26.5453485089223,156.969265989553,0.847295168033231,71.6948296314154,-10.6775460383031,181.152422183204,-40.145703113881
870.911832463601,118.541487491675,4.29020497447808,-0.937367693940027,-3.88269995400302,6.91775616260343,18.9801682840186,-3.35293851741763,279.870326996398,-22.2424922483427,21.0775978317108,-6.8079877221604,107.662406371621,-9.34397814313654,319.376490674065,-48.4909425166954,114.529505382724,-21.3163490023727,251.009327925876,68.453077739819,81.16819368423,-4.55446218820768,182.293606404311,-24.253353066851,158.370035277905,-2.16171788872661,64.4531120889119,-8.8920721951408,175.102257619173,-36.5599108340273
865.882367565939,126.927041573384,1.64292035182325,3.94693054917877,7.6002240165726,-0.339590804300491,16.228602235112,0.246815812914089,293.08624250368,-26.2882962058782,11.2770388051854,-1.21276117280475,110.268253456612,-8.16331184337562,338.331857710707,-58.1887853919181,112.826076038798,-17.9370765077497,259.10011947039,66.9928695681613,84.6712663281762,-6.66405854457548,194.920355731512,-30.9300745840488,166.447510842252,-2.47168791043316,65.7607602416417,-7.52110603959281,186.952502929629,-42.9930057741481
873.041771242859,128.370934515962,-0.171855830218597,6.06660748760255,-2.10454966282531,4.53967079644828,23.2570216655779,-3.05232085679054,294.364538276029,-24.5370664881731,18.1905498282891,1.32996869993113,117.679791394653,-16.3305456769889,329.678759093932,-50.7650132874003,120.933502260165,-22.7594468897458,273.706182039778,59.7490228557461,82.5242326296354,-2.64288080480856,198.001817857075,-28.8336145059905,165.074847281252,-5.83340494215469,48.1864448908679,6.1543242459739,187.84113925899,-42.5929257233098
868.218137982783,119.0059004895,2.65665878374157,0.199885518570802,2.36841459212902,2.10678060663419,18.2732012091404,-2.72565078226812,286.128746188044,-26.1150066227589,9.72110512281307,0.0292071124990227,104.222862039946,-11.1488489300471,328.926357179365,-52.9786523071098,112.35695558244,-20.0132671977843,258.92125650029,71.1679713244078,87.2300892743267,-10.6849702987487,186.771391651114,-26.118025871576,155.943983641368,-0.392418478022355,70.3730401921692,-9.53583726093879,176.495995341106,-34.279515470458
871.3545662302,109.664378945447,3.85971744824408,0.879938914814077,2.1262673140578,2.96650316357969,19.7643881187364,-3.27699138054276,297.753107352127,-34.6321294835324,18.6330330585252,0.258803846273357,100.372677864866,-0.375538472492231,320.887151798212,-49.3135273450052,113.962151746872,-17.9413173396049,252.236012089916,68.5018749438567,74.8897054361417,-1.70831770415291,180.700064049245,-21.1652816755405,167.178585255831,-3.47628604531965,52.399802394679,3.07277487793906,176.534412977953,-33.8776151720208
865.469860138352,123.003490908801,0.895637726411354,1.72108900157891,6.71874796271372,1.01852064560168,27.3002568961103,-7.38673150016469,299.087640423612,-27.528590717617,12.4474246196917,-0.453886815335556,106.155868032488,-3.70145517784736,331.839122107999,-57.6734813004137,121.108409358893,-25.0317632782079,264.443066381075,68.3340010010391,75.7820332391778,-2.4943807053805,197.361758704023,-30.0752436289784,173.087370423912,-13.1330996482506,67.7859207147671,-8.69978487244511,189.049171039834,-42.2725059485075
872.765070482384,123.666524285164,3.59371754159047,0.97705469879027,-0.754364835554478,3.66182688586133,34.0447886223554,-10.8147646099348,300.776739631947,-36.7830365638673,11.1359196186417,-3.52928654963952,121.162587464116,-18.0187587947377,318.409874871496,-46.6548580426022,119.547550953603,-23.7938908646385,253.369581858111,75.6532345062014,77.1467769546948,-4.19261356004079,182.011327207792,-26.4814083785366,169.37971888986,-8.0109579921015,64.2906081992052,-3.06047054924646,173.112155964039,-33.7457162114117
884.349106657046,109.608005731616,4.60306876937977,0.66478049518791,-0.211277624885845,1.83098006722062,21.5043310422594,-5.52734107895074,294.93154465278,-27.1298136895093,18.9701333297403,-4.00492187302387,105.013366307802,-11.1591926885048,322.757795899229,-49.2959443734768,117.475843918593,-21.6067783150203,259.072689843942,66.6425710005855,80.362254125256,-5.14423992192394,186.964505666542,-25.7233469369114,157.054370429604,4.78089789309753,51.5518076395448,2.33812308996432,176.053996413561,-33.3758886391152
868.890581541553,129.871558268052,0.897252975516373,3.0505782045896,0.952805310380738,3.04412363396316,12.8083205580819,1.27489713778999,297.68869679875,-28.2763354432817,14.8244169936718,-3.23788570485428,103.955826468952,-8.80359719942442,336.027611249635,-59.3120402330822,120.146741252891,-20.7119176806047,259.060385461187,68.4527919885836,78.3597495918264,-4.8710978317235,186.059307057609,-24.9758842950954,155.506850701909,2.30747753744126,67.2887826703607,-9.17230102154763,181.009446773805,-36.5748842437746
872.23990335655,122.68488562277,0.357802974851901,4.29209866952123,-1.75167433768885,3.24732454574243,17.8741027862207,-1.7182828946898,297.59493204618,-31.8615362211248,20.4910842137492,-4.20972208771193,114.663174073169,-13.4145753829516,328.936542340434,-58.2331929880001,113.884444702414,-14.8877129367516,248.021163716511,71.8118975547366,73.5493781433157,2.7603414128651,193.884691841431,-30.4551912831868,181.497485617362,-13.6169511878101,59.9983949694712,-4.1471616845045,182.128865214438,-39.9606907538324
859.507932338359,129.310056230543,-2.34207734535358,6.34652840566814,3.4520068236814,0.594580317632193,10.6597631564255,4.08904504653402,294.031693104884,-28.2415555915887,13.4364669393337,1.19466339346422,99.774873896176,-5.00457842446496,332.163118212325,-53.3593732927031,107.467890203372,-18.5912669945544,246.57878795976,72.1544816569486,71.7308582925658,0.335108514232969,191.293327344689,-27.5297996591293,166.082038768828,-1.83681682850453,51.9929466118237,1.15933940231035,184.640060055648,-44.744991575157
872.391520774412,118.671117738124,3.99785439133928,0.958403061398316,0.191939911129444,1.65917188635138,20.5228957448907,-5.49852039956807,276.627773851338,-20.868201674977,22.4936707182242,-4.16131545619252,118.546871616657,-14.4801591899692,318.658501246349,-51.322679999543,110.990474455542,-22.1246417189307,261.967867367541,68.5813519601545,81.8477186422424,-5.04071284932811,192.396936054013,-29.6800529810369,164.289050635486,-1.08075494742089,67.2607884152654,-7.69178071241351,184.435741374682,-43.4952220925522
870.07123243302,139.292242838752,5.4055523059073,-1.03115677350707,9.41994839495754,-0.00169823955417341,16.6657358077857,3.16893247531302,294.204887904755,-22.9943070204672,14.8222354208224,-1.37522276952943,105.550155969252,-4.35938594534144,337.340161723983,-58.9364698589731,114.563804768949,-23.3294268780041,258.37371718275,67.0167387942037,79.0927333207743,-5.70022903763039,189.542845454798,-25.1767227453146,163.758713659027,-3.25143734975317,71.3299750886468,-10.2567765530017,187.860542056686,-40.9245079738673
863.503540807405,124.095817217653,1.75600756687196,2.99483642854433,-2.51707551406806,7.28076835079531,8.76235824241108,3.53624727604537,283.975680589775,-23.7275547788798,11.7937010926251,-2.11712118505383,115.194567927853,-9.11630557372079,326.329117123353,-52.9042176549294,112.795843446761,-18.6101284870982,248.016412965892,64.9043432367515,83.3764653030847,-8.05579037762408,183.992673752524,-28.3210061404566,164.371012226292,-4.54955686590689,57.7310201229411,-6.171898074569,183.654612509918,-40.3502299079957
866.433386942199,127.421007882521,-3.39558507047628,7.24134539102934,0.820107083362742,3.65569745118542,18.5756615679569,-4.05343155728682,292.211396980949,-23.9625336365609,1.7077261372295,8.86547748757277,115.827348289462,-13.9838962738162,332.037017500956,-61.2291035534391,112.634764294941,-19.177900719887,255.88034811523,66.5066136711763,84.3940059225255,-5.05516168906776,179.30684382734,-22.6748980998999,169.945923724537,-5.62656632520372,50.8162915967897,0.0942418027707378,187.203447714299,-42.4438454346497
885.969922690396,125.009168702201,0.877481510877427,6.6744266562747,10.1636922944013,-2.46929469894403,28.1551386258958,-6.18946126794462,293.495486157823,-26.3742208934184,19.6513302548123,-2.18445152651407,113.580877238084,-11.0349538863782,336.313041560156,-57.171947255557,116.779231686251,-21.3059578418485,264.184359907812,65.3052244082591,81.9753293107832,-3.18473957854634,178.659758878302,-22.2720391254083,156.060595159482,2.14120092442974,61.8217140561994,-1.38365713632169,180.772751795635,-37.5250445810341
871.200025601366,121.575343280135,0.910506753976432,2.07853916100836,1.16232843671165,2.42513389875181,25.4042586304736,-4.88986037268879,288.951559027233,-26.7856385964021,8.16428592225093,5.50702237809818,102.491491891311,-8.30070147358564,327.308683373679,-54.2438139929073,120.71449426029,-27.8273767232533,236.724375280632,75.1862834500683,75.932050648288,-0.676160721994326,180.713610246534,-23.1972516816232,166.225767447441,-8.24948337008758,66.1104766837073,-9.26602865350706,178.475104436923,-35.816037914407
871.691551644053,127.744830258359,4.23966564547892,2.28685106936894,9.09929960145376,-2.30553582004492,18.5054482827073,-3.79707108551133,287.81286090234,-20.5294724878081,7.61790199940523,-0.402035563598345,102.165666744589,-5.27231997006132,320.765506041307,-52.2011289216972,112.761978833995,-20.763937197261,236.704024448473,69.9480755790518,76.862892941543,-1.31406426800484,185.24123270751,-24.8478836151378,160.894016398986,-4.41282291890013,55.8839771949794,-4.73584575842023,188.788040827625,-45.6083502257144
874.263605100692,132.888137516996,2.8006932703493,2.69921633716219,3.18410184728969,2.97811799812861,23.1295243056098,-7.35911284177963,298.200528467418,-34.0040869864699,18.2401224779703,-1.36401679629034,123.373380112499,-13.6242366266493,328.424528439914,-59.5705264924838,113.890904360587,-20.2213685692077,262.926995604315,65.3160265138795,82.2555825315388,-0.370667934186711,188.469449198437,-26.9875351335831,161.743295709958,-5.1435935655156,65.6503476822071,-8.259355111831,184.724151423831,-41.3912724117027
877.884694827331,113.760666678534,12.2905514268461,-0.983286843768195,1.64568413876972,1.86792119648191,21.4579114955419,-5.08254712106275,280.842957246253,-22.6923159534763,14.3522118500826,-0.941945948018859,106.642022198761,-7.72814352292528,316.060106553575,-45.5313449892054,116.623143028193,-23.9115589287861,232.359711144605,75.8789621676385,77.0018510395359,-4.9301678667075,185.856031099151,-28.1733760408961,160.970757265655,-1.62655966881168,59.6326459660936,-7.58359158266472,174.647369026767,-36.8833474499177
878.610163466492,120.691284728297,1.76624722759629,1.36924716048926,3.31236062593207,0.38141068981502,19.0952844270376,-3.26133088336478,278.457490402778,-22.021722152708,15.7004550395902,-4.03756355688274,114.885479416395,-14.425044102464,311.772204480821,-49.6240696813115,107.675706140192,-17.2300061510048,245.102562891489,70.3026999513495,85.9639658889928,-9.90518706898417,168.599429314435,-17.3612278390804,160.621873976256,-6.37383584129767,65.0688138483587,-5.49793154917816,186.290706906884,-46.1054562355358
878.845443507061,124.509913240248,5.19138179728855,2.11837335778169,0.938419453773684,4.33588001042835,18.8931387806614,2.35627279040212,282.77587400152,-22.2493502779907,16.0096538656606,0.254446490427129,101.716480275617,-6.03117600163359,321.509208744856,-52.6218640781292,115.889277930547,-22.8694951401053,259.018672226591,65.7125668841785,82.9614034417907,-5.34242750013624,178.911697229338,-24.316915556115,162.16389487989,-3.13893800088193,63.6905738824519,-6.99929939580635,185.091677698756,-39.2751454845859
871.664108985714,120.882490095299,1.479002662708,1.9096073525998,5.7749330337294,2.4637487933383,24.6003044713397,-5.56671783995553,278.072820313299,-28.6012572289181,12.0164024112614,0.313688142663888,107.218148407987,-11.6293862577014,315.540639802763,-54.3667145631036,115.372901449732,-19.340588095207,241.430624491107,70.819005808158,77.7755953415139,-7.98881999972295,184.092171893736,-26.4846900061575,156.212942953996,0.0964623582391181,53.7358552052901,-0.643413911436142,169.537885933726,-30.1365471824626
859.431319916144,123.422011328121,-0.123976952101178,4.06624588020909,0.268914837465899,5.01081987256883,23.3688683059185,-5.22081292526083,269.847059282487,-20.1052715069941,19.1714453378238,-4.47834773049482,105.78836733325,-4.87448499397469,304.557835713151,-48.550351779969,106.019421650422,-13.6368345215393,245.235658814911,66.9196927122105,67.5006434884309,2.42386141754945,185.680139665116,-31.2948988445324,156.806084403175,-1.99789701910198,62.2523654621379,-8.43056716551026,170.165608849494,-32.2517057323741
864.507052672885,129.583830621056,7.22146948968639,1.21407877074901,0.933289469560134,1.3478556149004,25.6522084333358,-6.85591401919634,266.263093729798,-14.4720002832756,17.012996599579,-1.4858865658889,112.47715417006,-10.5557157997891,317.128963215639,-51.1657769409857,116.712613030567,-22.1302338014703,241.195194364605,73.9361924153007,71.4771987087334,-3.49143398195875,177.370587829133,-23.4959264882828,161.085105180156,-1.37472816172664,67.0750495043037,-8.17982301782548,177.079540833943,-37.1638951670943
854.885845514056,137.233653348625,4.63313599462117,2.39322464099159,2.28705946318009,0.428951199736482,11.3373043399136,3.83885049728334,279.425564807259,-28.7762694993512,10.0686731952676,0.906368714809202,114.885208748899,-9.71049609261485,316.918242870979,-50.3525174733626,116.63692968071,-25.3230512336954,219.841091385932,82.8078723005139,78.0137952581576,-4.24206724547916,178.837047295044,-25.5616818583122,155.19377472647,-5.25901624446547,52.271476806827,-4.29331699035713,173.428883743064,-36.1818201874464
862.821459564673,117.337102526316,7.52903613386913,-0.549620483967406,4.76258011590744,0.283879754330226,10.7426585589824,1.10741165001698,266.265753201276,-20.9524107644516,9.74381223631971,3.67915992064493,117.564234085878,-17.2159813259123,312.224750855354,-48.5473898375363,102.595690489654,-18.5221588604611,242.85586256837,61.7052351859972,77.2942826424372,-2.11579553305441,182.533179818394,-24.7953538170367,144.929928043617,1.78495306244209,50.3451389096248,-0.00766013476868871,164.151291763768,-26.9264893702572
865.457889484772,127.506730455758,3.8066063396714,0.843088623869088,-1.12021383162549,5.68024782108826,20.8788759550681,-2.17375257980847,274.487535522411,-21.3331412932636,17.3907597967972,-6.00082667805058,107.643094408801,-10.4839581567962,294.810005910804,-39.2255099717079,113.173662981725,-20.6973541059815,241.628686661354,74.8948984437186,77.5896376713088,-4.67467169458873,177.552778235159,-23.3877501923248,150.275072236131,1.34182631457166,62.1392227949556,-5.84748223327814,170.404729769048,-30.8537322750888
867.319419952458,128.123242175287,8.25791995253715,-2.49724286359923,-2.12629351054733,4.37870696514207,9.66515183354755,0.015328828421224,273.445933333286,-18.1879559729992,16.7421116485473,-3.21269214897672,106.669583739759,-8.10739512549647,315.283961214402,-53.9094449660479,112.987993834092,-21.0524311426309,237.337875330188,75.5025200886635,75.7601767896963,-0.517387870804467,182.852924318198,-26.0026790363165,164.075386426369,-7.99256594447461,53.4885263368701,-3.53164133478697,172.247669399615,-35.2231390902484
872.076763462627,114.640011448551,-0.00113947695135683,3.20718651531658,4.37569767740046,0.510325291680587,16.3060013020538,-5.20990430646185,282.526153695682,-31.6201126914988,17.8495898933667,0.245128847258399,109.517695711807,-16.2597941619143,307.531309844143,-44.463339658599,104.618635847751,-16.6312827943511,231.963607553794,71.2899835572713,66.8675595146188,5.19454658777262,163.16035551241,-14.9233638035048,148.921876468956,0.701496934283916,54.7504252965455,-0.147615627413329,168.759523383855,-33.8571060896058
863.523358211517,124.387269253102,4.65344455674431,-0.412712796549279,4.8748604137511,-0.0619830243685659,20.637148925872,-4.97426200215917,269.972349163819,-23.9160328036147,12.981739898363,-0.467424337421707,106.316648947986,-6.50376055611897,305.255071426734,-43.3052228940608,113.562944273986,-20.8310464638466,236.895364310003,70.2199517923319,75.8747796485342,-3.13686833615505,171.498947016783,-19.4277032666931,148.666821851188,-0.227755587050497,60.628879502912,-3.98247220021961,171.146819257221,-35.6487044350286
881.555204861435,111.890061928169,1.5801025452808,1.14585934895904,-3.02667065338564,5.22385149292824,19.3234301047921,-1.885165980736,284.062528908198,-24.4042567849668,7.65555530100817,3.51929349493407,103.973135986364,-5.80398550109576,317.052573174299,-50.8912774332064,119.763875288373,-28.2051703792014,244.298080954717,70.0878332908256,74.8056961854947,-4.56246983861756,173.468349152391,-17.4564551131512,158.554834771491,-4.72612266927484,54.0679109694944,-1.84985277997058,178.792899687907,-40.5444131816809
857.387699394726,129.384564621423,0.388755816887861,4.48967808854846,5.16864280370103,1.01100751053641,23.1981687141663,-5.78475888401117,272.357134157948,-22.0519550696677,13.9888849277001,1.76614023394426,100.481593518755,-4.64544610829914,304.829620780512,-48.1304245251689,113.905573255794,-23.2738489966104,229.009830975286,69.2049816728728,79.215985451202,-2.506184757895,172.901801483546,-25.0388998464227,148.383650090378,-0.353788008952119,48.9439947830518,2.30324712685652,170.479903057081,-36.6030699828553
879.29821870082,112.306249137661,2.72034400425135,2.16600566577706,0.0560199328688403,0.946309659658773,11.1908949770145,-0.836824758892623,265.525190249411,-20.6892085190134,9.62456621497649,-0.273101019258516,102.684806719232,-9.47011577312851,320.5798393452,-55.558617866596,104.209910643969,-19.2734106246707,230.404251943363,72.6384646318938,72.2787962960446,-1.14248232688981,188.124539355091,-34.4237797792637,154.282991833796,-0.280060455402177,63.7419266744819,-8.69676920465964,171.472978833763,-30.9182304460314
865.82575269629,128.089588977396,1.57233981576942,3.73033304330268,0.985163028412927,2.5052620711511,22.3723665267762,-3.43716151321198,289.28530753765,-33.0633434770228,14.6285283627696,-2.42911855391831,101.83572885232,-9.19527189148444,309.438618337156,-47.3205231798878,120.38529121976,-24.2132468108228,246.187837238087,70.1479100340841,71.0235888224875,3.30078372769881,184.800899943048,-26.1484586124632,151.771772728898,-2.29642440906213,50.6361529043285,1.00072248556267,187.792878308861,-42.9208759501514
861.510192002022,128.824681282224,4.36203107140122,1.93231163717469,3.76716494628841,2.66245347199849,14.2101663610791,0.629729062055324,280.16063259927,-25.9937725712175,14.7767474865052,-2.09281706000651,105.762942137199,-9.00810783163798,302.693372547686,-44.8358057599846,114.704336422288,-26.0634525831926,233.503191343687,72.2707041553359,70.8007498410065,0.135334383324908,175.312174130179,-22.1194958684354,149.431048868985,-2.82933191139542,63.4083275022089,-8.07297624798553,185.542465927587,-41.3689209225501
863.948023021986,126.146874763815,0.222089845884364,3.45819966312628,-2.64018800140877,5.39215872598958,20.9378032537044,-2.2994244316005,271.632575783766,-22.0506067491918,16.8392761982791,-0.710282998008114,104.658802733988,-7.16949004196517,310.170286398392,-52.6108602015983,99.7340577712289,-16.7852289460982,236.692609068351,73.9841356375931,75.4288322387412,-3.1390268149557,175.919627071603,-25.8740858175057,152.579516711308,-1.19012525546677,59.6330775637486,-2.33501130527729,172.610882194879,-37.9013362253759
879.090495590578,120.442288908316,4.07404981232911,2.3789959956779,6.50863274133248,-1.09975129137047,14.0412066001174,-0.91419706973736,270.719416337313,-18.0268162706494,6.65089235668614,2.33783579743857,105.96170105512,-4.16866962681757,299.901935395907,-43.037576235325,115.930801252595,-23.129463584872,246.67853669766,69.4652792351907,77.9546207741699,-2.57023888344574,181.797071389699,-25.4084895391945,147.308065902898,2.71471997480018,58.2144501823766,-2.59602985822861,188.41636708839,-44.4900056809064
868.035363230771,131.285695533702,-3.74777407303776,9.23266401638054,-0.42237414954189,2.7808285190969,21.8510913284518,-3.57427844132229,277.099854943775,-25.24666015196,23.8883407389169,-5.62465324009089,111.884240621085,-11.2101297548468,318.92980497557,-53.3366628860789,116.47163971105,-21.0951413545325,249.816980121068,69.8318299042761,81.4867893150826,-2.73785204552632,193.226304298417,-33.1965619111394,145.891027072596,1.75117175047433,54.8760836021517,-3.30344451923266,174.715588333897,-37.3206898058003
876.628176187389,113.841293626655,1.7447155757186,0.0598147351570949,4.04422289906988,0.227717290803527,14.5154249246096,-1.51312545671117,271.352936303828,-21.1017166029037,5.10483430276911,5.75793017389278,102.135885194609,-7.28929724597358,310.452792721224,-49.6250733552593,110.713644027156,-18.3660186367958,226.441533751205,74.1255737738549,71.7050613293,-0.240609198169433,174.881905750093,-18.9992037434219,143.663321605613,-2.48093621811009,60.8018765730599,-5.31617039249675,176.42043573476,-33.2288371680914
865.580236921312,123.043565419209,1.71769587437982,1.65474829408892,4.02082610724634,0.00096537236466233,27.0499147097436,-6.56185293791829,275.28468068715,-22.9130285171352,10.8963526517597,3.41668610316938,106.578810753544,-9.6105428735309,308.99264589883,-43.2485656224076,113.592804412587,-21.8781098800598,231.625142326602,72.6652426310072,74.166215863186,-3.88763698976736,170.939885669489,-19.5010137027403,144.986944144695,3.9012876444121,63.3560433264807,-5.88064802549312,177.145669885511,-39.9294276358104
873.28977676302,130.281041125101,0.740393353362297,3.8688873881893,3.26199664658626,1.83494942457729,25.4150763798241,-4.88730635631446,269.201931004686,-16.4340397028878,12.9380882324798,2.51403803146303,111.317466384493,-9.08856752680233,311.053516582198,-50.3946150651834,111.710402492787,-18.6196855924135,244.359647541659,69.1049690131693,78.2563625897556,-4.71205922325377,181.532846229461,-25.6480650121454,147.094577541081,0.897518042712082,63.9072320332745,-5.2039489948932,180.43165979233,-36.1704838462258
853.554178948968,133.792477953021,7.29847069880777,1.8032894300974,8.25723846846807,-1.85585562821624,24.305182812433,-6.78181276364049,261.381254584226,-20.4063202493006,14.8967516150718,-1.78866164883232,99.2091058365819,-6.15458508905686,314.746045660365,-54.5582884079969,103.674939615313,-16.1313908107378,237.293430831843,68.1031693535579,71.1555239692866,1.03212342002787,177.476285335735,-24.0536994212788,143.211696277837,1.14530223081053,59.0384311126776,-5.19999154530839,180.663682162018,-41.2849311620144
876.078808984746,118.766358973522,-1.05044618877159,6.5227366147963,1.72256526535754,0.805536387407576,21.6774042804574,-4.96529052923645,272.796969237786,-27.3998169779464,24.9292214263775,-6.3066493444205,117.924180062326,-14.5821778342513,312.230468541255,-52.1464599115021,103.421465764536,-14.1259562674982,236.104004217197,67.6753599454075,69.6220583358788,-1.01377840504675,173.64210558429,-20.645707838299,144.791065741534,0.145155986989594,57.9297439248701,-3.01639330423294,185.141262211955,-43.0891581604884
867.272113411633,129.601611828238,4.83780631359053,-0.290582176525001,4.41906665017268,0.360274020519999,14.5412529501222,0.20517858464433,279.415223448239,-23.8079760285059,15.4115630397149,2.62671544790885,107.324250693725,-6.16175150100179,295.346486481032,-42.1129891225367,110.487643454653,-19.6367093375572,236.468124544759,71.8983915634403,78.4405280650124,-5.30995693777654,170.594284013823,-20.1206864664395,150.009118880351,-3.01226881175215,58.1110846356415,-2.71305054748349,175.980628647579,-28.7970462095091
877.968467674715,117.920511491492,1.62052476404827,0.879499843255226,4.49231910973553,0.536396237470481,22.660479440537,-8.02809206309116,270.48183657625,-24.0067776346073,11.0395537179299,1.68165670578964,117.828689655866,-18.943454972883,302.38476968245,-44.2645369618439,108.786881518063,-20.0333728244631,235.848335737639,64.1222216558879,73.5385105518746,-2.48040995476805,174.011717673392,-24.9415814836249,140.914334311795,0.207786804221839,57.8141877186009,-7.15063026913503,168.787860193434,-32.5852206443638
871.947834244208,125.587671037697,8.63131570515258,-0.669819523027459,-1.27607917342501,2.82912433091776,30.2029068284529,-6.70313381145205,268.323577678317,-25.8967551188806,19.9063294580827,-2.7579663609061,103.952177747419,-10.8369781776925,307.420000620116,-50.8060545812385,107.887438719883,-20.3039357587731,233.844228179306,67.3950638865672,73.5382731740018,-1.68483106207314,175.380788605705,-23.1319724680412,146.128816942195,-3.69886484494408,44.4247251757226,0.385991277451434,177.831899008622,-38.7680566685619
868.274108849355,133.721952516291,6.08232795227252,0.582630150877646,-3.3992460468351,5.85265879315234,15.2282307552696,-2.27790408205914,270.491852206128,-25.7945265237863,14.0656293001192,-2.19601092022489,114.122925142165,-11.6949986131542,307.780390634353,-45.9403807047923,105.568940363109,-18.3489907401174,230.637447457032,75.8738461844051,74.7434327571537,-0.052258520647393,179.765361505443,-28.2924364837147,156.822118567282,-5.74294518240801,57.7544777585857,-1.12709382020373,171.202353636225,-32.2331471110534
865.387528487668,128.262823688555,3.2631938879181,1.71294920475847,4.91567309863076,-0.381342026005984,22.6311622986578,-3.78482967028213,266.121100576294,-20.7541373073413,10.3196380899558,2.30400000992899,110.205924301054,-12.9768576597814,305.631013042958,-51.6475537964223,111.512061658324,-21.7445468745149,234.809273337122,66.4060068779406,70.9623246643502,-1.45596701145412,170.581460757625,-24.0351305643053,140.10112886203,0.653439844447792,56.5568569167345,-0.836652573009468,172.73166208348,-28.8704473284215
855.387629997797,128.037773635482,1.35380529757496,0.798285517147738,2.9220774343912,2.9485984521872,26.6489884413847,-5.15659133627034,264.539852396725,-22.2742234506443,23.6795890481689,-3.46740333059804,112.389073751206,-11.0062926012127,293.000271583335,-45.1183221168301,110.764444938052,-22.8519840430239,234.262662225756,62.2146854671282,79.6877716330864,-6.70944093807678,170.777209086109,-22.8670704645969,143.645083062496,-1.13424887411758,62.4249259157995,-7.99810063557594,175.535549531223,-38.1187395350725
877.802312474203,116.31384475773,5.15902413773092,-0.0986987232019895,2.1100433794039,2.68713641174764,21.6290487843197,-1.12000281996703,272.833757015421,-26.3875088711882,13.1088104950103,-1.38083259792459,102.729033337714,-11.7936973079693,290.772574660781,-41.0901054934372,115.446563726242,-26.0778551622833,230.333734400746,71.3120082154635,79.1122975726204,-7.34870386453781,161.18930386332,-18.0070610566176,135.305588843284,12.1932545075005,57.0849625161284,-0.84991998213298,180.701868918915,-33.9779597475788
878.54056498212,124.884534824272,6.81804221630511,1.89501921396923,8.11159482465318,0.238500228180928,25.9855238809436,-4.73932588519259,279.879785934881,-26.8317500660238,22.2344272108975,-6.05334820999279,107.898548029606,-7.48011663125981,293.126289503191,-42.555270412907,113.382229499816,-23.6224599138851,238.064176677841,67.9450436723487,76.4295707057651,-7.36635366395431,168.721045751418,-24.6154251618501,144.780364759816,2.58912956844308,59.2988768252794,-4.7597917006917,169.419219675151,-30.623059296432
865.836104533721,123.53688112176,8.88654591547103,-2.72593514927264,-3.13912292347815,5.70459174744362,28.2126386637203,-6.68719840761999,257.188022162948,-17.9966198905842,7.96091084942394,0.0921221568257748,102.773491856411,-9.45992170687332,274.399607653272,-34.843882328114,107.319286366593,-20.4832817886936,223.883711305795,69.0721842395192,77.9600919631269,-4.89950121179479,171.785901241092,-22.9309666324225,137.242514662836,2.69680053676896,58.7283198364897,-1.91336311489315,165.678673768607,-33.2205592448996
864.094220658103,124.080372619498,1.97393809733967,1.82446447684755,0.543252787892098,2.29323094820718,28.2930958724168,-7.65685928604691,262.975854103084,-22.4726670497115,9.97017173692354,-0.269202062378641,94.9577952129133,-0.814242691816434,281.586286051944,-36.9686371718212,106.562872504061,-22.1693790206644,232.20534203966,60.0739247369547,72.1664435018108,-1.85881623439776,177.801387795757,-27.8618180196598,138.223784746984,0.979404162103164,54.3724573392209,-8.97484250032596,172.433725445959,-35.6894279061584
878.013587910005,128.562188604809,2.54900427510386,3.16828611078121,4.49688557029494,0.161542828111769,21.3990957622619,-5.51643496436218,273.323204731892,-21.0318272494762,22.6465582634106,-7.87575969652849,110.058084797248,-11.7984863677951,297.961844048794,-46.3755247582007,107.494507306121,-16.1879917513918,225.302445472264,73.5275817819427,74.7530051151936,-1.4958525215617,173.887227444815,-23.3228816600494,134.041432093785,6.69729395821314,50.1819719771332,-3.02907336263149,174.201819218323,-31.9619009778982
850.422870773701,124.883300008775,6.7087832934461,-0.721065406646914,7.53407027992697,-1.98671751757701,24.4545814012163,-7.51896605270898,252.743719484829,-14.1586347902034,6.61984971124397,6.39805140436255,106.871558242507,-13.3149752629609,283.416170487688,-36.5749510419147,100.986911625143,-15.5812271703329,222.931095895907,67.6562113406795,75.7389713861889,-1.94442546715908,174.390711318202,-29.7822653870906,142.870758537489,-2.08336926357469,49.3964694604869,-3.55882248458489,172.611093469702,-36.5067382674029
867.212983579281,118.415429122974,7.56506622356043,4.16295013894096,3.06930056789488,0.531863746234422,12.8809095154052,3.34279284805742,254.329934626181,-22.2427101063933,18.7660139658006,-0.852823909801242,99.736563233508,-7.6678102034145,296.102575377259,-49.7717447200132,104.072426154998,-16.7997769129208,206.151510295613,78.1306101915983,70.0648974677048,-1.52064763011137,163.973792686211,-24.3318169525645,139.59627496757,-0.262922078929736,45.2037072965272,3.865128481719,169.233757978027,-35.0833048735406
873.22482748023,124.316935304552,7.32945390300374,0.715518302339391,10.4135542074906,-0.787194765705452,31.0618467313789,-9.02848155098887,258.293703586709,-19.4774226009403,17.5105706879637,0.518153537957683,101.944956743966,-7.21986787568919,283.863899450856,-42.098322285991,105.501284216294,-20.89713181595,220.174061622321,71.3123474087238,71.8971301338185,-0.79276834964056,171.057611982409,-24.6666584740181,142.117147084647,-2.22274708455132,52.1065198718025,-4.54501520751334,176.939893370801,-36.2967287997978
864.812830127192,119.502466505625,6.83882451938902,-1.3109586024553,9.12749907093659,-1.29825632377402,27.5358426275174,-8.43149476182094,259.540987611836,-23.3384166743602,4.29007534282916,5.70655677742134,99.5039173601589,-7.94262109278807,282.24663392588,-44.5151609723229,105.659028682401,-19.6011220554896,219.060848019581,62.0135329572566,77.1821158782992,-3.8929731402358,159.817943349955,-19.1831013166872,143.990270385038,-8.34600212183884,52.9215741523991,-2.85150830943244,169.803469442909,-34.7554725241791
860.359444403343,122.263354420061,5.20640870697271,0.416961050389927,4.85003928978586,-0.197418648573458,16.5459126228839,-4.46474060477754,254.300883988598,-18.9389224893096,13.933468319786,-1.42413034730732,97.8536031615422,-7.3236367462877,280.181663661153,-39.1106955070794,98.2954969645951,-18.0879492056062,208.717578987254,69.5822518305708,65.8228293135366,0.878876904713781,153.835277566056,-17.8268962050678,128.440879465584,3.01089048125502,47.2013179842313,-0.908081902992379,173.985844368946,-39.5237004312768
867.341074546293,114.992495412637,-0.896704319709906,2.61518727855195,1.36618993512421,2.8709043325036,21.9141060160168,-5.84151291755396,254.610905657796,-19.3927096295164,17.3698041308114,-5.4224007315983,101.791608256272,-10.9147622269863,283.539745169043,-42.216793984703,108.362026079944,-20.2889963141018,224.691675917546,66.0292021566536,73.2345548594242,-2.58257650534431,167.591436415372,-21.7295569715368,140.050193465599,-1.96949044263729,52.9608518327019,-2.45471862576554,164.412724532744,-29.6832424796018
862.722121053282,128.374899114441,5.36924043689556,2.32118657656938,-0.787017273158295,2.2360942743998,17.6241066872978,-3.12429269875964,246.569904957255,-13.4920439607003,11.574554504033,0.10638191385052,102.295398890631,-9.5164475547713,285.469359965174,-44.9006680184447,96.5196747928633,-15.1991631773722,210.552140658113,68.5686938348214,67.2479206305159,1.84965103294924,165.634123022615,-20.9654819432004,126.880865195906,9.28339585716447,49.5061797931157,1.20663219457501,173.577146665622,-37.7736915909507
866.701251182596,116.684170208118,4.17817209322673,0.748458686094912,5.1552573765255,0.737604992334779,10.8052206912067,-0.481361273056453,256.826240900111,-25.4120324081515,12.2139602429893,-4.31678090973758,99.0878377130229,-8.15995890163811,281.981098292568,-45.254485579764,103.606274708549,-19.0734997138831,212.846192856612,71.5500117281574,73.8313946362256,-4.46205331342811,157.464948616091,-17.9303775180573,131.557063519947,0.396583606937083,52.1102566894088,-0.482956028352932,160.615768563725,-27.8494951679417
855.251113686818,127.830728683463,-2.85389121937415,7.06826354947738,5.05256249656833,1.33277155839593,14.0960920141107,0.201241131140334,243.930775357044,-14.9209070214202,20.1961751074046,-2.63097359800864,108.679525122239,-14.7613373148843,287.090676275667,-45.1384457658497,103.143137047155,-18.2699333814437,227.206158194976,59.4912637896123,78.0350448449544,-2.35548097353106,164.525304400406,-18.6328732874019,132.894896899883,-1.46329131861772,45.1201517763296,0.589386109580025,175.779478325951,-40.581782627303
861.156083692424,122.755149094605,-5.09511838532247,8.53120629901165,0.62553367721288,1.62096784155294,15.8987140220492,0.763094682968898,259.279444272291,-23.3486660912841,17.8600516011497,-5.4958841811988,100.250708620113,-7.86661044619904,283.416917759888,-44.2912814233602,105.255609489416,-19.0844166221024,220.610867771784,68.7906944603465,66.4585572526441,0.00818276710545649,171.182485433441,-22.1689695859628,137.725330424813,1.08448308369499,48.8821238638757,-1.48401437695217,181.740009987242,-45.148008054539
849.207033360303,123.271137450931,5.82570112154782,2.83272330684123,9.21943532005153,-0.251480180834245,14.2692744581422,4.23436382023385,243.062261176445,-18.5298464195406,10.2278461086691,-2.41550855177171,102.861298924761,-10.3781265876335,282.889768358077,-42.905962979085,100.690206561252,-12.490721650688,207.411034943887,71.8952752935274,67.8888332704063,-0.0103206976628174,164.242643275733,-28.1512675151883,129.682569975934,3.31867279999272,44.6688671462815,2.9342286447512,155.933110944001,-29.3472902908008
867.68679882805,118.466858315942,8.03988247559012,-0.0587754878362408,1.72297484157924,2.67010574758767,29.5338846738451,-8.02923815672292,249.355164200045,-15.6969291221937,15.5292817244499,0.514386499063928,103.601960984315,-13.6182137649725,274.001559448959,-39.4629597050517,106.77573101766,-19.0655914764915,209.719760757344,69.6908176682335,76.5199329663805,-4.29405064798028,171.756283451383,-25.652371431617,130.646325198696,1.37862182551615,55.9327110799633,-7.40448319785363,167.613610631757,-30.5721599833036
865.941804708495,128.835686980408,9.93296967453199,-0.372205245420802,-2.88036723874508,6.23128463296986,28.5661681367257,-5.03163513216486,253.313747315525,-21.4081245441897,13.8228721073413,0.33823386791269,107.09868445447,-12.4616629062974,280.752864228006,-43.4516395912061,101.657942719295,-17.4905454564246,214.574080079417,71.9718732570639,71.8442921938069,-1.4710761347448,164.95114771672,-17.1583916864419,136.227052635192,-1.44820982129856,43.8831994450943,1.07835708994114,174.064212954521,-35.4219922310792
868.947759427243,121.009060836515,6.49383117067365,-1.45528793479691,1.02448456650583,4.14918787253774,17.143840271728,-2.12399002348954,239.572733936704,-16.5611398346552,12.5859861580848,0.317878730229447,98.2816412524799,-8.22847212292373,282.712310553317,-43.6173834876016,100.214725622534,-15.7604947336393,205.417234967032,70.7407462339076,66.1322169888958,-0.365797772213315,156.865772317442,-19.722648901409,131.256529804078,2.42903295375776,54.8253561925571,-5.93433450312509,167.917521957888,-31.6599493603041
873.036012746849,114.386733544954,8.58969588949255,0.399485278909067,2.15611974123896,-0.061920479116771,14.5844198168904,1.34698890361325,244.104476574633,-15.2171399828885,16.1080064597956,-2.96081132440605,107.993731597044,-11.2705819555967,285.089860451593,-43.7255059745881,102.275631965436,-17.9852366215414,198.995168529601,74.3697738348067,72.9178664388871,-6.26398927063507,169.328149225987,-24.2400840193712,131.058820278463,-0.702378682234883,57.8035834958324,-8.82780712409371,174.586389813857,-35.417108996557
873.98038290091,125.363977944652,6.13953985564699,-0.68004115343682,5.66054796125943,-0.110076017347551,23.7892724007684,-6.4588316693001,254.006091764136,-17.3554448338857,17.6661577455182,-1.65022238152173,89.9822138476751,-2.47147688556367,282.736264643113,-41.2690083978179,100.94082623277,-16.8558950807828,234.192081512484,63.4022547859969,71.7761726211527,-5.80985094749967,166.28664915491,-19.9509243580646,131.477492963827,-0.489253672720269,50.8986052101629,-3.95873733284838,179.989280047423,-37.1699770511084
851.137759099439,126.634322090133,5.0036137967456,2.63504928430956,0.692019542742342,4.02676234054591,27.9378640371735,-8.65686590799723,249.178222159905,-16.9225281677306,5.6836815230028,1.2172951319841,103.251525027109,-12.1699152576356,282.386260764679,-40.6640493109006,108.838986488497,-20.957915219561,212.930697922199,63.8521458389883,65.9896326419515,0.459466025992702,161.734163845572,-17.8160579321829,124.702511033881,2.75078579479409,39.0266127381336,5.2388055707851,173.353344719588,-35.5164781131231
875.617159861597,113.241400135205,2.87331423704659,-0.141364068968551,7.7357635520085,-0.473448293963714,21.352046011517,-6.03831519661676,255.060058649157,-24.5036090539337,8.45388014059502,-0.949705590596249,100.977552066216,-7.16375211353351,284.001119309931,-47.2960549123721,102.813054962466,-18.758511206241,209.848952980789,69.1421676618171,65.0446393580265,3.53073911835031,158.018993037947,-14.0361212462251,127.603003877119,6.09926633313001,44.2376664213285,1.83765549055474,159.454867370216,-28.4722894115311
861.237563186714,131.010495066124,0.709792586615485,5.25289186063472,1.64476193169332,1.31187577896562,21.9234665764586,-7.18457327152246,272.62176623931,-35.4427051253831,13.8004293985295,-1.36927277660279,97.8168388602254,-3.4433402859864,279.893441844633,-39.8829098635768,104.06069026058,-21.5136534104556,226.057632294376,64.0938946560416,60.7396210075639,2.11019157048174,169.918344978471,-20.6619963763955,140.339863124325,-1.91592003081279,52.9724092183847,-0.315037070788547,172.404272766119,-32.0166614638322
880.976890719163,119.53938406711,7.40527844486668,-1.89072310188516,7.80355282885952,0.716195254096233,26.8882435756133,-8.407796027467,256.981892101047,-21.3198732199214,14.1163929404432,3.72266848223887,105.121218481755,-10.1106964236314,280.096022369037,-39.3806617132952,94.0641418793874,-12.9496382401297,225.735780856684,62.7216220644437,71.2851818136436,0.359212288552861,166.950854921572,-19.9776399416207,129.723546693652,3.31216654122585,55.5065519759384,-2.9044348628117,168.604408892164,-39.2670505456219
867.808796650229,123.357495900894,9.61848183796427,-1.75868471248979,1.41327741800304,1.22793710508468,16.5312398753309,-4.45320509863884,255.94077558541,-20.5196086169212,14.6350989988191,-4.97452976127969,108.089122852189,-7.58524118424581,285.560319720359,-47.3344385561237,99.1918803216965,-15.5288818141128,208.10510386303,68.0095492870914,72.8494903647951,-2.6062291315671,164.134544162739,-18.0521437062658,130.908907820647,3.86845703116721,55.9851285141298,-8.55315853916312,155.850644503174,-24.8107601654132
873.491465638805,123.501996054345,1.37035001475457,4.0310213783125,0.926213475950008,0.350088209006655,26.2979478251987,-8.85572303082562,258.471881937203,-21.8972954855039,19.9553574596637,-3.98349172134677,112.39196844394,-14.2695646194789,288.524157572597,-45.9603783833246,103.011471856092,-19.7505962516488,221.735580026048,60.6966901067189,76.8632542481542,-4.59770710777927,169.467693747882,-24.8642696354328,123.958483825096,9.16088357765214,47.6824108192152,0.303566665440527,176.733089955915,-35.0945034625898
870.712880486454,125.543732998311,5.87156215143478,-1.12141881183204,4.26088728815375,0.328273059697597,23.6318149067259,-5.93667430442662,266.73844585589,-22.2653321700784,15.4999400727094,-1.93468245874876,106.047573942069,-12.201565751573,292.52801065303,-42.8040891190643,102.237567280694,-17.0106690873795,211.945305705885,68.7401497566263,73.9957667330247,-3.32193106643699,159.545042787408,-16.1409541440322,137.231257093135,2.12958134947722,51.4708226402713,-2.01317478288372,189.439179858084,-49.5234741376846
860.836447479354,131.966559972157,3.43552400445885,2.30641451759635,-1.22951890622843,3.96110976812547,18.1047098913433,-2.17494291449083,250.278026471479,-20.599161978969,14.955098876191,-3.52827375304268,98.5224564482642,-6.31339570070801,281.876073637996,-37.5381058462446,110.19961432669,-21.5558194873901,210.825937146961,70.5315471546602,74.2091517874075,-7.51440535505103,170.101230757512,-23.8827563310882,145.839501818293,-5.63665117469633,60.8723973525699,-7.23270072313093,161.206710525768,-25.9552719116783
872.549791706305,128.541140541287,2.91162119936351,4.03885872216432,5.68423671703772,-1.58221516612191,21.4847788629788,-1.15781083227169,250.354332548854,-12.9657340840212,13.9389049400792,-1.30086763495418,104.274925489669,-7.4100884921655,297.295243032586,-50.5738795212225,106.051997118721,-18.6334441893743,217.027359224754,69.6310662124022,73.7815620731449,-3.00958772263051,176.417352641492,-29.9079068340108,138.11037151271,1.63071269709424,57.2167663343544,-5.25336400465411,185.749846197395,-38.53478535956
885.63183856042,126.62410545922,-2.45576642233264,5.33101070442774,2.54229254041263,0.849867147523151,17.8907472822729,-3.69541266384831,260.922245362006,-20.5037254289817,7.95148699196486,1.37775016420353,110.898855101384,-13.0428896441953,291.702345099207,-44.6191187986524,109.37738102194,-21.8255475112693,234.918417352056,62.579098182553,82.503687906945,-6.71682871648077,161.219571583502,-16.2287036869997,139.307619309856,-0.963176986063755,50.2816930877112,-4.31492690963832,182.67362033544,-39.2643747725138
876.67841941814,118.696822250319,1.5803580749112,1.99944228392677,5.80061483927878,-1.00074057148632,19.8465609174667,-1.81367745137635,259.305684028415,-23.0661009276913,10.096139191327,2.56881050758331,94.2323549362542,-1.18995948616733,295.608466360122,-47.7309901056219,104.681478578786,-18.3365836076465,203.491477239986,77.2366696261361,72.7501090007409,-5.80585203104174,157.298839348641,-13.7479392923355,134.146764197132,-0.835891577949098,43.4962889733154,0.428867334255215,163.330128225283,-28.1690610163478
886.5693973734,122.255436780378,4.0758774463016,1.43188887095557,2.85542477699136,-0.484739071592104,23.7352596428896,-6.98494624311527,261.751230145465,-21.6987196446914,13.2538406457501,-1.0747394676123,107.455559423129,-16.2922040233997,302.476276340415,-50.1839166099406,107.123679291862,-16.9872208257008,214.875288558845,64.540628266948,68.1171802769951,0.26437346984741,165.886493959781,-17.0776466626734,138.801472209422,-0.704998583254279,39.6131576157209,4.98096078699989,172.181096571317,-34.2177965580856
867.752665835506,132.190902085496,-0.0106330833098296,3.72675397013315,3.78099170726386,0.223288815040561,20.571219576679,-1.28175867431806,263.087281210401,-21.113485572914,14.0174187667173,2.10482523143672,99.2904516932251,-3.6143659449579,290.070555400627,-41.9673885069251,107.719779896594,-21.7573559613033,222.749147668628,68.0679379712869,74.1699049532316,-4.60215488919616,166.712031344928,-18.9993703096433,147.640506519982,-4.64430709885237,57.312102515428,-6.81819139716033,179.75974958025,-35.7239152930823
864.358134798736,125.607363274256,2.87771276577159,3.1479313320637,9.59507754740652,-1.91843872442087,24.4297258774697,-3.97717668077691,266.92646122538,-28.7794056736917,12.9566489905002,-1.7662129278102,98.2107894627161,-9.25090694807915,282.833207778316,-39.7140177956516,106.413839042258,-17.2781121720081,220.104657577013,66.2632703186038,69.4619552416474,-3.74231227886896,164.805679319042,-16.3310305049333,132.781597945805,3.59461972540215,54.9442389174092,-4.38511736921715,169.806759015021,-30.0869296727075
861.023685895632,135.382508556258,1.32116071115327,2.41994428783884,-0.873934043735713,5.2815105102334,23.1316948105069,-1.05677595900119,259.183253758944,-15.5183708643412,17.0112507879708,-1.83181422428867,96.7621073016261,-6.00997560487698,288.453918462929,-40.6820260083678,103.165988492195,-17.3176518623276,208.623010602962,72.7905344591557,70.1948720061536,-3.16153878536211,169.935392015451,-22.9316711256212,138.024646136711,2.24290582447344,53.3593360737264,-4.30301469421449,175.965076792934,-34.6367644190988
856.701217658433,145.787454837503,9.79335001071167,0.746815924064834,1.47022764350836,2.03457052714422,21.9377587563729,-5.3451252690449,277.090021567562,-27.1769451928823,12.5868368259801,-1.79866667664509,100.4490012291,-8.01710755101305,288.758591845138,-45.2099356533912,114.367692228112,-25.2797449320932,220.929037839229,68.6157871653194,77.2660980006988,-7.6809171312913,170.557745059022,-22.0604186525364,126.254588704409,5.23739104491386,59.2203162219337,-6.76332120711891,169.371004477932,-31.4847194604309
872.81763126399,126.13930973432,8.16411681043741,-0.377459635355753,-0.758127471789439,2.88920742995643,24.3643559354932,-8.00777735174024,255.94321418318,-20.4961025785177,13.6185120069742,0.830436337148695,107.618903587194,-10.1283481063347,286.758553095372,-46.5618776444545,107.40264791624,-19.2160795382751,195.113695368617,74.1473860272643,70.8500350765127,-3.24700783344142,173.289366626109,-28.3074323587095,130.408648892388,5.76120549296398,58.9166956873388,-10.1129007468478,169.374716485468,-31.8300634689211
872.692652022964,130.296849210878,3.92951637570912,-0.176651732616639,4.10551270903212,0.873893362128456,13.8266007595607,1.70589512227431,256.651576859003,-23.3975971730475,22.8859536214557,-7.07600166744201,105.37473637243,-9.39505290449179,284.44390207736,-44.5874148626902,97.3430382990799,-13.974041909304,208.096253302015,69.6053349680526,77.2871270957125,-9.48986232259809,172.210926116528,-24.6065305256274,133.987619454702,1.39397250482239,50.8214230706372,0.786108735774395,177.142020183991,-39.8484519750261
893.218034524549,114.028392082069,-2.11698594730484,4.9132986691599,5.85541695717573,-0.101885308721176,18.2742178740483,-1.28480713312591,261.819184265011,-22.9338270080513,9.44399437405133,0.754032732192554,97.8545484582577,-1.24782956459031,285.721991923408,-43.6357454584424,101.966511191197,-17.7495778607647,211.174938818377,73.5539483319968,75.6753949342342,-1.41989023239713,173.339591955962,-26.7763780424779,142.371086362034,1.51132192405136,50.5838110093087,0.500689869744381,176.087725967079,-33.5420200423309
864.359524350279,126.746426295899,1.74508203630534,2.99542547448228,6.27017066575515,-1.18150065482534,16.4443007016257,-1.63091655833757,254.717307666042,-23.7030322513491,6.08571904933553,0.184763219571023,88.1448790646891,-0.433462810930321,279.655821336753,-36.2122591051599,107.780086496862,-19.6020602339711,205.071904211949,66.1173536861203,63.2082615632882,0.83470662925273,158.244509551784,-17.9862853337402,142.401187122893,-7.3089966675192,65.4872943970292,-12.7636768261597,160.626558424034,-32.6216993839884
869.553917623338,130.532999913079,1.36363649932149,3.3081835471853,6.48761346222346,0.522522748846773,19.6720704853827,-2.67633397540247,256.303239482863,-21.3420854705276,9.26667465571087,2.76248941600556,105.787157296741,-12.1882469628398,278.518230781467,-40.3357405006027,106.271127958401,-19.5203074295097,212.222218933627,64.533914748898,66.0311307325297,0.733592833674324,157.080722214249,-16.7412730050423,123.240735814883,7.30695120405663,50.1383456514564,-0.522419935152454,181.985106765042,-41.7613414500775
873.5701351109,139.635365636873,1.03341213218279,3.5224501896593,-0.776498448969524,2.80231417276788,23.6440496997098,-3.20188454538381,251.615372594824,-16.0907076849902,8.41897901592797,3.0065718992055,95.046890179531,-6.78221886369393,289.819672888892,-48.9092646021039,113.268463488452,-21.5301012528449,207.344300993022,71.3638766999543,69.0157361292828,0.245259722253424,176.297079520125,-24.9992068428039,140.422754098475,-1.01133841531305,51.3249337529939,-2.39756374789715,171.013867372013,-34.6102374171937
872.201809577217,129.263690483611,4.56732552307885,0.136516474102697,-1.40335014952511,5.08030560779403,18.4187548944716,-3.19211589881336,246.719517863766,-21.5086718968059,9.35541824111022,0.207265819576127,98.2744267590723,-0.0518431267953259,286.955944780884,-42.5124401745506,104.86089814069,-18.245787258652,202.603570497269,69.9987506158736,68.4856040553392,-1.29974579545317,165.559888144039,-19.270987116285,130.420505594068,1.00333053658933,49.7190797676273,-2.58686107038904,161.64809093464,-27.8037927439482
869.045130319399,126.070991283849,4.13525258679811,2.72112817826458,0.526982841687746,2.57361474022058,27.2235774390725,-8.28119483536663,242.56785552335,-17.2773262266093,20.6733260166476,-4.65319999666781,104.747063165213,-11.0592852768708,282.519555350649,-41.9816438944115,107.439013809478,-22.0994325552525,209.225421852247,61.128771059576,72.8295988479275,-3.45592068139553,171.22701713118,-24.8246001149206,142.75962701668,-3.24163903409753,54.0885811876887,-1.86930907992689,165.035470898888,-33.2344041376868
