955.321309939718,176.498866269698,0.286272246764364,3.14207593162994,4.36179804214214,2.22943524460271,8.06663814411292,1.82116058857771,285.918387836757,-26.7680504442692,16.9489817569262,-1.42701137625864,110.631267108904,-15.3508565645382,303.220046053718,-51.1118204002352,111.295308878737,-17.1989310199568,228.013409388414,61.6097740963046,72.6269277891503,-3.10339456289521,175.211590790922,-24.0571730096434,137.682733542039,-1.01257975752154,58.6915244734702,-7.71151471375862,192.125214123161,-46.3093310483945
972.332939657887,166.521272431844,1.83918068636348,3.52099552165571,5.88226342782977,-1.54995337347047,15.5442184580564,-1.2416629266795,284.10875083376,-31.5308743257497,7.8958511821122,2.36509685238546,110.428040077783,-11.011275797374,292.821274201089,-43.3820389883112,107.878338799119,-19.1019486721216,229.07607778028,70.6907018675126,73.4265204752313,-6.24274056056333,186.874974596805,-28.3041064954691,143.150723804296,-2.75497626654227,56.2415554971608,-8.94072482311459,167.584019135193,-27.2131708284013
970.462637467911,170.104770227749,1.84294125913873,2.30314819248269,2.70840433089387,0.763815531875057,29.7477196516581,-10.7650415644913,284.572945061224,-26.022971548593,15.9190894229268,-2.49624770441431,108.719598439221,-8.91248832451434,305.157517029284,-50.1332516616642,114.77803349778,-19.4412898386568,224.196410665839,72.4023381339937,80.1857955197901,-3.85231935414301,183.767365320857,-23.8431433338675,146.628418372332,1.33866348330178,57.0750732065046,-2.96000572322051,188.647043068811,-40.9875411287644
957.221092657369,159.51311821182,2.89480526506648,1.08598423450646,3.60713052382709,-0.851318605268612,12.3225413347574,1.71754693507436,276.604605631971,-22.9356707579113,20.9914645290972,-7.12240665198241,105.816229649237,-8.86932271018517,310.52598889265,-54.2457253632887,118.927159047877,-21.3968365059558,224.688633032258,66.7906885719733,80.383036504362,-4.93982257297392,180.961716422166,-26.5117365376815,149.577946173472,-6.30261540174284,70.6341523607981,-11.2058034368672,182.040825841609,-38.4188080827674
957.486770823377,171.516909217927,2.94057262635423,3.53741089915001,1.9842377569726,3.92161697388153,27.2202764779464,-4.54059619884959,270.442103363225,-18.9305146409387,8.6838403351468,3.68993251015977,118.923080988333,-14.9690907328248,293.241919705797,-51.7823274940447,117.590775011651,-20.7088382401605,219.142591681207,66.8338462790641,78.3909937026045,-8.21361138852202,194.72022553725,-38.9310532654831,151.367880285341,-8.36157814687981,51.0955223256308,0.396095293665256,179.207864936845,-35.6130373595253
950.509020004347,182.561137542778,0.739125410416821,1.55484838462612,1.03043020878675,2.98596312157749,22.1662554353886,-4.38668158378879,296.600165613353,-31.9736682232979,14.6566446268403,-1.47993614535129,115.290367409175,-15.3518449693359,305.741392599335,-49.9453203270313,116.160264563193,-22.2027553401801,234.677802051258,69.2485756413916,87.4081726430883,-10.249248909446,179.221716129537,-23.4915419738287,150.611794431307,-6.99104502317762,62.1204200790073,-8.14534299081772,192.844089304718,-44.6948454442995
950.023638991859,177.257845421994,6.0728522315413,1.72707768165569,-1.61890899689632,4.85011370050644,23.5952853105311,-1.54066537159105,273.89323653802,-25.3673346982199,15.5054129886223,1.73115716618587,113.833120880021,-16.1650359984475,293.185992550364,-45.4881559258245,119.762111431582,-23.3773815247218,219.407783327836,72.0042632141217,70.1724907865024,-4.36093974616351,171.330583267335,-20.156417378464,145.930417538992,-2.76802097632381,60.2038995894331,-2.83937819262389,184.999920232624,-43.3704225087791
947.456125332466,173.184100493302,13.4480012187554,-3.35102168347028,8.65092501456272,-2.02965166034906,29.7375476491342,-5.89217142470908,278.75614691645,-28.9150006334523,6.13335602813521,2.76602084125149,115.001775637511,-17.1957494295258,302.076062725238,-50.3430920452109,112.345758666001,-19.7589006706097,210.231418946655,77.3068302796392,71.8848532433946,-7.95352428222477,184.185105195961,-26.1329955328704,157.165009600805,-10.2855318558773,61.1438727636039,-5.24335200945114,180.34831689132,-35.9983125928261
950.625093794083,174.505529832866,3.36333540360143,-0.333891660858572,0.0724854417594008,3.79207374691278,14.3431664006621,-1.84735629895772,282.334959649082,-26.716490069412,16.6391921007701,-1.72524223735928,115.727073796556,-19.250813964082,298.956302475599,-47.0486914107406,112.46345600012,-18.256861313905,228.676465006155,71.1928327725355,72.2454705751608,-1.25296726297725,198.285927982267,-41.6078969584439,148.106905893129,-3.26364620266047,64.4039732677908,-10.0192779696901,185.904120953676,-36.8197100587131
962.288538358603,174.630374687713,7.51231104676093,0.485556103741649,-0.902784505047642,4.39205471106953,30.0987538459356,-8.61948249848015,287.648593227365,-26.5153539193439,19.5810749345446,-1.11180008329796,113.199294112656,-15.9440712211505,305.03771976113,-50.3412174843875,114.722781006958,-21.5595059216149,237.297423965413,59.2887002466846,78.0436810980904,-7.84662364470845,184.644672645386,-28.2847140914075,148.639559396344,-5.66131134978174,52.5672176942182,-4.02695985348028,179.119839622505,-34.9057653974595
952.755308144094,167.179318277603,4.40671778242263,2.68786753382196,2.89850532550752,2.25945401949232,17.1111366415898,1.24094811372976,287.008941164765,-31.7330904955154,16.4329241798244,-2.46661832607641,111.072995028919,-9.56975161202358,290.650865689596,-45.116502634012,106.929481541662,-17.4686472845342,231.699294570401,60.074772447442,70.6225629227976,-3.6969497486695,181.74690217901,-29.8429935199971,145.844031546104,2.32425289494891,55.514785224116,-0.857329721450825,180.138014987048,-40.6672924590639
950.34827651815,170.740970331412,6.56677621002277,3.11888972567359,0.958083046420995,4.0337284312712,14.4740004540564,-1.14844341585832,290.982267009919,-35.0156640826728,13.6950199874935,-4.56923045690643,114.927222900268,-15.5268940493271,301.487841560556,-44.9155167214732,123.019186277338,-25.5535893530336,236.407779140807,67.7761376985904,72.050032456925,-1.5627523504942,182.648395213791,-30.4936972976836,139.653996211299,3.63113189890306,55.8029232700574,-7.2099955626792,179.385864231045,-33.0414064921439
958.914998274288,177.062570081361,3.03567215366481,2.53938510763535,0.412440776103507,1.99054297553191,23.8005907028258,-5.17223597344904,291.266864830023,-34.0032182809014,14.8009631217371,-2.21359406975571,111.100183091962,-11.7636552553843,307.509744618314,-49.8597127470167,116.919525237246,-20.3791341421931,237.922617511752,69.3161435386955,79.5993252541451,-5.33391230811712,186.507437032648,-30.3217974074278,147.606352115844,-8.50091372980081,54.6494899236747,-2.40624048273515,176.737212917242,-31.6291993291429
960.07953672481,163.028836670129,1.06086392111584,3.17369214456887,5.77959132250234,0.371310991329509,21.5804034397391,-4.29715912227208,281.831675187044,-31.0879350986132,3.44176479418655,5.95291522004145,116.547921993546,-19.4698087483683,305.85620952884,-52.6425049696044,115.591387888223,-22.6645636488475,225.803819752732,69.0726772149328,82.1803060605423,-5.59104549028462,184.93537683784,-25.2521974500025,145.06800531148,2.91847977996493,51.4608611828982,1.57032653534681,173.795424813545,-38.6705228769467
963.244629275303,168.613121945905,5.43544139831475,-0.737890639911933,1.8099666936524,1.75657387890765,29.715636809716,-9.89323799456801,287.600557015949,-29.026052070601,21.2328167504238,-3.74070596843178,109.673467833504,-8.70931319759723,301.738011690099,-51.1370559425373,110.767669535318,-21.1095355952092,235.380510522669,66.137829616243,69.5591663550406,0.301259393062364,188.082729955602,-28.1224698538647,147.6019962764,-4.69228199571537,48.1862003388878,-0.474985698129295,194.933800308894,-43.2572724639498
941.713957154632,184.46675788978,7.45650204657839,2.18212582468839,-0.949196150222703,4.257119448879,22.8507902107671,-4.43687764675454,299.543999074087,-36.5501842079843,19.4748979104933,-0.632744299715975,112.574995387585,-13.6111722328614,310.729844707366,-55.2581152690647,119.883524867575,-21.8911364070295,239.588916901684,69.740574102086,76.8257580740774,-1.31710312487352,197.839965661806,-34.0962417770295,152.210720352216,-5.89531885400992,51.1760528339509,-2.13659270727784,183.520153058549,-40.3361878674075
956.369507301134,169.353279736289,5.76665740495192,0.396403152383466,1.75053799923808,1.56475303036985,14.2490509612643,0.865301248466478,273.957203740721,-26.8611821705998,11.0527727468088,1.13280604488679,104.523960156139,-8.11320558239052,291.827828778772,-37.5395645953944,115.359104987819,-18.5999631051694,219.461407241061,69.3588987946189,79.024916542467,-6.3545949229091,186.482814694988,-29.0517504487129,152.833738262197,-12.0577057375039,68.6974917868923,-10.8988180679973,181.66857182535,-40.8647139367795
950.443450163885,169.619867768017,7.07919857934882,-2.11090301987799,2.15155017154602,1.98247826386205,19.3333106506136,-0.461858482370123,281.5988740428,-29.6837183546043,12.14176403071,1.56772083024122,110.266406445698,-11.0973340899764,295.234861676395,-46.6808545884328,114.850002960787,-21.9286975413627,241.193719544675,57.5284778176315,77.5520322764696,-8.03522364091574,182.727791466216,-26.1743085977868,148.366864440483,-1.95477835706972,55.3207431890815,-5.31252122695122,182.183128915327,-39.7132421649629
955.462220435346,173.746767549432,3.36870962278704,2.83925317461254,-1.3842712371432,4.56722333954337,22.0878557638751,-2.45476449887675,279.4196725568,-24.9385990525253,16.3665463802984,-0.493504330852677,119.578008292213,-15.775864628994,298.044260769098,-48.7806563691125,126.459263248241,-27.6297997131731,245.099929770201,63.8099607222186,79.7440704543537,-5.47641871329148,185.344210286018,-28.4341829728285,146.067477024968,-0.804527652647461,67.7055544789695,-7.54194647754301,173.952121083951,-28.6375086349448
959.500519687215,170.57817274584,2.09875422147964,2.02208897166219,0.937153143570331,2.99410057609455,17.4265867905696,-2.43485240891091,284.797911173806,-29.9218306599919,19.7942528778193,-3.03191875361799,102.379114950159,-4.7336867986951,306.296525657795,-52.4357503176707,120.322976404408,-25.8879565486951,221.829198369282,66.0795851709821,74.0049905197979,-3.32342149901691,186.652311029207,-31.982895980012,155.238132105101,-6.33084800308101,62.5724457485214,-12.1895962409106,172.512235516492,-36.7621447283992
966.001085414487,164.88133955559,0.985698103454322,3.49917967528577,4.6660741384703,0.226013385918574,13.0955784731941,1.20629930198225,290.510252163779,-32.0210988384125,9.60863239518928,-0.0997791727689117,109.074447540687,-11.2099757000301,296.667828931938,-49.813346337123,119.456764978451,-24.6900706789152,235.878524008695,60.4944567591594,79.1140551003992,-5.63002162646974,178.387605307916,-23.4140124973112,144.92062179446,-2.78536004063903,53.0290264860247,-2.82671533696625,184.236165622054,-34.5370400709794
962.781364893833,162.258694550067,-2.35145743863655,6.39860652188108,1.6969714038709,0.462489731332179,24.2874317391893,-4.87074156093226,281.092791776239,-19.9551741267135,17.6100004426996,-0.0302887544630162,109.386454101224,-10.1139866527886,317.749856440377,-61.2918243136145,117.190415541967,-21.9211241233654,228.466306364443,72.0062053954664,78.7591200291451,-9.58951901941348,177.875695297206,-22.8281018875115,147.671256632726,1.42313822471971,62.9026760943912,-6.34732971483723,191.281345252915,-42.2365846140212
962.038378449115,177.825365853696,12.6838343942707,-0.371836291753477,5.3177192164671,1.40297520433739,15.0531847780181,1.97098026312417,284.47939802492,-20.973790301057,20.565973216352,-4.49653466672386,105.539660631762,-5.08458877035848,310.030379354331,-49.6403490491604,120.283026665096,-24.9577976972318,234.994938446328,77.6985352373357,78.2022358136958,-6.11091056597452,175.851412535227,-20.6405194370321,150.33126548509,-6.53850695156682,62.0309224590439,-7.04026267165784,180.19918655042,-33.5440360670623
945.825175685695,173.020573213125,3.92827427065018,1.29197000964017,2.25378305964112,0.0891727596806055,18.4522725154218,1.72482611824997,280.653433448342,-28.3982936887935,12.8548233913309,-2.58142246571175,106.475409247788,-11.4997735327721,298.068866344445,-44.2055923169912,114.466682830651,-15.8603929960651,231.811754390317,69.1200789277278,72.0323863242283,-1.69580793363834,195.48324861525,-34.6805233145721,149.775257647651,-2.23792173390672,64.4149545036444,-8.50001162686473,178.003834822315,-32.40643271784
934.582091984385,187.668975751703,-0.480030902927866,5.06208883498155,4.68087518224266,-0.99199692657596,23.3062593672191,-4.5333440054973,285.002331685315,-26.1450734877126,9.85921639967669,0.13001661391479,106.532196012739,-5.18864939078696,299.580185116334,-43.8311943954698,119.043907466203,-20.896998615131,232.164273179552,69.4079389417393,79.5570887373298,-5.00718816208766,181.445022578178,-17.2955395825482,150.054852466161,-4.8445634285363,59.0216306974686,-6.10098919576312,190.383587180361,-39.1109506073361
981.92179261119,172.301948438578,9.2964666732288,-1.52868940266549,0.329630250871166,1.90989789835239,14.6529101942469,1.43674091775104,282.213272289197,-26.4908611121229,11.7158392872033,-1.16231398170749,114.20866510571,-13.1015414485646,315.519103021179,-57.1215236143831,118.293907768312,-18.8330724493067,234.934162081525,69.2485178367524,87.7071690261532,-8.76023644144769,191.834540635314,-34.4887250412248,159.928800826272,-9.72217025879242,57.0076054656867,-1.53500493933189,185.282998336114,-36.0388702130829
953.338719040016,174.760695198065,6.75448922366999,-1.25932234025722,2.28911438742782,2.12000598141684,18.274856085984,-5.36852906306146,291.956980751647,-35.2232904394724,15.3170428191547,-2.96278624569907,111.100833568658,-12.0465162587579,308.348972481999,-55.0965120389476,116.255154889605,-18.6483975314022,218.360741782148,70.3731120005005,73.3867834695611,2.68050167019182,182.676167728287,-24.8853451775086,139.870841489393,1.24942680065847,60.7684924043369,-5.90829556071095,184.282758555582,-38.6325494234618
972.032177195175,164.812775229763,3.26372544831483,0.00195411885793039,2.95703184092281,3.81011737221595,20.1893882911233,-1.85067632547244,290.82782348968,-31.4971139624812,17.9570290881839,-3.8130077150999,108.105613888629,-11.692057120476,305.709102464345,-48.5930961293568,113.596665470306,-21.755868516523,232.751632586128,64.8197398760114,80.4105038525898,-6.68429217142873,182.508777976183,-25.4294774292095,157.01007732131,-9.96370823755854,63.9985184761543,-2.61613385503272,183.720104694134,-37.9654375878247
960.377095039595,177.140294340604,12.6841257841942,-3.6809661522288,0.931547353152146,1.80772524405412,15.3283138672012,-2.61248857446494,289.841047615715,-28.2476005390003,24.7685597383255,-6.9063352533814,119.886386897261,-18.0854067257553,316.227965816196,-52.8343891054384,117.186390764834,-21.1285181016592,240.804958626332,69.616207966155,78.0187885863013,-1.00408899508055,184.365312595623,-26.160851685454,146.477271124913,-2.63376788722355,58.7280016840844,-6.62192232259506,185.203970079834,-40.9279051754289
959.624470616317,166.907303538829,7.14526543751802,-0.161084725960701,0.116548449277853,4.17153465648706,29.7710346018542,-6.0156392930932,280.387284616874,-30.4791281859011,12.163306729596,2.05173925300608,110.150135380507,-14.1147597057269,310.099647640536,-48.4267698239549,122.215514196704,-25.683907646492,234.90049856284,67.5504762943577,79.5971849399915,-3.7988539666731,179.349005276826,-25.1788225719418,152.373182142765,-5.18867435646817,53.4426974923947,-5.34390530671599,197.159831656925,-49.9754641411313
971.437197503449,154.860407070347,6.06941052822514,1.47399355183551,5.49222264446225,0.0499043125354986,15.8239301020403,-3.06473311481894,279.991467049962,-27.552049857917,20.1707858895727,-2.07913500541045,102.16559170217,-6.93421452651308,302.020754482985,-47.5531227768059,114.017940431924,-18.171437896825,232.855197629935,67.9186261342401,73.6833702149308,-0.520504810997652,187.221374754553,-33.4504926617812,153.994152255605,-9.81517457599977,56.4999440896224,-3.39670166988147,190.420084985982,-42.4087867074592
955.181604160818,172.491120178443,5.1559094286454,0.767239151200266,-3.73480165357074,5.94517160524673,24.6312565008985,-4.77028822096847,281.984118961243,-31.5984806685918,15.2235299730842,1.07994905213384,118.294220681051,-15.9216138461545,299.098787148494,-45.4050764807851,114.813081100587,-21.0405497578551,250.630650257933,66.3377404170252,69.7480263458871,1.81831336373623,182.560274894415,-25.3290355401714,138.802220384659,0.210848949099577,57.30101470996,-3.537404252988,193.711316890632,-44.4166529922766
944.701120157011,181.456995620055,1.26528271162652,2.23966367609005,2.03067895704526,0.193723719839698,23.7498224222161,-3.53053405911389,278.883149881891,-23.1167454262132,10.117611334402,1.60094769972087,113.67668774046,-17.0737636450114,310.788350587741,-51.3261447332714,118.50763123629,-22.9806382883689,236.849367424445,62.4170807767427,72.8392293985924,0.0836795244026138,181.2407105669,-28.6501390825256,151.954201197221,-3.92452770757242,57.8206731409973,-4.56138620954245,176.570130882408,-35.0435694258627
949.077980790852,175.40925931962,-0.43197242283972,7.40949783350866,2.08889499420483,2.51818695678925,25.9384485204736,-9.24141539703264,292.367780653916,-31.0724270955017,17.3698747165552,-3.11217919577286,119.975741221298,-17.4376010406781,302.863735716412,-47.9713641538502,120.91288057118,-22.0348838231916,224.100260397609,70.6063417225187,72.7616043181832,-1.4614680044965,182.762380607752,-27.4437780359143,153.742801951848,-7.30022485077279,57.7041047800654,-6.84747537723857,180.934007539556,-38.9096110740773
968.289386215092,164.673116667996,0.967515816307553,2.25684061179511,3.32540160552854,2.46778228223939,14.8024296529194,-1.4299483861321,292.6215194183,-32.657523553487,25.7298797818219,-7.53693957396759,111.417958490053,-5.96430666794133,310.431445288007,-56.8073333145485,115.21165228834,-19.9782777158613,242.236053573252,61.6693322337906,79.9577435951075,-3.89429690373127,181.325780709246,-25.2264441276992,148.461419547311,-3.20606774182548,56.8127972642621,-5.63490168362845,185.869180647664,-40.4299941263833
959.229830799004,182.004127885963,2.12799297600808,1.20576228797175,0.349578496930375,4.36407386896758,22.8921516475617,-4.7297403242278,297.475856507119,-34.8926664443089,6.87187292171745,6.36057172992033,110.723823919018,-11.8710570930244,310.68386603027,-53.7098400935921,127.152359256907,-26.8567472723756,236.270245048078,67.7390459339924,78.386297141323,-5.6387224376199,178.548097050362,-23.7597291546659,147.141400028532,-3.68212601764673,50.3645187966444,-6.28950038030188,180.578299299837,-36.9986341382953
941.006853568982,179.429016138738,-0.392459872416578,2.19391342134187,3.94770968360615,0.216956788136008,16.862629585132,0.382369557236288,275.019792285839,-24.5089112662641,15.2920374848005,-1.10161738312463,106.536542409001,-8.83280108474092,308.593419581437,-51.2465237507024,112.45368022738,-21.119943646367,231.054331635681,62.6751973045841,71.6620565684634,-0.621988703269083,178.940652238398,-25.3368911854558,149.516731422444,-6.1093518675641,66.7834151350738,-4.37056084676376,174.045983563175,-29.6662772602643
954.452682285,168.015322360711,5.49586383299491,1.62633385328415,1.19132176860128,3.07162065681663,16.8963553671814,-1.06176072894848,286.132788417384,-24.3344233275347,17.9255606662168,-3.61686512603899,104.303987431876,-7.78969073985944,303.331693571216,-50.934428051049,119.236600042872,-24.6885701920001,234.712688939692,61.8978105235311,73.6677306912518,0.00825445764314519,182.482129510622,-23.3031727801672,149.639535751855,-5.6912585878655,63.4805574805204,-5.73096533857814,187.458391387395,-35.0176854958692
968.326872879449,176.285552515866,0.614127948053579,1.75582406946282,5.87200683140755,-1.1585089296202,18.3335291905688,-1.75032343217072,288.139333068386,-23.3076215254851,17.701548296604,-3.39493909175901,106.575523136503,-9.77769507634864,305.134043928619,-49.8480512063831,123.567120717583,-28.7469139318763,249.953925637144,60.0239853459659,82.6391525661324,-5.78986778090075,191.167404766754,-25.8380346068292,143.496070398555,0.98113980371969,67.9058035523632,-9.14701927279242,188.451570078427,-41.8241303975594
943.849553945061,173.358257973538,1.09004255789967,2.1013397185613,3.84164579006425,4.04438401201269,17.9889746518614,-3.95816415884006,294.695030727465,-34.5219497512495,10.7505187121159,3.38452398502018,117.602365052463,-17.3548354312034,307.0248956917,-57.3885895000928,117.286157566817,-21.5363582704524,236.120459589265,61.642477070937,73.5617016828182,-4.8881083524599,175.444340997234,-23.6247591801693,145.227137167878,-1.28810156260871,58.9489392597284,-1.08025376039002,184.770902719814,-39.0774361665121
956.460392282405,168.354355243237,3.54639884977724,0.438213727662834,1.5918305241485,2.52861456462022,27.412216064537,-4.56680776922887,278.835880252697,-24.2287738975182,12.9386613509188,1.95822415342573,111.505795676801,-9.07352087015092,296.347422261217,-48.1235457731031,115.045734136775,-19.690220361298,229.568255669846,65.0421544045663,85.1719015358662,-5.83328576234359,191.857839252099,-34.3631510399713,142.733776185053,-0.440917126775392,61.1996779089602,-5.90402245448362,174.556888050383,-30.1305109873943
953.903263555041,178.020235783258,0.63972928130991,2.34155109388293,3.76063692160025,2.13641232612501,25.0596184811596,-7.98281426937399,281.748500358897,-30.8577714764437,16.2367004729613,-3.18370055240964,112.981654296379,-11.0218635895679,320.005951871478,-53.2756304576297,118.590676144285,-23.8463114803903,243.575734409615,64.2928402284144,75.8485655422309,-5.22031180171939,197.502215855898,-35.5925348150926,144.559106056967,-3.4252232041179,62.7779851617094,-4.14989063994166,188.557853682373,-39.1233885090388
958.307620631605,160.128020070954,6.88921987298425,1.69823418613371,7.51141298146381,0.365101788796236,21.6752370755531,-3.03563085088776,281.086923967327,-29.1808766161172,13.4992126197812,-2.25443968399612,109.496673811413,-9.4348822095504,294.807800243916,-47.0684044286911,113.741752630141,-20.4875908244996,228.221529249594,61.3107220680214,75.9557938055045,-0.157577400058056,179.249363145942,-27.9046077896997,155.269514469027,-11.1725698378842,70.4281492217885,-10.1257869650778,186.38640689499,-34.0849666852067
953.181515696651,162.348143324663,5.54352369286972,-0.200217465573155,2.89923244125322,0.729680780868227,22.0729404585016,-4.48509900068787,282.251869395665,-29.4896976284268,13.8411028052776,0.880716973770774,124.549434458214,-17.7327474385273,304.398960643874,-53.1587486591594,115.368094123131,-24.6057023919186,219.646585133504,65.1619727877738,76.365160310206,-4.0590184713534,176.549665950291,-25.1522017399903,151.618305717234,-3.53285924043017,59.7688186743161,-5.62317514858257,196.107869499752,-47.3974852516268
960.633651103,164.764360219383,3.9676062007237,2.96727174980593,3.35337767968811,1.69813123304921,14.8020560358558,-3.08620031945045,275.020593594471,-24.0626548162946,8.94742338404651,-0.294991707956854,107.128891097585,-9.85290790985122,316.166687265409,-54.4840885189974,118.893605171456,-23.1376833368596,239.466492848939,64.0119184070882,69.4062161134309,1.09880817734729,176.751947486563,-14.9267603891244,153.96124858194,-6.05428759845248,55.4365075758215,-0.838363016961676,186.356887239725,-40.7923008413191
960.537633662899,158.186857251554,-0.371810292484489,3.74344119357993,-0.0683264363218531,3.88993712400766,34.1306268171705,-12.4825901690392,273.544926035584,-26.0765294554636,10.8642671999824,0.708650379301444,106.004188991853,-11.5709517660559,303.411748606639,-48.5024017410917,111.73280357367,-17.0436981867827,228.880974024201,58.6178501423273,74.428547061398,-1.14551387771644,179.865041302136,-26.6604935533004,153.498261422676,-6.20427721720519,53.8069395192861,-1.69401096569515,176.220775283965,-34.2509571380247
953.045312950401,166.533571864965,4.2080876634856,0.504134840786063,-0.367771120433027,5.73659565423803,19.0648199171617,-0.277047197495358,271.753749271314,-20.9400536595037,15.0731744322183,-0.15585628997721,101.749705395193,-5.1936246797098,303.780774492189,-50.5414222163068,114.802541700166,-19.4147221549076,220.878897915222,66.6603661042333,68.060542583232,3.06374535758543,180.748324110671,-28.8656749538379,149.150894097146,-5.21305850015206,51.0338251377542,-4.12646706026288,172.614634673683,-30.2564064205313
950.602999094692,169.17761210548,6.19279872376379,1.14543641564506,6.21147867282622,-2.00082985654634,21.935330907684,2.87892765841072,290.929940385489,-28.7379466595361,18.2705908375955,-5.38502282856838,105.054167292486,-8.9696290283624,281.298444835347,-32.2510148822217,114.05278779734,-17.9453931136234,237.679631288238,63.9096464585145,75.8111539584224,-2.21475176308742,184.268141400908,-27.5138718324728,150.708932671497,-3.54647176666795,62.4684110097041,-5.67152468064529,177.435847050584,-32.5408886602983
950.923265791095,163.120789294316,1.24802057155343,1.89530664167537,0.845989813267379,3.36120857182608,19.5962876302758,-3.20983235273935,282.885314630598,-27.1144352015092,17.8776130879085,-1.74556701466322,109.104800974866,-7.85896441934672,312.742653221764,-56.8949103422472,113.502866381448,-23.8990006358351,232.031956800769,64.6066550707575,78.0944783463983,-7.24909260217148,177.791438150933,-22.2887719311151,146.577760893175,2.99399548730868,55.5755236622834,-3.6639222205158,182.782550416742,-39.3041412886748
957.732787359209,161.249083656874,0.551194636197111,4.18102219074541,0.620558950256248,3.25729280855387,12.5971242333901,2.72458454512393,275.609988924066,-28.8439066531567,18.3756412307321,-2.8369001400077,106.918461962882,-6.52640825016292,295.742202060928,-39.3651488022426,111.166112807525,-18.8618677724358,219.212758894992,69.0611547326294,74.4853405839056,-3.23564123019517,178.941788389325,-22.9472090234839,141.740618321148,-2.25253906924136,52.7608289944653,-4.1301282404211,181.738776609582,-38.1817018721037
954.766092852482,165.794584758533,-0.21990152770382,8.13472829856143,4.41725016836677,-0.738923654726791,18.6473752536571,-2.82104617369147,281.566744561081,-26.9819957751899,10.8590692977927,-0.955833042077951,109.197904409643,-12.237215399488,288.215428698701,-44.0321197767354,116.797417455102,-23.7442364642908,232.686678767301,66.0784664330827,80.240581488061,-10.0779573835028,175.073488153618,-20.6740636895468,147.345827505483,-1.95613568269589,47.739365937764,-0.284580846794788,185.944486273729,-38.9677545979997
943.199657668563,170.789828823886,3.53961431493688,2.4121662103001,6.44351944495046,-0.783829332609772,20.4197149636342,-1.58074386800233,284.501170927549,-30.0306991540202,12.3699672914922,-0.9076361537423,94.9070025381974,-1.64558028768866,299.510610149251,-46.2598036877922,114.255381697607,-18.6549602908576,224.990024741487,63.8176967279904,82.2960813199493,-9.34374604770542,187.105814020959,-31.5088719970167,139.26523436623,0.743845037192825,53.0826695854436,-1.16669534893044,180.826314632665,-36.0680398636104
955.505704337284,162.10197586442,0.163159486546441,4.6646831636966,-0.494651342806403,4.08194968733901,18.6421267458342,-1.64484887208587,275.421690115526,-27.778231776566,20.9697504608364,-2.88157223106754,115.246385233425,-13.1820949399359,291.292330767438,-46.2815750416927,114.397416835414,-21.7629610859777,234.208544879043,62.6469812787386,78.9842256462468,-7.19668818899675,179.345358978404,-28.8705801925284,145.167213056577,-2.45102162890176,57.4163850283261,-6.31411122216204,179.876020102403,-40.3647487127328
949.776288220774,166.694231581315,5.84055963699408,0.156484769680003,-1.87848924559675,5.10932637801369,17.859575505468,-3.16376378502328,278.445102056058,-29.1162799318014,11.8190283710071,0.476920935783919,112.462958015969,-14.4438706917255,303.885876932174,-47.5915366861941,111.499536317075,-21.7209919238976,223.527414465327,69.5481517287153,68.2508833581167,-0.0249608643788856,176.578888235334,-21.559499139854,140.582465415334,3.57051503782701,53.7307568972349,-0.380857761119755,183.517068753164,-37.8069168207481
940.472277892356,179.192857278461,5.38044859821416,-0.936898293610633,3.62298272213663,2.71575245073648,24.1417769282768,-4.72377251257111,283.523118777041,-29.1727616082298,21.0472561689418,-5.48958418868826,112.743806174553,-10.3888834311308,307.767536867582,-52.9510527731947,116.60901120382,-20.6705354145893,227.451187965178,64.1523956775548,75.2800902408269,-5.575210785692,176.300485974111,-21.0274863556459,144.142834420132,-1.89845402401682,63.5168431727471,-9.44925095092733,189.944300426307,-46.1229562439834
952.273316028235,162.388276074672,0.849396312527762,3.60106097167543,-0.635729858547682,2.52462707820505,30.8427725280162,-8.55025972305189,282.659523983917,-28.5665973491177,9.62765947580746,2.96387301899476,103.194095998083,-7.26599216049031,298.240476021136,-46.1813055330735,126.395004492011,-27.6407288083052,229.193901538066,61.8528079759267,66.7273691521746,2.28728797515419,187.086986554909,-26.7505539977953,142.969164946761,-0.282892688268908,53.6998751047372,-0.0262355451672394,181.702366161225,-38.1999429552514
943.729964713335,168.202588509916,11.3832262221136,-2.6921973136238,3.85338660344063,-0.404536796666231,25.2283215382945,-4.81120451488526,289.298261949932,-30.5660783604604,9.91466780657202,0.20038320711067,108.835363244837,-10.227574950141,301.376822052291,-47.7588246753813,112.413325292458,-19.6061950183043,222.164399090381,66.1580476067964,72.7679863331386,-4.63865724520305,184.587585802993,-24.4223175687789,150.58153663164,-3.41198534084943,49.0666121901859,8.01803560862428,173.3359621363,-32.533156034674
962.763511251999,160.027691368518,4.59478982749903,-1.00543157643887,2.99745212233142,2.00878262128002,23.2865488828861,-7.78183357611647,282.30936180257,-23.7599218322126,10.6268187675397,0.966395033187062,116.958959320191,-12.5740992008165,305.796005195474,-53.7349812943604,111.894778450753,-21.3498704958148,231.355456107518,72.1085880453775,75.7075305328306,-4.06080160224329,178.344179533431,-25.8709786748282,142.582747350311,-0.666139800369737,56.54742332137,-7.28579821168166,188.402957236607,-39.6392167066068
945.669241507861,163.482095084877,4.51992467090446,0.223701394322885,2.24186306318288,0.010395881978612,13.7961783315496,2.46372651144902,278.958357049449,-28.1840666965884,20.4587968740017,-4.86914097392111,99.1652897619168,-6.73710834138612,301.179792812773,-51.103545066273,115.756816343974,-19.7057774900242,224.478857269936,62.2013366854218,65.22722304778,-0.72517330514342,178.222113569713,-24.4603277074428,135.022106164721,2.19663871494162,68.2288883984765,-12.6946173785301,192.104791817761,-44.1828420968254
937.477403509125,172.668327646158,3.81133830679517,0.0903257565676633,4.51624028457594,0.0999867430706737,26.9537759629367,-6.09780076722752,276.867940686294,-22.2450225646251,6.35822902897902,0.80435719893968,103.663098453609,-7.50514413139348,293.213715944351,-49.1447369805253,122.396768030099,-25.9529087317119,232.160048642014,62.5761864101846,78.9369173069984,-7.98609324783845,184.399658135425,-34.4717197222574,144.606992071262,-4.31938252230743,63.0579649142728,-6.3005177801396,177.82277949505,-35.197315698108
957.395057548085,163.154536083471,1.52163501967607,2.29455402059533,2.07125189872317,0.408742058396523,14.7019559676372,-0.624224251079208,288.179481613198,-29.6946232543237,11.6276088520797,-0.698137563454584,103.187258167339,-8.02840808531498,303.238254389644,-47.8241796365916,116.618219771981,-24.7032477249485,233.937934194727,64.324777836904,73.8533593247202,0.708768500956422,184.841016292468,-21.0200383880149,148.22571237459,-1.85381524860877,52.2151519693988,0.147563200012526,195.003271337795,-37.7702544115616
932.454255002056,170.727424525521,2.93241948487476,0.804068017233957,0.605467107321161,0.649953487274826,17.9920117025996,-2.55143453339966,273.465835683243,-23.7380174185766,10.2353402091065,0.714231557761209,111.256118020971,-9.54698040146282,296.964925014828,-51.7860605285513,115.948761465209,-22.8016760392994,224.302254984742,63.6941619427432,71.0963350878297,-4.40226020859414,177.223236894559,-22.7336348107528,144.215686312578,-2.9391579338147,62.2164117008927,-5.97900783676371,186.716639275534,-45.5056254845273
951.968832898059,163.188571124656,3.81384757014699,1.71973255427257,3.96054054288243,-0.57277038042745,7.1313149765916,5.30475266703304,288.319381229908,-32.4878323091583,10.5066549305496,1.23935130613018,113.971525946877,-14.4901283089256,286.341629031523,-39.8361033749676,118.46710424354,-20.0045300365156,224.220766579677,58.3785517511824,70.6076435922145,-1.20192314350827,186.836397281043,-35.0169851703826,142.075511192983,-3.62096143173011,50.8197976519145,-3.32448210605475,188.387024454945,-38.9556787811921
938.950693794195,173.716092729238,3.11692698120202,2.9992388304481,3.29075833443103,1.71190206587921,19.4892950901832,-3.23892320860088,280.440333161261,-25.700505096806,15.514440899698,-4.00480107292312,103.893729906174,-7.71413107852161,298.775975772063,-45.1989895814995,114.610664782881,-20.6281741332442,230.698136209635,70.4790264593345,77.2937922517616,-7.41784002728164,191.422338682944,-29.4316047166136,148.13164717898,-5.52974323113796,54.8763747326008,-0.762198564281585,183.899780119291,-38.2536580781066
949.116793604902,166.629239133236,4.89694109440681,0.715111507270291,6.10350811447694,2.21334797132398,15.3448291181717,1.86216564284131,272.120929340215,-24.6917620639047,13.3212068637713,-0.234825988400793,111.086192046181,-16.0918245142458,296.07263439554,-47.5322844770345,118.899525988486,-21.9823308618427,223.158073909863,63.4495471607714,72.5567765157903,-2.60300876521602,185.83271994348,-30.0702725829774,135.870456252167,1.67541060578018,59.1095638728686,-5.48786303068365,191.244887708392,-45.0244242536124
942.845652109936,169.307939867455,0.830815555420285,4.33158728525775,1.2696984699984,2.26142056911216,13.3862228821303,0.337362496489186,282.799071401323,-29.4545472271834,9.86519526062031,-0.0953871804336195,101.323339832411,-4.77506810378379,302.607269205638,-52.8606223230936,114.340982359437,-20.0335229159157,226.215223942518,59.8290184778164,74.5427500970843,-3.35791629165443,186.36075847949,-25.9175085391869,144.027943342501,-0.303454402073329,53.0522832591898,0.0593224232216229,179.777227566626,-35.6764961069521
945.262529677402,174.478116430295,6.36107564219531,1.4770745653787,2.49878455855215,3.18205494968262,13.4513131427582,1.51486226575447,277.826839324133,-30.8275025679161,19.9628740866472,-3.23543741821075,110.989454891812,-12.2812281789777,302.250036540781,-49.23406259856,113.373887190246,-18.1631123111207,228.174925486217,62.2765238885655,75.8001671004109,0.00932045484224714,183.31639795304,-26.0802120626059,144.682566706401,0.525229537071302,61.7771494711893,-3.72221985188673,185.146628666474,-37.7407998904574
946.516310793255,170.711307112682,1.86236596854443,5.0452994953991,4.32490649585583,0.194319712637599,23.5676179981202,-4.35780831598748,260.230380026602,-15.0702603033027,14.221778152974,-0.502238285039061,109.337514855918,-10.6981540653746,281.677582835442,-38.0137813129472,113.895333012012,-18.524242394942,226.086629359056,59.9149224429387,73.7851939842788,-4.77785698140452,181.025995604922,-24.1699787543187,141.227424036292,2.82315145644157,50.5433664588989,-4.63989269251917,179.281802393723,-37.3393368352311
949.765409598226,162.913585033195,0.589350271861305,1.71035679049116,5.16603419987792,2.77024069571151,21.0122097224253,-5.90960156391132,278.552188209476,-22.3665562732348,17.7595072228153,-1.78583834736277,105.92420913518,-7.23078177330056,302.863563856676,-48.2293765242756,117.378897279415,-21.0592756977195,219.441766053555,66.6347499238353,70.7441898059043,2.99567953000316,179.348330093821,-25.573802144983,140.47019367707,-1.22811758742596,57.9667446722323,-3.69723901456756,177.145010954967,-31.566022939401
955.519611799763,164.256147642856,10.4281005600038,-3.03197804263389,14.1772323557013,-2.39654165415223,20.0711581513275,-5.7730800813878,290.1074887587,-32.2960250644011,15.0387751945538,1.25228354487969,113.731456905373,-18.9504321564336,298.927360074476,-47.3470625985328,115.547525961747,-23.2471517467355,227.508237288616,65.5938244307178,74.0166726162054,-4.20778957927907,180.636162807976,-21.6968209747849,139.214538936751,4.69792751140218,58.4610559076423,-4.36630112044601,193.613983901934,-41.2757243825554
948.184046656482,181.205463998017,1.98810675290172,4.43022117723463,-0.299715450664271,2.06233450038397,21.8167972186319,-5.7233648268211,275.691008440801,-23.8245226064794,9.80763340968532,1.6880281093332,106.986639977246,-9.29497316959372,293.843463716443,-44.4298527767132,112.323193104556,-18.2336649150912,211.374101752553,69.0420805650075,74.3700393633387,0.490878810450616,181.716386952346,-22.551400442167,141.07028114482,1.50783146245795,63.3320941402638,-10.1565421890919,183.743599055713,-41.721183608096
953.551759847276,158.234857559722,3.36158774854457,1.77133097506887,8.80542829300419,-2.56140685884577,17.7647858491538,-4.31938816335995,282.537725355555,-30.6224738752568,12.7330743747958,1.59587088840738,115.183565812727,-17.6210964145785,298.603000733433,-49.2208607824222,114.855690580171,-20.0729287639996,218.698520257506,62.4500907703551,82.0889297486868,-6.94307195282514,175.687893033926,-18.2835577074275,148.502968615797,-7.23941985911373,55.8095815445021,-5.3134296955063,184.21961874441,-41.2903087509297
951.48183652754,166.173604225533,-1.05266813571551,3.64654967555838,2.18606433202122,2.31429872707993,20.1734976180541,1.81413822609209,284.13272490433,-29.0546081076969,22.1376972422007,-4.11540265188558,116.762131824318,-18.5714365847879,300.962351266409,-51.7722572169697,115.240989668247,-20.9045908480112,224.932618943382,67.7782224828894,83.0489646526401,-9.7152057742002,184.42319532965,-31.2704698602188,132.778782484871,7.25366207485137,57.6933755288684,-4.47689754168309,176.952880220618,-34.268844817177
958.433159099698,169.869661719798,-2.39462926930625,5.68391488722315,4.35307211838645,0.260361606589139,15.8836033159197,-0.932895730635933,274.55826782017,-21.8280738847246,13.0366531482927,4.05260434535529,109.115775354671,-9.88821618319889,310.882802539312,-54.1898819918622,124.064619670443,-24.3902845966945,224.458901559753,65.7694229274449,75.1651800350646,-2.44086440393,177.2854682685,-20.6807599247064,138.436340538196,2.55631219739942,59.4458662565405,-3.18783063190015,176.262228585745,-34.6328698933627
956.04931211027,162.830833586032,-3.36734805576163,6.49852284783436,1.05813453289181,2.17589900181171,26.8457209475805,-4.41458766987999,276.333164698531,-30.169536354181,18.6916443181088,-5.53720893353791,101.288683780805,-8.24887552458407,293.187934606283,-43.1411138873667,119.373706322763,-26.3105313365019,220.726492090315,60.7626083904981,74.1096570290144,-4.29897971491777,189.606709991425,-31.4674598115456,137.67607654136,0.498641251823906,60.6151642709451,-7.84830244454351,183.738299489811,-42.1972000574466
954.006224374689,166.052180324023,8.9486025644764,-2.37592722494117,2.29977357131969,1.80556086108349,23.9109944449517,-4.53040712317558,281.151889630652,-26.445107922199,14.4680162829699,-2.25650803828741,112.784225943094,-12.7455504873437,299.247480732205,-51.436538233654,119.570907227609,-22.9529878936283,217.09035005802,70.512074080495,68.9004367306601,-0.095124667601002,177.947931626878,-25.3692853118647,130.813709024117,3.27045520554509,59.8567738146126,-5.34277238335109,185.877910420823,-41.1842151353274
952.723993902943,168.926494505815,-0.300856801591586,3.78351106437756,10.162121479467,-2.41555133165976,17.0677963554681,-3.42941292970698,292.398366026484,-30.3757813982342,18.0284069898905,-5.85365367035909,107.262266097443,-7.3932872465834,308.789391977646,-52.2252042812642,120.415002930315,-22.7939516746275,232.24918315573,59.990779034711,87.7913776815194,-8.07434475637296,193.249607633667,-29.4564643155684,138.288926733065,0.156990861869039,52.8648021420089,-2.90417846005449,182.186970455593,-38.8354266181899
969.2405647552,146.182252250721,4.7600484990301,0.364727394885856,-0.763747176260016,3.4405096059317,19.5272395708255,-1.25475243450147,274.190253695765,-26.2552687618088,14.7971019784959,-2.90488387103938,106.939507917639,-10.4969519307656,287.442831648226,-46.9702224310048,117.352702476713,-22.2959230058424,225.981775909828,59.3319370261592,63.6123724209721,0.290581840907762,184.223386067538,-27.0111277370177,142.028046618592,-2.19248386014853,66.2219041393207,-12.338947433739,184.068965778273,-36.5275788231194
957.982246539796,157.697204072045,6.47128194680745,-0.804805368077405,0.945968230567942,0.185241133371613,8.12003769877064,7.27004225111943,284.241400799844,-29.7428274154828,18.7751025634261,-4.22858208361732,112.187369621478,-14.1539215308007,289.840050158492,-40.9322107581215,112.809932338991,-17.4771928760856,225.70189691146,58.7339733912398,73.201575659549,-5.1069336729768,179.777730210614,-25.7686999153452,146.229990542294,-5.05375413440245,61.5119920589239,-10.928344251745,183.961716145534,-38.791413314521
952.516741278027,166.405860352743,6.16223995540804,-0.252429417920325,3.9512027452736,1.45123475804126,11.6529367008079,2.14644277404085,271.810481383616,-21.8479104191919,9.39689980267036,0.252099761390417,106.515351397318,-11.7192225742702,300.806975722709,-48.3940646680154,119.224401824019,-23.3268024156385,220.346260519151,70.01303654166,76.4436912165409,-8.47519965814846,185.561668407981,-25.1556174397665,137.70685901987,-0.511687331488365,62.6853105504793,-3.13298447108412,187.631986527651,-44.0218883933873
961.586962807839,157.841198424764,5.53824556858498,0.360300229123569,-0.00749373244041315,3.60866138231648,13.3617916717958,-0.278943719513821,268.07570387624,-26.4610126505466,15.9976200717807,-1.19571702690928,106.757994495766,-9.59876681427246,282.689065317448,-40.3066726743191,115.461895264522,-18.6930080464815,211.510706717505,65.5090007579566,66.4596773510847,1.41036520837723,172.379305889101,-20.8112984185357,142.619261761287,-3.48562499358085,58.9665927015162,-7.67338825179912,170.076188213026,-31.5793821586948
949.265620398662,173.805866013981,4.12082040482708,0.954858212437752,0.936839424745404,3.16557722180663,26.3776296969623,-7.11336966565855,272.09253784457,-25.3803350161107,11.4909474415438,-0.00671007143661084,111.224167068335,-17.6926108418253,289.682660837494,-47.2063500195585,110.217112475711,-21.3268701566336,226.374903663279,61.0666872410854,71.7845776015274,-4.37442373172382,186.809734124887,-29.6163670689334,131.955404695759,3.18551401900452,46.2147725231966,-1.97770901151654,172.999496910896,-32.8444629208009
963.111607634946,166.372823089615,4.63493259864421,2.57735171993276,2.4236137273424,-0.444412340657566,26.8651271313941,-2.26629344960809,287.002390966633,-35.2912547893489,18.4183780785214,-2.7415448165918,106.617753608101,-10.3642259352208,296.787339440002,-49.4103839259405,124.381272239027,-24.4698448258761,225.239452315906,63.0736076004289,70.8058683125181,0.52032330151524,182.432778478674,-25.4899849301375,146.622385426367,-6.28474801926129,64.9447628849442,-4.85873285538091,178.223314132623,-34.8801448642383
946.622938550371,162.028615496168,3.85325013008394,2.39552100193912,2.72808482888823,1.16098558562334,16.12022845603,-2.75827452252936,261.20675136544,-17.5988219967189,6.16270425653245,2.17360667074428,98.8763839529166,-5.7844944311467,290.134694108602,-41.358572596321,113.516596927129,-21.5875631881992,217.172835833055,64.393945722995,71.2181506997016,0.180569742729789,177.566475106613,-28.8805577822496,143.336371606992,-5.43207058136908,62.5766928212675,-6.50895165005459,187.869105809922,-44.8077768675234
943.685941231696,163.932592897244,6.74527920522836,3.22938801008992,4.05391858695465,0.599339195486162,28.1460354760247,-9.49215530766187,265.547331574816,-24.5797143147199,11.9994191528928,0.345400414066264,102.119407900404,-8.4173212425358,283.933486382408,-42.442665339748,116.690141184343,-21.2788842943146,214.842676353856,66.5203076447376,74.2465528459492,-3.12373138759254,183.606651521062,-26.0928465200881,133.689575012387,3.03182640140115,62.0328552388652,-5.20149282577601,180.33646981165,-36.780132237898
936.449405907262,166.430516098905,-1.24302666402059,3.11641250508522,-0.883292349841956,3.59132456368124,16.7455594456831,0.276876354696151,275.307012337056,-27.2578746870719,18.1361956326734,-3.06410011426112,113.651161391744,-15.0246734380481,288.056072269471,-40.2913078194887,108.271024563203,-17.041699746886,226.402525839163,66.5199403671479,74.5768360253431,-6.74041604495265,180.233358292447,-26.006903264915,147.255056407886,-6.17369732154192,55.7927954594492,-5.9940362058246,179.627415688291,-33.7150838292859
950.767135987122,152.129948553976,12.2742446708697,-1.01888586424414,2.23394005729872,1.34238811747265,19.9270155050896,-1.35086180413776,265.299556286023,-25.3508401989544,16.9769554170125,-1.44636633186884,96.2941890266408,-5.33108002179742,276.318929591747,-40.2102766218536,113.17877717479,-20.9935191784567,203.717738181939,74.8964250860532,74.3187381533822,-8.42336785602006,185.814521950294,-30.2046268085736,134.528192136724,1.02812610176663,60.9865947061438,-7.32027796563003,171.763777172036,-34.5029634276779
940.383764015177,162.454842804867,6.06647696259098,0.645355891515544,4.97589706045391,1.81169981351511,19.6915854409667,-3.37652344932064,257.70031845549,-23.2214211752552,12.2952825415483,-0.777891500408293,106.562557190559,-13.3605746707315,299.038581173694,-51.5348930999311,111.682917010495,-18.7643168804632,224.088795905356,60.575953120542,78.9020264583872,-10.7258272841363,175.999582800852,-21.5901374944538,141.72143284192,-0.29673969279398,51.403278175229,-3.45732330962999,180.834508725779,-33.8211173639245
950.791998060098,166.228016781689,2.86185731859552,1.00239285622707,4.45584594132882,0.242945473322998,21.1194949268062,-3.28379559847695,278.83608953821,-27.9779784339859,13.6088180191093,0.307879688970338,107.43505012446,-10.0108926240865,295.629600003426,-48.2769655568212,113.289681955591,-27.5398724834876,227.905009749995,61.1501664106582,83.8205855585182,-11.2938083546264,182.317891104049,-28.5553287701271,134.028153554127,1.42072608927136,55.6079635534444,-2.50093119512551,180.934241667989,-36.1731036503753
948.763189546002,157.986710859518,0.529915353079807,4.99732828426135,4.2599535963188,-1.18986290966769,20.7176240146309,-3.64037957934956,265.472249963298,-27.2435797633936,9.71941512726564,4.57235864500192,102.987686772494,-11.1279863632338,294.479063941045,-46.9230475741525,112.678603378439,-22.9333194991726,216.266432560113,66.3769434142712,74.3417647157284,-4.23062666855708,181.581974423111,-30.4111083039263,142.589098401347,-0.812094885709497,54.3487725727846,-5.75441786255115,179.805285527432,-38.1885650370902
943.928930826615,162.337670620799,2.84555070174185,1.89249051794461,0.436325062842148,2.73479362748314,21.3144850646116,-3.86314495546967,268.908066102968,-25.8126340996818,17.1959103546413,-1.40100984944178,102.259116914496,-6.72227817946834,295.080875647156,-47.2477441398266,116.551379447043,-21.9467933964538,212.762661848275,64.0100847457737,74.7846423914926,-6.60595519028135,170.087310905769,-24.6008721891687,138.526811348331,-3.45900200463369,58.8879587052705,-3.00790962237613,174.676810508246,-36.1855063715898
954.353955375527,166.264027663636,6.80558724757692,1.06854435670817,2.59754564583314,0.390772535619933,22.3154667593172,-5.55686377198549,265.526314631443,-25.1222247595274,10.3142570419851,1.49298832897959,102.823540945336,-7.48709463280053,274.826377423173,-39.1405930480664,113.949893816423,-19.7035043100754,216.744373979579,66.8354629003181,65.3178549607089,0.905146920504001,175.300549020309,-22.8062959115959,134.811818324218,0.854519017118524,59.2658502715031,-9.14478673930692,175.299110424856,-34.6304424396747
936.926457967989,166.013118094918,2.79532234559162,0.858275825279253,1.20509387046538,3.73776384655066,17.7725961753577,-4.17598288466026,272.024000694345,-29.8730877159692,13.2650079886136,0.964296532321961,111.203378895002,-10.8675701923402,284.539751679667,-46.8564852594401,119.066932115068,-24.3286012857844,220.824189205237,57.2000632139373,72.5167278663298,-2.75004217670084,180.086517296265,-20.6824761029056,140.282224091835,-2.90924288797875,58.1001585413991,-6.90536642319366,169.738978518233,-36.988368060629
942.336184703432,153.616785157082,0.77220897935877,1.59107874437141,5.8318005408731,-0.769536836121684,27.7395806456452,-4.52405449785229,266.168078401126,-27.7916855336784,8.19867048858277,0.0812390298736257,107.639347702952,-7.95018968323691,282.089372233163,-44.7321838549547,113.443752965467,-19.9840461879286,205.823946587114,65.1096669512014,71.917502726158,-0.310365689546795,166.617291389009,-23.8267037939342,134.714401504644,2.80419433212421,65.0204079186118,-8.66160925979732,172.13692396857,-34.6082405818195
940.253653203645,170.535975322682,5.95147448846502,0.265193656634365,3.31952229294036,1.32689910312414,21.813908678701,-4.63193282168678,261.616111065123,-27.3306101009902,12.3401823653856,0.935675033054676,109.760918192697,-9.14836015480579,292.494879166063,-46.9013552926358,109.377944296774,-22.6206747272904,230.516115115791,60.168788148491,75.4382606768851,-4.18591277790412,179.211280701155,-22.5534898925377,138.643788122885,0.955288058837302,59.4145210167418,-6.17181806817085,184.445134967102,-41.2134590303918
955.745001845199,156.162600799012,11.2575052488431,-3.22397112472381,0.224914601812474,3.10725128176223,21.9795800774974,-3.8744077809191,257.178958477319,-18.8616633170464,13.9483455342318,1.33102725090241,100.226162212722,-1.23840140980465,284.015661888315,-43.3884880228705,117.169413257833,-22.3786995109805,202.963430813786,70.9371145918945,61.7169076412321,1.45171215521032,183.883520329961,-20.735656874567,143.413538730986,-1.73292902008206,61.2051338756517,-10.5106029949605,173.083936597894,-31.8304086489063
955.473398522746,155.872044339053,1.89539021552418,4.97341585728561,-0.947541452134762,6.21235585638585,20.7761736338178,1.86117536674628,256.923130871405,-17.8076742481312,6.14475036400926,0.393057443544618,107.966580779821,-13.4406651796624,291.458063730032,-48.6449490720342,119.685464657092,-24.576291736595,220.533439913587,62.7229842907526,78.7743021169645,-6.61231669808992,174.08909834347,-18.6300323776192,127.559661006355,4.96961866731257,52.7951889518027,-4.90435261282834,179.017645791436,-34.5227894603539
926.600440114311,178.221548326983,2.70033712713896,1.53672402264863,5.40528979794222,0.22943524570881,14.5162649925992,-1.5819150037382,270.274086293939,-26.8209716821185,15.1250572715783,0.08664339119478,116.313749227012,-18.6427885046528,290.234256022998,-44.6768833563425,121.345645961411,-23.4754367838407,212.661632377702,74.8738878206832,73.1490207008114,-5.11895599349779,179.397988465023,-23.2785933401356,142.493160932001,-3.85774157891946,51.5032914484205,-2.06895398759897,191.58572757725,-47.7833007567111
