842.951316004849,120.650403928012,10.9341429468991,1.32833559674769,3.6729460719511,0.938418533723968,11.2179959260689,2.02163765729688,286.689772036836,-31.3727971786243,11.1450347324238,3.41673869931944,112.463241084196,-10.6222173105649,324.183621560649,-51.8061089224747,119.300308220037,-20.4855955916852,261.747923409266,66.962163852879,78.5599223038589,-2.55292630353299,199.129523739878,-32.0516949289937,165.007909072767,-5.15995476176403,61.3914004356356,-6.31896731016427,183.845127194273,-39.9966995826498
855.968994363225,113.624569570307,1.09250830363944,1.55108233041252,5.24718643293648,2.13305527771888,18.2099504802669,-3.74862212667614,283.518003290055,-18.399324089534,9.9447419259817,1.10404322019191,110.288480090595,-9.69673886114655,325.921636488892,-50.564121443732,124.756105638262,-28.2520181549075,265.08947460628,66.3945629226941,86.7421349263912,-9.55372923082108,198.633109745183,-31.9359273092306,162.705514120472,-5.72973152040385,60.4700462630628,-7.53536875015402,189.393779150181,-41.6721004305614
840.23744480198,119.408241403956,5.85259645266773,-0.192755196791886,1.02469340419512,2.68286611202001,17.3154787142233,-2.31469538493665,288.669580335331,-24.464698079181,15.6649201783521,-2.74878020811252,111.398606233037,-16.2985369033538,315.719860987122,-50.6875826098632,119.29788791198,-21.8097350987904,262.824868592695,58.2958172253344,74.8116721488976,-0.909754521590946,183.635243268307,-20.4840433058184,171.030213234648,-10.0363357751511,64.1416322227311,-6.42703656684553,178.991471777757,-32.5427609932953
849.952629877298,120.606667121176,9.83443782634692,-3.25238640026538,5.15835320786009,3.30589998695432,14.2138875287123,0.576136176788899,283.347508184966,-20.5638027175669,12.2153069524451,0.902903355459069,100.361192617475,-3.91739504148409,324.70736164484,-52.7586691180257,121.086551724524,-24.8653943861893,263.603793135295,60.7855085708435,77.9574128603355,-4.79011903143055,184.475809038899,-27.1098042971683,162.127963892902,-1.05752378849935,54.1638314047997,-1.90604921941746,182.963142522062,-42.9958974275249
877.309731288586,113.754282303973,4.74734827349909,0.984005552156348,3.65978012422219,-0.557763145808342,30.1805211350915,-9.13127799716121,291.066135630068,-29.770332607864,11.401740270257,0.230693342122487,113.408081404742,-11.3172133943079,326.340353478145,-56.1199429034758,119.206761122327,-23.5236866959374,250.077607562465,81.1640656881935,81.4000958063182,-5.99782422228663,196.53657441196,-27.5179068309214,167.642270909246,-9.18345125662928,64.1744887042035,-6.42544408454521,182.768905595848,-40.6706414587877
869.852694038628,114.453419020482,1.44962839700681,3.51385240057913,7.5775036924376,-0.248427020771077,16.2427616863096,-0.0580228334847267,287.753854319271,-23.7636736804934,9.16774606103891,2.51761585249987,114.064614008892,-17.7576743258691,325.457507498871,-55.7622908768678,127.586370906499,-27.6658930728309,254.251610332548,63.7559122939048,73.4543204584215,0.677585400195706,184.286972356657,-19.9965266397117,157.272180064154,-1.96181590208253,63.9156338355458,-8.03346701332905,183.263537823391,-39.1526810628304
867.657536347625,112.034188169788,6.55112407134266,0.0691827080616675,1.15705283536803,3.76217009154459,15.2300241038191,1.98028702199646,290.441668459006,-31.8813607584029,13.6780486594712,2.33567016165022,117.368720145897,-13.0596587154971,324.34058229842,-56.7366229716462,112.635335412161,-19.2068076494808,261.061337682397,63.3518016971765,81.3974778277012,-5.33198648109328,193.836785331827,-30.0109477022214,158.27795471839,-4.26369221671693,63.9883822607785,-8.49624477272669,183.413445045418,-41.2957868555257
863.70251453489,119.988149874551,2.74665021152454,2.15006775773459,2.90616618067363,1.18112379702196,23.7442551451024,-5.36397696502419,275.217330151649,-20.4185971912111,13.4157161631471,0.582045459559286,110.339215544172,-10.4774676774013,322.418141227067,-54.4051764612489,114.054027360313,-14.4099972859687,256.316689695352,68.0480370882589,81.8798313546621,-5.80707967442137,194.04019416098,-26.6660677874704,164.702616908875,-3.36744245724342,68.8100297750014,-7.77800248815356,185.057683277281,-37.905626645827
874.935451665034,116.800926330293,5.12067933957714,-0.393418411818322,4.19423742716117,2.22715279613865,23.6653304630937,-8.75215222714487,290.808349782936,-28.6340643609664,9.87244039311907,4.9291469807776,111.335299061156,-1.11369935257417,325.191068171825,-53.0811235726234,122.111602877962,-24.2675965934932,258.347360950278,76.0354273287874,80.8863888884551,-1.47341817785216,199.656122488393,-31.8575868463565,161.472847604043,0.585722423746159,69.8985289729398,-6.23287987963887,174.133193338971,-36.4662692837009
847.672227889348,123.389578895706,5.19260162043973,0.797450502098234,0.691449660320934,0.972132690573798,26.5997301940883,-8.27424008656214,291.917949325114,-27.8002760665224,13.7067117268014,-2.30044078996962,122.138982082954,-15.2797055975936,318.389194198431,-52.5336288410011,117.730647943109,-20.3136143056056,250.845663535016,70.1371979073831,78.1471030047771,-6.63725244794922,180.783904779964,-22.7478311678849,163.160712974974,-7.52887930931027,64.2501419897255,-7.51713056808896,178.472497037322,-34.3574254029822
846.678722960494,126.119349640921,10.6960916311347,-2.86559997235405,8.52402764210001,-0.422805675521158,12.7951992746122,-2.31102087352588,284.188751821846,-25.5651105446389,16.6711148422949,0.702332213324408,119.249630808913,-18.0394384044147,316.258346036827,-46.9441972555181,116.607712519353,-20.7667583606757,258.554053560384,63.9670873647577,79.0288962942633,-7.3872366152955,190.501223065967,-25.1921126449938,162.669616439904,-2.35545563069768,56.6333525740582,1.34271433992368,187.168968295527,-39.6114232071254
865.456010090601,128.394099373676,10.2477719675836,1.06268366960798,4.90437123055084,-1.26309116240519,14.3397264892476,6.39115065274864,289.42284762352,-33.4995225606691,12.5165532534552,1.78993208104224,121.670253681404,-15.7160883607941,330.589409764511,-56.8927541201393,127.809202984296,-23.9789527704763,266.401020217868,68.6987654522403,73.949722512571,-1.73352948541373,192.637206774372,-31.6315725944213,169.223624776159,-5.2318608277033,61.0500490966607,-3.24537134267154,193.398648090135,-43.0691187604358
836.93634576136,132.037469744927,1.50912842525901,0.240927301253777,1.85058730115735,1.93917950040109,15.0229427922794,-1.91558406811573,277.21043286277,-27.6778660177692,7.87252556353756,-0.821652780089092,104.74086954536,-5.03918867952784,319.018132574696,-46.5937378165407,117.633147449366,-22.8668076051206,259.855601761461,65.713860671976,71.0226967410533,-1.35062598560345,187.651292892295,-30.0241023378213,157.668725506153,1.11353373342989,64.2698082559609,-9.19728158580743,186.087601482165,-42.7317454169771
862.528339166358,116.676239424867,3.15774061918667,4.45859332470801,3.53313362620315,-0.176776222735557,24.0591351354557,-0.79548720113547,285.944987426759,-23.8266750112997,20.7502889752454,-5.02499683628734,100.502778771787,-4.76931027092448,329.502135055653,-52.7863537229192,116.841573834497,-21.6727326043595,252.151014746934,65.7070230920824,77.8371900660904,-4.10741415057619,191.707761202508,-32.2547233154352,157.049295228126,-1.22116931311456,57.6786162106751,-5.12967493229631,171.108617587453,-27.3810694800387
867.380535741588,121.561352179244,7.62864733013111,2.22467486379361,2.24668639890432,1.3083281488321,20.358409850433,-0.878146178404907,283.340539715738,-23.0342355750007,15.967761429818,-3.37377298985964,110.879628067758,-10.6245387666886,332.986336557667,-60.1050296314439,116.369448371937,-21.8064318040002,262.510971624138,73.1822339635844,80.6754890619051,-5.58960848313724,190.6095546781,-25.5154810305055,165.170099347961,-4.14519415068806,66.4577769107042,-6.06878293420714,185.348103598923,-39.5483831988865
861.815076795086,117.05877071711,10.3494425986636,-1.44686404921754,1.95749196604489,2.46360058828514,23.76983362883,-4.97601133225455,278.499589919602,-29.7833416509833,14.3158099562773,-1.61547278935627,117.555859066179,-13.0880249788719,317.004468186269,-49.5197140390923,125.052148828781,-26.7708149982341,251.826657352707,65.0180784996724,79.3028170167636,-4.86750873856229,185.217485858293,-25.5723926124669,165.312570903315,-4.39948140115997,55.2052765845171,-5.92077328210941,169.070928912415,-36.2820085068099
866.090513078712,118.666857862605,1.31702649905477,4.40696485338676,7.67280276406379,-0.311200472089865,14.83913314705,-0.828701100317063,283.179039786873,-25.3985262996677,22.2801137363042,-4.93177400880914,113.908022610046,-10.8118642432635,320.469299828118,-53.1615183739003,118.351885915637,-24.4608724785705,257.436589238967,72.8627643551444,77.7399167554479,-1.76941265435617,186.251562033691,-25.9462081721934,166.922964145827,-4.33523024078749,52.0687753871475,-0.752893246752337,177.048103910603,-38.9679362115591
855.527482227764,131.173334575145,8.82885559104477,-0.463374642651606,7.12911349642719,-0.430935198575125,15.2751951847833,0.142157625423454,283.163681306913,-24.2935238186606,13.4253905450487,-0.810948608330431,111.33026158862,-6.7316267165434,326.924311719736,-56.467415042325,114.56625021198,-20.2144628657496,266.482275037657,64.8700334567471,85.0049643835921,-6.11867300734779,183.65400677839,-23.9721483262224,166.837109416354,-4.95058688437798,63.2256662762789,-1.64573242907106,185.187173937009,-37.7413159470997
853.110202562312,128.484435792299,7.48333594106954,-2.15437305192351,1.23683446174973,2.28261003929004,20.8150893474261,-2.76829637259699,285.635143883102,-30.1802490262087,12.9696380758529,-1.05590149367218,105.717546703459,-2.83876320048204,316.083652030012,-55.1729374065566,118.357118886203,-21.4870970583973,254.694269981548,61.8335372179988,66.2089372570926,4.03108861413302,176.076544936435,-25.3697003621213,165.251530369426,-7.14277484982313,52.5318471058894,1.99878264217673,188.736737765852,-44.3806455341275
860.814253464448,112.771501284281,2.85348218721042,2.68965442707351,9.20303750053311,-3.34090674567458,19.1822344300615,-4.37072447679983,277.812005524885,-25.5519853469144,18.0911258206447,-1.40945516621932,107.305895452217,-9.27236310309793,328.442460567823,-57.3303995875105,122.322114145115,-28.7523621233225,261.304028840494,60.7668052254353,80.5205020647216,-6.13480178013327,190.413991008752,-32.1578615079197,157.084256009259,-1.25940046132354,69.6351767180029,-7.97576628976136,174.366418077231,-33.723236793211
858.26545976208,126.648603935799,4.27904312435736,2.50007762978528,-1.75813872938171,3.43367155168201,21.1782604701446,-3.96017086611664,275.568149337254,-23.2661090693046,14.3697218695843,1.14764435956217,108.290799601058,-8.40995278701704,332.85173283295,-60.5661211512722,111.651229925379,-15.4197653280703,252.139911959031,74.1437437896673,83.6383682074124,-7.81106810608957,187.447780431647,-26.6982229869224,169.45486290688,-8.45850352553441,63.6784631310145,-4.6414638761879,185.178021522826,-40.3843019824026
869.923918191933,118.179105288265,13.2321846369839,1.82813008439907,2.87765324164043,2.00394646831423,21.902541733718,-1.91752288346559,283.822578458909,-20.7246899336153,15.4602374797125,-0.518235639265097,107.457171392745,-12.0153737367208,322.774155942722,-53.2661262297576,120.53293717802,-22.3157613756611,252.305268509811,68.0977248109366,82.9569350345038,-5.10527177672232,186.123249590917,-29.1912046043371,161.196372734902,-4.51551459124937,51.9824461352358,-3.89993645304132,182.535094723241,-40.8757969327959
856.878447456615,117.221551080077,1.02442965186409,2.76213573673859,0.704494279325889,2.12266664736367,24.5244554605586,-7.92842838414386,294.724255989591,-30.9401201835912,9.7355249944917,5.75254612409299,104.745385156523,-5.00767424462334,313.650362214254,-51.2683215529519,115.042949773561,-21.5653068921163,252.159077550688,73.9728719128492,76.3214415755418,-3.03561230107033,181.308776733731,-26.8743427368266,162.481834966986,-6.72858710623241,70.5322838730327,-8.49335525837449,170.758614905608,-31.6606118500175
855.717531577222,117.402255643175,0.914508020326633,3.36590949261344,-0.413496458373046,3.62000133501603,25.3283102081041,-5.60278486953287,283.43556886299,-29.5728356960956,19.3065716463361,-5.55588163583578,121.262489242525,-13.6897685464014,325.092338584247,-53.9268924238702,109.164125552795,-18.2967563489456,253.624751756295,74.6843982147621,73.7043062401013,-2.86752904084605,177.305411416946,-19.4949905589507,174.405636465199,-11.3585942259521,60.7518025126422,-4.66354018088902,182.853856711198,-34.2859244873237
862.542426024936,125.474140075027,-2.86193770374974,8.86198606106528,3.0430146477294,0.930456931074276,16.4164073703129,1.47327206099133,287.559490413494,-32.4110096709864,15.3387145111678,0.869153303950195,112.453346854967,-15.6332308637561,335.146160876123,-59.3570697743625,114.944103729188,-22.9459248293309,253.774830175564,72.2445415574992,77.9562979994138,-2.31458974107137,189.298942651488,-29.9852298776374,174.525656649199,-10.7888044534248,61.6413498986087,-6.38463235664925,178.194036870921,-38.7923021929607
857.702463872022,116.816869250943,1.38172487857782,1.64328318408735,0.672045222564757,3.44408828207789,23.1693671335617,-2.47691674417866,271.835090618105,-24.0291123110767,9.35599208648789,1.19249690245392,103.317216204095,-6.41012740180964,314.178660237872,-51.3173270718215,116.601484237204,-23.6400372906677,245.459983214199,72.0162195038825,74.520262985486,-1.71942676941659,178.452226666841,-23.2016520335213,162.591457401977,-5.56047312897725,65.2046890529261,-3.02462986735144,169.367182026508,-29.3070223384601
865.274860966731,118.977687368836,1.78386234447428,1.57309267045777,5.24681124300647,-0.790896266222917,26.7765359078207,-4.58418198106525,284.347343926507,-30.8140343596438,10.3735356141535,1.60898678607112,121.384880979204,-15.3491499643645,324.798674433679,-52.3867278936707,119.233414217093,-28.167210070022,249.699990380614,64.7381139995173,80.0637186347217,-7.55237576888404,183.476525188521,-27.2402903635967,164.66255836886,-4.5652449930307,59.310399417736,-5.14275147291365,175.675204322872,-34.5947472654699
862.172749576713,123.027243374623,1.39017308282274,4.05974995840114,-0.218612447064051,1.53336052607306,21.9938702039591,-4.54625070595921,288.179767522578,-25.4624574126424,14.9048269286239,1.25265770448375,106.086990194807,-7.02974487270737,324.461869961038,-51.6579965316914,116.966843243914,-22.2538548518214,257.400549317031,73.0604335901768,72.2664543224848,-0.710611450065681,193.314893640967,-33.2797762108754,168.822077056114,-7.74483860651593,56.7870775501071,-1.31368130141502,177.325754866378,-37.257887608524
859.013577496304,111.576558839037,7.10419340953818,-1.77589837661422,0.613576484458879,4.86414853775072,25.8885131235521,-6.57428356015637,282.260816206858,-29.5379238753206,10.5484482761008,-1.21960979019761,115.321062566931,-14.6774982296334,322.831180764629,-54.2918951828764,115.873905256092,-23.8179662178136,256.59836052847,62.5589519024718,71.3556642607576,2.32053526111023,187.984949297814,-28.6640216944308,159.618939701123,-6.64360048524277,53.1038400320373,2.74861298187099,166.334409627863,-26.7851321125427
849.398315009851,113.705576548817,6.80841959859114,-1.58829656660401,4.05793518410549,1.81907154192414,23.3122497167695,-5.67891008359257,277.52035477534,-22.7476017282652,15.7426849374629,-3.44141719777632,107.623639870293,-10.3775777162244,308.061307831308,-44.8666099067517,113.044131419769,-20.7134649909217,251.172642244206,66.0126637585819,75.7230491552124,-3.77847992682405,187.207034680808,-23.4975372655615,162.134160060412,-8.99757664242359,65.8389558192091,-5.57473932975598,177.787515720439,-35.2228130996204
856.581380711251,121.655996515391,-0.159275773397878,1.94823006802507,4.6031970977113,1.49253615248294,11.9145337158454,2.32831439413788,279.158773389973,-23.4641428552929,13.9957087393802,-3.02133602337653,107.840868608333,-10.9057995086117,318.937118118593,-48.2035054036056,119.028697916783,-24.737683664463,258.578757905318,66.6781372135025,81.1852401872236,-3.81588069769031,190.619959529293,-29.5465758221672,164.945492646773,-7.15805886149558,61.6276117405764,-2.0016205483062,186.482905927931,-37.6794049127103
871.422390473473,119.942656815173,6.88691055135661,-1.79106220539387,2.09771678895408,2.42181537459497,13.9372653958922,2.00881248279615,293.566989482217,-29.5236145004825,15.559129629101,-1.51590699446443,114.366586376627,-9.77090194058804,323.05357200773,-54.5322899535226,120.775550141891,-23.4469968054327,265.178210338878,61.7591273781871,73.2377683854934,-0.748622047130013,193.057713035893,-28.2036864511813,163.849479551069,-5.51451858105724,56.1318508277836,-0.437808390572384,184.540180698643,-43.2571189490921
860.241327346344,119.557392793976,10.7631502456655,-0.505327123187638,0.229771825276494,3.52185174541022,32.8766401590832,-10.4922554201342,271.293680021077,-18.8103393413504,19.9717457999857,-6.12839286726696,107.495058238343,-8.17831023860655,321.122428873298,-56.1589354045828,118.215652650591,-22.5995840987283,244.147259685849,70.1613024419332,84.7520440113964,-8.13578035078719,178.845561543167,-25.2405610245518,163.516105947848,-6.79187683713279,60.1256212912574,-4.61902986369986,171.443466260285,-29.2415809192324
867.507692980507,124.06429101155,-1.45093328540323,3.98207046441257,6.81182264871794,0.0372658660215109,23.7647662477637,-4.74762762095298,282.012881546311,-23.1315712255167,10.4042329509042,4.40038505591989,119.113603683128,-18.9434023488483,317.053610898451,-50.209724745367,105.68255946017,-16.4720870764562,254.865140266012,69.5678726539042,75.6513668596426,-2.81694931167541,183.431288506077,-22.0708719116964,158.666530633821,-2.46274577158125,55.0578627534462,0.635677593100644,185.989106139273,-42.498078441705
860.793039107605,125.67297256355,6.7386122514142,0.0629369290492828,1.26795262353663,3.05399128049999,24.3181378330261,-8.00380428279927,285.1965682791,-26.49413525414,12.8743991481447,0.108190280668352,111.07842353348,-9.74975662183671,328.199327536884,-58.5441961254398,119.555329244296,-21.543712324019,266.880925299101,68.9949855985291,84.7984959272621,-5.61615795503621,196.780178564765,-25.6181516301977,162.826253077456,-4.19599009304087,70.0406260102236,-14.9293080331337,195.171032305794,-44.148268357794
844.332383207372,125.746760324355,3.75324050838055,1.0324684232716,2.41101382773903,1.45178996045756,26.0355426625069,-8.4648082729278,280.330540027496,-27.687203920972,9.88658506292571,-0.51085699806739,108.894126350404,-12.1859901279401,325.852112362626,-56.0055349799655,110.33371421492,-18.588753497237,242.51250596714,73.7718745484479,79.2505465279061,-2.75518289054422,179.49063579216,-23.1558856431872,163.477458355242,-7.06771873818764,72.490480924169,-13.295142672431,169.403683162854,-30.1634456354966
860.922896289076,122.14081671452,1.69412582861649,2.37131892129243,5.69431693584988,-0.410166095941014,23.1654778888906,-4.71894383840615,278.252499097723,-24.0786882417634,2.90067378868942,1.11473712928715,108.066316293546,-7.44795189416423,326.057983045294,-52.7181210722645,126.248167402674,-26.3326422448529,247.747510255973,79.1800572337213,80.7229970524515,-7.4394844051936,186.088336120373,-25.7424373372994,155.810647410317,-0.288958301374121,58.2558808266618,-5.17774621685147,173.071264809909,-33.5140177443674
854.134080136214,127.884649035681,2.90119598221259,0.29990896908058,5.07878716317744,2.08091905146987,20.9498359958625,-4.87554241053709,288.404071793854,-30.7205053627504,16.0200665179124,-2.96524778828286,111.435566715665,-9.40404016257179,322.170599114553,-52.9565123123026,115.935195549754,-20.6267683621604,265.092698332836,67.6486610186779,82.7581278171657,-4.14509049621636,192.981490203118,-28.4185066338604,164.860328160189,-5.88550387144584,61.8447577229026,-7.20032161498783,181.490110689011,-36.5121745666135
868.689800840954,118.597760769071,10.804073139568,-2.10441405421007,2.43740070863125,0.715495925664931,19.2616860480251,-1.72341680427939,292.53452016433,-30.877448230163,7.55568048449225,0.422043694974497,116.585940900931,-14.5419648917995,323.676119443098,-58.4087563111495,117.850376078724,-23.253032894295,262.722004391966,64.7165408719031,84.1685243593308,-8.65744819235501,181.055579355048,-24.0077489889229,155.438760686761,0.36143172714193,68.4127948789389,-7.19710606773669,189.508548863569,-46.7462697424413
864.928122821911,117.112162607273,5.16728132637054,0.947631895926385,7.02582082889534,-0.626369621696709,27.9050522474051,-6.94883413775053,286.567681042425,-27.6622647637775,14.9323285917149,-4.97573647945418,110.602285297014,-9.71831826001873,319.159895812974,-46.8926505138304,115.915380613017,-24.1888486113608,241.502494100595,78.7875394664517,79.6566302361271,-4.82657503973313,199.921820498156,-37.4976225924354,163.829280522891,-5.53533052680216,61.1388598029882,2.22865112725137,181.990367020176,-40.1452437115315
868.643290279103,120.524030793534,1.31700726671881,2.54195081032494,5.0242551183971,0.544354894148168,22.087980067315,-2.32639950790974,287.92008708477,-28.6086668566091,21.9202057860331,-3.74193342573861,113.606621313973,-11.9428098280762,321.324176476477,-48.7225910637005,115.602641599951,-20.0834999487447,250.880353936757,76.8800090036232,76.5453555178222,0.353621796495262,186.242091744607,-29.8845370470297,166.734522380226,-6.99840129427522,68.2283304835527,-8.15958658722238,183.15319080909,-42.0811174676341
864.498924455123,132.054496783275,0.108604105225825,1.72365275654929,4.75143364558464,0.0707196442687607,15.2998426976833,0.529810788382834,279.280652175919,-20.1770817740218,17.6756859742643,-4.5561966605501,102.253139549433,-0.951546433057824,336.367741659431,-60.4520008876411,124.562589688107,-29.2556709324402,254.389792502534,68.5606221804134,75.9080577431564,-3.16600779996374,181.345377449103,-29.0265945803316,165.264301413137,-6.9511446726721,62.6026312505241,-10.2688796369317,170.890824139848,-33.4447121825525
873.081234300914,114.497214066919,0.911296153442057,3.72000874026643,7.43753441220464,-1.81068118704113,23.863231851236,-6.8616411484079,289.10620803751,-28.2042525128615,18.3539177293732,-4.014026779732,108.052442433038,-7.95397070650064,330.100449870116,-57.0221457150573,117.811886763454,-22.472329424108,254.150774043988,69.6409306286159,83.5947134919417,-6.6775904760368,182.422877760629,-25.2169129900632,159.796646041584,2.27554077277945,57.3379259211517,-6.46632626176104,173.533824548893,-34.0717527567603
867.529578955516,128.119149766945,5.70535107303503,-0.147337723782864,7.77251268094357,-2.16628380241438,16.1342736317591,0.0521682677877604,275.63683068824,-18.453772787708,11.1412251804468,-0.0620908241703658,112.832718342179,-12.0641499456773,331.997153398595,-53.6455207079464,117.193363804192,-25.6984434264018,263.890846540099,65.5666707014495,75.351874597238,-1.0787250092977,195.792382628303,-33.7841400945688,171.893166766816,-9.52240868514417,61.2161546341198,-1.93964016508608,176.525605172644,-32.5560148995692
873.544859441583,131.157975863404,7.34745006610289,0.537085797874431,0.569435857376496,2.93148688710371,19.0957711898925,1.48851129432894,286.040555482301,-22.3157874402059,21.6639330161644,-2.90597342380643,113.564472723191,-12.9498320823075,345.262424317318,-57.9101015917176,117.581969620775,-21.4608319094136,264.671327167228,71.2045998339019,81.5316093625267,-2.0605102561705,198.782042135919,-30.6657760418329,167.089697833962,-5.66338147113626,60.2398563270256,-2.32401165429923,181.951865265411,-38.9191995846781
865.651687257284,115.65291843119,3.93787716075102,2.18832819738697,-0.0961830989054057,3.42746234914873,16.3719280635627,-0.384999534659786,277.918501138474,-24.8970947762466,13.7771029332851,0.357171689015725,115.550643785548,-12.2204097912916,322.034948569634,-50.7342666726091,112.037690357829,-19.6716915500936,262.254972305726,67.3921881057665,84.5778272101409,-6.71879358516686,182.106027914156,-22.6796053705404,165.148286885419,-9.35025687274857,57.2208343347596,-4.06887201067499,176.739084322754,-38.1370096307008
877.960290309075,116.850250286343,8.00353752317639,1.91351113838604,4.61379426209407,-0.675691311614942,20.250559518106,-2.96305605070064,279.195510146834,-23.9989770076115,19.0458559941498,-1.57153169926003,111.100777356373,-11.1490327051737,332.675954678314,-58.0886358551916,112.300027237166,-18.4171352528761,261.20951089893,71.7636429508499,79.8763572318246,-6.42806402522122,174.145404913225,-18.3421109223775,159.751994425807,1.69650314920293,60.0517329086502,0.959075742084681,189.350262965087,-42.4955141496245
882.575015394081,120.261891859373,5.85529811172302,2.55339783436243,-0.734637315314663,2.53895583281012,19.5770981218768,-2.24806697149492,295.377518803432,-30.7365376975657,15.9733936479238,-2.98802512834009,113.914650773547,-17.2465474375377,329.606070856234,-59.2539520239452,119.601314490178,-24.1555462685438,260.710525209765,75.5594756540681,74.9046464611035,-2.0415314420408,188.299336814951,-23.2916728844061,170.219785368555,-4.83361829259131,60.3181262368172,-8.3732733004178,184.717666270906,-40.8923303915961
868.999176274322,121.068018347635,2.44431846895485,2.27821655186939,3.55488424966077,-0.344273540108797,26.3045626747416,-8.38512930604829,282.252370360116,-25.0832453462632,15.0240702218091,0.894913871982036,107.727656106575,-7.03837357842625,323.539935055975,-49.8618378854978,117.915222248427,-21.6249139379322,250.529604040374,68.327791092275,83.6040247046408,-7.0915864360235,189.26739609047,-27.2362209596664,164.350936355152,-3.04244002568778,60.3409205511563,-8.14171375860688,181.957933895062,-42.9588030293563
854.365883884495,126.770314956273,3.15791949771883,-0.296486548184589,0.63039535136076,4.40182196794496,19.6905820372442,-3.22235952620108,286.673491240231,-28.8684858946731,18.7236294780078,-5.70553735285437,117.026138590362,-13.8933829340438,327.649951029765,-56.6027168889387,114.573749482234,-20.9177991096458,250.533398882218,75.8873607454541,76.8267106130096,-6.17640169867263,185.228397666069,-26.3609031785419,162.80799417788,-3.85179309080101,57.2953280190153,-5.31538671207804,179.296434018174,-38.3354844670608
860.125129164072,136.225069239983,8.61872173048689,-1.65789246938361,6.50526826454464,-0.517539523893973,16.4729427306376,-1.12057322344969,290.226712075866,-32.0426757833141,13.6090951238502,1.06148309974291,110.606678285996,-8.49397728337487,325.774828585218,-54.9862139707524,117.971372837753,-18.4771485291192,257.357880648095,74.9696548387022,79.9492183527143,-3.7845206537235,187.966318292526,-28.3050108681334,165.014028198064,-5.53974132138113,64.7980464420671,-3.37601605659935,183.242938158072,-35.3184359510794
859.035752067795,130.650979520089,-0.132805551472543,2.93293540786869,1.23686590660168,1.21393467353246,18.3414675987879,-4.64553430141513,298.189949002364,-36.3162657382367,13.1503049875263,3.62580283685546,117.601344713329,-16.6861840844433,319.825498194053,-57.3320205713788,114.111197635049,-20.5689951260155,258.010918241973,64.5268966658386,76.5723779326549,0.131841181965713,187.475310666017,-22.7049695832282,167.633844006179,-7.26081537496809,63.0922692221087,-6.93924298897306,182.166252387371,-37.5294224958163
857.128575486154,127.570706090268,1.48033718982587,1.18239438763776,3.26936793083336,0.213147872946983,17.9097348789688,-4.75316136947164,287.351345570894,-28.5252476729826,17.3581598605979,-2.97067716484611,113.385703205742,-12.391215138242,326.655439155481,-56.8108149534073,125.208124054475,-28.1241614040329,256.335060402327,67.3022476317817,79.1432054776081,-5.10484779796912,184.167661168872,-25.2991732203278,163.882121563404,-3.93616577594391,60.8856385862213,-6.19400823863314,176.593573482981,-39.5054584343502
873.280833879756,127.438115141953,4.22681078217253,-0.0409736125106576,-0.14229200693272,4.10904719106597,22.6087062202891,-6.15777104167574,284.112506542954,-22.0743069239308,21.3222391682476,-4.8114160578165,111.780928701613,-10.4977742835573,323.132211363913,-57.48613019348,113.260982468634,-18.702205103355,250.975494467005,71.7036289201718,75.850281178991,1.43650965156957,192.690550163817,-33.1949699749579,167.416234050325,-7.90240664570759,58.0380848920173,-0.865060851658154,195.536176834253,-44.9285715867563
858.515859732028,121.536911942266,0.490627474849892,3.05144716560246,6.54675378676888,1.17582875226311,23.5876900180928,-5.20800416725058,290.487585994063,-29.1864814848133,20.3891909964562,-6.04602622724941,136.041377218325,-22.2676893451065,318.626885086186,-51.940654673501,121.096623177425,-21.5759781378298,246.245838353083,68.761201551834,75.1475665421109,-0.789673099259735,180.978032359041,-24.0865899696394,160.965432252335,-4.39402835401861,64.2540895054101,-4.88430377401884,184.593579251931,-40.4200195441909
875.460297942791,116.628930513668,3.44664535314984,0.459343698625568,5.62161471587357,-0.376517656928214,22.2850820335851,-2.71043992998184,291.129903204993,-27.9831448599469,16.2116913328694,-3.57411985003735,116.905524368151,-11.0479741086966,318.360908627061,-52.8745919593447,117.488514519291,-24.0863891729938,254.629001236503,69.2213142100832,78.9837102049796,-1.79698611371238,187.992820796926,-30.1271412946163,163.382298920013,-6.20730853971802,59.8645667053904,-5.37442624578264,179.407623125434,-38.5633121666207
879.874431023503,118.604849910781,3.04291454720702,0.00286119951816856,-1.00794989978939,2.63444362340295,23.8656819707028,-3.29761104907271,279.12140144738,-24.3014277850822,19.1800217558505,-1.9410523656539,119.25757431698,-11.6659673237652,323.615651438777,-55.3085964422145,120.159547055627,-27.3095188782856,247.960515678006,73.2228422679554,79.9276745744352,-3.49862860687581,186.018815044018,-24.3384056023287,159.076335427986,-6.34062440061046,55.5867354476321,-1.97403636286438,190.977135386074,-45.6623737489533
887.641648437606,118.273260593059,5.80553716922859,1.05288942444222,2.44424228898282,1.38173519940896,31.1549246263189,-7.13464348959716,301.437322907096,-36.5524753984714,12.8041228663869,-0.525699802658019,117.366775254279,-13.2590222808505,331.363816890917,-56.3572912060376,118.604663949281,-22.9718102597678,265.256403955854,61.2245650712708,84.3623782354067,-3.01128660572291,186.898255519341,-28.0528334317665,167.740318518792,-3.60876604933787,61.2531328759279,-7.56890754148118,179.983522564061,-38.414475856931
868.442205132692,120.819038843806,1.95245182731956,2.23134858454079,3.11765583849533,1.67787835535564,25.7878511884259,-5.03491091762897,271.96710899216,-19.0359762058778,9.66789498753553,5.0898151770686,104.449893375955,-6.06181518704817,326.903342579709,-55.8550553256086,112.668879333799,-20.4225571815918,250.696336276128,64.6722404325344,84.3749580525995,-7.47478605885096,179.835857332787,-25.3391392833259,169.147969765425,-10.6178295987421,59.9665171109696,-6.01852662849848,184.983751604624,-41.3592497149575
846.727193395938,135.503946281176,2.67168770235898,1.5713867466762,10.7167291221447,-0.897863376652439,16.6045914036789,-1.68115992305554,284.558677741987,-24.2683569875333,13.0439380229556,-2.02051360289449,114.017365047583,-11.6479947162489,326.838725832821,-57.961234157712,118.39142513986,-21.9701999660623,250.336433298697,70.7360744193406,77.3231342755864,-2.25790124748461,193.801130641598,-33.6386193787138,158.312847735983,-1.17003455306132,56.4924369117956,-4.03841469444371,187.158758218802,-44.4185250968289
860.587582460529,126.156784107187,6.57406367935239,0.262149649756141,0.250976795799381,2.92224084065991,22.3052011549731,-1.55470035796623,293.014902804588,-31.4363105712818,26.8996832842532,-8.06935671744881,118.525716122108,-17.2608442698597,337.999899371793,-52.252350648621,121.137698872028,-26.073758007716,259.52300363971,69.9527855664937,78.8552062906041,-1.97400306517744,187.671841326006,-27.9831798069275,161.252830279933,-3.01963193226419,65.4301591575914,-7.65325421846328,166.814663416248,-26.4391836393001
869.481944558627,111.167734746651,7.88180620228471,-2.5490254829836,0.543113883045938,0.977012806506429,19.8100440370959,-2.8827741256031,289.888381020877,-35.709585599986,17.9775613081246,0.659329729320658,110.435368653554,-12.4741353478602,322.545793436765,-51.2057469403549,118.406985219102,-24.5177359723638,233.810992316792,79.1395773538082,77.2363477563403,-2.84535862790587,191.982454935077,-29.6185591896308,166.657395736271,-5.31477915384893,63.741350038607,-5.81639087316803,189.783377946695,-41.6018550471323
867.865323961058,121.579212021217,4.63995658452655,1.84176244938918,0.500366741512225,1.20777034041895,19.3997339024437,-4.22634422551319,286.466554901772,-30.3869551440586,15.7161991198351,-1.74808692614525,111.033722398896,-8.18057607139818,326.211705261794,-55.6270880070656,113.448148100743,-19.8147564991379,242.888895127604,73.3393327944575,75.2213518270919,0.359364802180828,176.145488585043,-24.9530401474196,169.498529234391,-6.94141599272983,68.2348438016953,-10.216838888179,177.584260975108,-40.0747527500189
873.63160407675,125.065810452711,0.713881711796753,2.65418618203018,-0.119847539083987,2.50581500743508,20.6198979044931,-0.822429444463761,303.321309992996,-33.5029450315717,11.5616719536789,-2.32916406064921,114.282503644822,-18.1602018389406,328.452366603376,-53.6226976913411,110.398514484861,-17.171669109788,254.073121434809,75.3820025965177,87.3683666364171,-8.53965721420912,189.614160367439,-28.2552294126855,162.72223906629,-4.70556141209805,66.1489100971764,-8.75420888346068,183.495454724716,-36.0922310181637
860.237404000537,117.006736240202,-3.34775145735328,6.87578910249721,-2.17882764243663,4.56299700278259,27.8184049922901,-8.20725579699634,280.432316928414,-22.5179188116566,21.5988755339447,-0.595624887521101,106.826439649362,-11.9766795293651,316.488371205979,-53.7640575732092,110.141286799817,-20.3429507704249,240.682147626061,69.1219905707726,79.5338212947769,-7.77550366323193,184.227159453256,-25.4537963705932,162.943605999019,-2.86661258919535,65.5756240164198,-1.72062633645907,179.396417212447,-38.426353383714
851.514873102682,128.955232258231,2.82161603181275,3.31419114796298,3.10006659991418,0.90661110060096,20.167574871055,-2.74174895977694,277.685641944193,-27.2577244495426,12.8432011088738,-1.48217639925497,105.861756643063,-5.51721341402024,335.860453817133,-58.6189530657501,109.73616576646,-18.2913669540086,251.976829524556,65.1605890210569,84.0105873102199,-7.12934428969537,183.459861221084,-25.2391072564162,161.81126055434,-2.63856704360068,70.0916800479866,-9.28181612764252,172.547595342973,-32.2062545975823
848.167332449552,133.485498832201,2.92069095419752,1.31439883106977,2.17713879826702,2.42740320364846,16.7711954038221,-3.79968603767235,294.833921293305,-24.5841887209907,10.8123045299292,-1.39591187138499,102.121937442322,-3.48234451161931,329.41234936177,-52.0769454702392,113.998359317145,-19.5982275567925,264.176583466059,67.6457383397738,76.6621832628168,-5.60530003496827,180.148008138629,-22.8112016964052,165.241508507149,-1.50655610149116,60.1278700553924,-4.9210641199035,181.477061464645,-35.2101641149883
851.596961502192,127.43798302644,1.34339014178498,3.09868603431759,3.36658621710768,0.825966023421436,16.5965157480345,-1.83011536676436,286.295003700472,-26.8599767257416,11.1208665406296,2.81392759553988,109.405195804918,-12.945273150385,328.657025564475,-53.729677718713,113.695786703723,-21.821558542279,251.777336662222,61.7262512623005,79.7593867450333,-7.01555405451793,175.961934711619,-26.3141447634827,164.647865393158,-7.22816421638125,67.6010629118107,-9.99069984810744,164.983618573746,-30.6437424537303
851.136387114954,122.213554122998,6.50686446175433,-0.876881552146994,0.945961074122102,0.0765096123244237,33.8821643523529,-4.87297169942668,282.629393430248,-30.1124540002989,15.1685127281651,-3.27096034482644,114.962596460139,-11.0167056161721,322.126597437917,-52.7653845447195,114.184395731293,-21.7138486825423,246.286066886427,68.3649962848443,77.2219795570399,-5.49085453914371,179.154518269688,-24.5346064120491,167.77759816918,-7.41076526711712,69.3073133054451,-11.6128970162136,170.283403294451,-29.1586207590892
866.843003528248,124.762584500225,-3.15439047536807,5.08162918882406,2.30897531487681,1.36479563376791,22.3665348829519,-4.01740682104089,283.763849005459,-23.5042933578278,14.2411075673806,-0.200765063712313,118.389361914771,-14.7359572609841,326.112856127679,-58.3530743564513,116.469697326676,-20.9397994805595,252.828818634869,70.8712358443072,81.2176478491274,-3.11893200290157,194.433807284814,-33.5917533782591,168.229915306079,-9.99012916878003,68.4186976199257,-9.1209325449869,187.314392285183,-40.004118096772
868.49315374698,119.274862521437,-0.846138412690908,2.95126233264392,8.73729675765792,-2.04419954994865,26.4679604063017,-4.63980689395797,275.424273999258,-22.7363314595998,12.2277002431487,3.55487970797422,111.429982449414,-10.8106582530784,330.837487491539,-57.0766399480178,120.225528143346,-26.9608262873145,233.396717679501,78.9581454964621,71.1870437461642,-1.74856098200753,175.884637756085,-16.918528955024,166.481357767044,-7.42816551953457,63.9139061451632,-7.36934018267283,184.08191079986,-41.6586374973607
855.472766848347,123.335849125216,4.54556919344303,-0.911242657942752,3.3187032900617,1.38757683528133,23.2336701539098,-6.58883051843794,277.441745319424,-23.4361711358471,18.1991402163664,-1.39550307529186,105.474954996607,-10.1916845404504,323.880159338324,-55.1868789584782,113.566763733709,-16.6861172740629,257.052468418985,63.4138781537555,76.3570201510245,-3.18271831634811,177.623359475476,-20.3656589580231,160.864829103434,-4.21949705505012,64.4542565572273,-6.7225722828802,174.407051947769,-35.1096406672077
857.828405303763,128.439866635064,1.72753254086996,2.78080796430504,-2.55943340205464,5.50101352463451,31.8350315848404,-11.4787070293716,293.227734632747,-31.5368290215783,14.9814811606493,0.657070232923066,115.076414956287,-13.5589048418273,320.324799823743,-49.5796331829099,118.849226182064,-24.5921229639568,242.41759652457,72.3146983937148,80.6180954621993,-1.64808281208822,191.703259660265,-28.8939021941181,167.228807322279,-3.61138732024013,61.3480429696849,-5.49882445334861,182.052272864301,-39.3729981850425
872.4629472888,125.345274874846,15.1512425179582,-4.05540181438962,-0.410126502077271,2.46839912345455,15.2570525365049,0.148580090392663,293.897268301885,-23.4873146083772,22.3974879077041,-6.10628559360924,111.323375589162,-16.1238202000381,333.821299840468,-60.3641092063875,118.803350618397,-23.8580883142825,259.702276379263,65.2848256418764,79.2059248349376,-5.5498734318333,183.196207994638,-28.497146915933,167.279030407007,-4.71398550690526,66.4229271503744,-9.73470613385479,173.007344750335,-38.4632581727578
864.588153655096,117.00223207562,-0.81638225490193,3.16159291284193,4.67715034056239,3.08608900517209,13.2238980823035,1.8323738863101,284.914438068151,-27.7929526004634,7.58358692413312,1.36849602126475,107.781582059946,-8.24374345421055,318.617413997823,-47.4934054038988,113.849257553042,-16.9845760518138,248.511727738724,66.9126784464386,73.4760856965342,-2.84571274263189,188.916650640517,-24.6562942322157,157.598402983734,-0.337100323949188,63.853112368782,-9.93270476652882,190.112802642625,-44.1849424176617
870.324227106336,116.084298244925,3.68807488771397,3.69461660318298,2.73621839018997,0.709525573477279,18.1709573698621,1.46244468990794,283.918036549305,-27.9546264503991,9.99225470944949,-0.0384971747597994,113.732599457693,-10.9237560289878,323.958631693632,-52.969119176918,117.084709826458,-21.7913890912783,240.104183960046,75.6567090558119,67.1194985483778,2.75546828281211,183.690194240236,-25.4907803521095,164.029846035142,-7.41539889597887,62.8274796044438,-7.45097456083992,180.322392183942,-38.7543888204394
861.494850680581,136.032843660214,3.08884667997494,2.48580223921057,2.40167850474669,1.07759531576177,24.7503794529201,-2.54106738054082,289.049014638735,-25.7681684262972,21.5824697556471,-5.0569237683997,107.754500782794,-9.2161870823325,319.987833307248,-51.0467241965843,116.892512111143,-23.7898430991389,267.815900412709,68.0954802458895,77.8180788573461,-0.702216351112895,193.049614520675,-27.8145200392669,166.87587666823,-3.89539281004006,63.2989970388663,-7.46142044739668,185.704908158602,-37.0352293847315
862.605918674134,118.514673707713,2.00358860527384,2.49408255005967,2.96043923372437,0.236209168414089,30.4688373851728,-10.15201002097,287.193519443141,-28.4271960083979,15.4549835733133,-3.05031799869665,113.788439704397,-12.0911984268761,329.292918624108,-52.1436882881174,120.929473861167,-23.6541482390728,247.441854538454,74.1279884808589,77.4792753032095,-4.70982014967667,183.121129662945,-23.798872489754,169.596244912182,-7.46423339435279,52.639639655118,-2.20692761526834,184.759406947017,-42.0375496311862
862.772892560266,124.936287620934,1.83635555860506,1.91142986128831,5.71749199569128,-0.67403295598945,13.6892315739883,-0.903651283202482,286.885120666455,-23.3123437827797,15.9474944954508,-1.36081206583013,107.994969576098,-5.49411200809116,328.796062081576,-50.318822276645,116.734212233967,-20.0863764877808,254.392804407807,69.3009256494336,88.0897803664741,-7.33850394488276,190.980779728956,-26.9270208061706,162.605887172947,-7.1239104209144,58.4061933304964,-6.389780345128,184.186057860773,-41.4920133388651
858.797116791725,137.902133600612,1.84717050880482,1.30372310383909,-0.509339224995658,3.00386534022443,24.0853578245292,-6.64666219719457,294.523295085739,-27.5364254275369,18.1097673971397,-5.16521432384195,113.885797418835,-11.8104658339443,322.548481412474,-52.1235523692451,115.672745387717,-18.2527038661901,272.544264603852,66.9626843672953,72.6172661741078,2.05493985572853,194.21573557658,-29.8195713056152,159.783274806517,-0.343785809060285,62.4331909590112,-4.01506238326293,178.748403794749,-31.2343006331979
850.175773125064,137.134197333742,-0.333112395097745,5.57010798436177,-0.159557279238626,3.58084302190125,25.7733392668304,-7.2249436475695,281.485426428851,-19.9013776393744,18.3815625138578,-3.85362049516384,118.114545643022,-11.4884530940425,329.595581430085,-52.590347734581,119.34166217393,-19.8434849011492,254.139566264319,65.4408010995724,71.0846437447128,1.82707056839853,184.89680054332,-24.328069212583,163.746113133771,-6.35334924273815,65.3872855364773,-6.67944091555673,170.171230810305,-31.9400034084217
872.448185625876,127.995674562467,1.54559957874767,0.729361855740879,1.2238408533831,1.6969333555094,15.6466212868713,-2.69361191426081,287.067757041604,-26.3813229568027,11.3358145795398,-0.653950810852586,107.048916465143,-9.4209242978252,325.90850333485,-53.7167725603462,112.363032310707,-20.9705363713255,248.727323315748,69.896534290632,81.5367389940175,-6.9602094160423,196.934320824696,-36.6070435225995,154.266959523597,7.35370119730575,60.7390515789512,-3.8483470714427,180.651410787384,-36.0440595635417
885.800430582862,121.585060682099,1.96096083935819,2.6325322746002,2.15713494585315,2.3650403755045,17.7862129363345,0.380538144688531,294.709226625252,-28.976649008505,12.6862966717004,0.779751608154225,104.528865572341,-5.23104418570555,336.992333006855,-57.5989250403603,121.790209519045,-25.0837451650983,249.96879012193,74.825076438149,91.4977837271844,-11.2746589900774,196.724043268774,-30.3654986496759,161.312105523374,-0.853604620292187,56.3548676359163,1.49028764313323,187.402255358078,-42.6456119311066
856.079564202528,132.252439361639,12.3863835859548,-3.18261353328336,2.17008675767543,3.60990594218191,31.4131768454183,-8.36027140051934,294.732837715408,-34.1235719023484,18.3049766482753,-0.553631351615403,109.210114914391,-8.21737036023494,337.224762423644,-59.2579299101783,117.579547238804,-20.1050622322134,255.794184492759,67.6173475366937,82.6280925792062,-7.97795933988926,188.470589008359,-25.5072755961562,165.64052364251,-5.22170839732163,64.9830866486889,-9.09719494702187,190.117378449938,-45.5234980863275
869.045732729884,119.195240829609,2.57185978059815,2.21654536206042,1.3478142987761,0.427863909453465,20.8257443731841,-2.89653030988578,287.823517525681,-24.3333340372817,8.71160196433062,0.192344762176877,116.444452403741,-12.0279465184121,335.740426350183,-55.5258947148726,112.041088163197,-20.307154814201,250.147748278821,73.5283106111908,71.8986356305439,1.36066448739174,186.055344966015,-21.0457373715018,168.28740650994,-5.04412431434178,67.8534135169748,-5.84929753203201,179.906815621479,-41.7646219163826
873.871876955206,120.598625524055,4.44330333380781,1.7334792782048,3.18867012528722,2.81892764196932,17.9436344476558,-1.94059278276059,304.534534723072,-35.4097695688769,18.5195022588544,-6.04171034966786,115.025136155462,-10.0131655461264,342.940353081368,-63.1880956869767,120.586735624754,-23.0800377425911,266.75202329857,71.3737364808903,85.4152424631612,-7.99691669252041,193.188450065736,-29.75766355619,161.903018273555,-3.86134208777138,64.8807568325632,-9.09402554680585,179.688728878256,-39.2755178494938
871.84054616333,130.284081821436,3.62459046592483,2.99736178562173,1.78815616272099,2.24614570426708,22.6399945152219,-4.31877184935307,304.283494933639,-27.9658064674815,9.44078819398991,3.56413534755142,115.984567702994,-12.6310779426094,336.731060067597,-57.3766053986659,121.89065820232,-24.1548689327577,256.761238252723,65.3839382397213,80.4150428727732,-3.76451945033324,184.486996931552,-24.4447062534099,164.109541296267,-3.85249264432811,66.027675309826,-7.00702561094485,180.145222235485,-37.7399409382772
857.351952893371,133.658398382391,6.33664725327126,-0.954396046493995,-2.10807019454865,3.57385494969254,19.1952846106502,1.3565658389644,289.55149930815,-25.2059125165955,20.0456535936144,-2.12619744182657,119.696903453533,-15.8792697666269,329.941022733815,-55.5188826304078,121.024190119979,-22.1224688137557,265.116068715748,62.2917409598372,78.4563884594754,-3.84480417663064,190.72054088614,-23.1205061585838,172.643482482351,-10.5982000902416,59.0293726299049,-2.56430882318974,188.754396611919,-41.7704422311823
855.114510229456,131.848199428306,7.11347879358337,1.08476329280796,0.659520399924863,5.34603726812152,28.541677036808,-6.10151562425048,296.457473907144,-28.3325351857623,15.54557758107,-3.30910452672548,112.61500764978,-8.82305582242978,326.932869729291,-55.2117526764585,118.606925857405,-23.5700649547918,260.099979282656,75.6779320836301,87.1031410628844,-9.00004060510779,195.044969372006,-33.0409349945956,171.472770896637,-9.59951208675274,69.6775400675937,-9.83532196171751,170.531738536708,-28.7311849088699
883.691934509535,129.400523858226,7.80275592577642,-2.64619329888723,4.59940308914062,0.873780735352579,16.5358841283113,-2.07285849881222,303.617390742852,-31.7602414981498,10.8757687806892,3.31107453049226,116.230582295197,-12.9475103535204,333.305729378642,-59.9787845720753,113.453296844775,-17.630159157281,260.299514440535,64.6351644824133,80.8028580922374,-2.42548701190748,198.814413702162,-27.8377702262398,166.870315692582,-3.48754351456265,57.788223457927,1.52174790646483,185.778698259492,-37.4364745036865
865.806968662109,124.636151539854,-2.76599087962882,6.13932864497596,3.88733569475945,1.65145389292516,20.9743878868791,-5.07418305828767,287.319752134498,-20.010960511491,13.3931926230325,2.21972985965144,116.57995644662,-13.9099783187646,334.195987172368,-52.6766116153814,115.801243666235,-20.3077290957418,254.631828461406,74.3455291512729,83.7410220846928,-5.17788995344845,181.385842937706,-25.9990869401813,179.185067579028,-8.9502533531867,56.3972084034964,0.908431692057347,180.675248391738,-39.2905305517346
854.892176956298,134.834863237994,13.0765001851269,-1.54506832998602,-1.16726884989282,2.55992163572887,25.1538574949938,-5.12361088514823,295.799769335747,-25.5688809340303,12.088985106893,-0.805051211553858,114.221914256213,-8.99305981166962,342.251747207784,-63.3497488144946,121.119141132941,-22.799644459552,265.281718859563,67.0497929592856,77.3623425932219,-1.00768379608713,190.160785471055,-26.3335797648074,172.659075822712,-6.59283605019634,64.7013622760614,-5.27874405478589,181.478904798868,-36.2232130016315
886.60915991897,125.303446378029,2.57722797854894,3.07074182857901,-0.694115669807757,4.48119846425655,13.5611074658032,2.23381384056831,305.497901119648,-30.3107348193208,15.7667824152299,-2.70653352650898,115.654063150756,-13.3898971646237,342.069214161154,-54.5076703578241,127.150026925532,-28.1466954334447,275.910352997687,68.2542262363166,79.2171374587812,-4.18105699970102,203.299807338981,-34.1501131158613,171.129157007879,-6.43507531414538,64.593720510222,-3.80711728963696,191.39574394008,-44.6358738082353
863.546509526824,121.933025751744,2.88575680158588,2.21885813949843,1.3415023271425,1.73091242322643,13.6288081710134,1.44126741719299,302.018823333601,-36.1746201051332,6.91407271150135,-0.898165639649621,121.416344758704,-14.836976048606,325.254945073864,-51.8422695415872,114.658963109093,-22.1632329681052,261.927852760441,69.2065647565297,86.8555490784874,-5.50583420850168,192.804890775263,-30.5274812963334,166.358378028696,-4.39286075717216,70.2171584183842,-9.2054564375062,185.081728341431,-44.012757686023
871.562396487711,124.888200973125,8.9379115170429,-0.874479736116572,4.27915823372135,-0.0515860093237983,29.5442443752867,-10.4387512952146,306.555400538877,-37.65132386671,21.6487638973618,-4.69421708290963,114.388329373535,-9.33723899472765,333.311778154248,-52.9467542348121,108.618826534585,-17.4721440732911,261.512698532859,68.9014756880732,86.5384045965399,-4.98280105032419,186.608541707795,-22.9103932465453,172.655512300698,-3.09006286264907,59.444189633723,-1.15600316281351,169.516904148909,-29.8265118196961
873.334942697134,133.391524591379,7.00742580541272,-1.03838642896566,-0.772835885137436,4.93275070798769,22.0831344758175,-1.84670464775948,301.419834795162,-29.9807894833411,19.2840578129907,1.34319876972548,125.82056305516,-15.7638314481564,344.56020074503,-63.1373827499433,123.917092622244,-23.4541511646735,269.21785818959,72.7640574804275,81.9070712703669,-1.11718401469337,193.427288600573,-30.5459868035308,170.106522620482,-7.34568578422623,54.1870974619837,-0.385125406159504,180.804717111633,-37.909552468491
877.472332028841,117.10303439971,2.17586576611175,-0.126499910701495,6.8810788745949,1.04416805126257,16.2730409847834,3.32518324044233,304.191748348249,-34.7210092969203,15.4868987033627,1.46581365144986,118.01312797067,-12.142116679444,327.351731208329,-50.9591673459767,112.238919020257,-19.6873100409948,255.797131084243,65.8586569305797,80.0341296986393,-4.26249082942592,193.815649853218,-33.6082327848618,177.088339258646,-6.80746587606119,58.994666187521,-4.75916366411921,177.247284134027,-38.5514625100946
878.131682174245,117.944200278996,-2.04250674518383,4.86384107002,3.00261173849108,2.34530485581762,14.7427912753893,0.903593686363006,295.827114747381,-25.7048478066583,19.4489379945005,-4.51456830441798,116.225149962442,-13.8611571203483,335.126772703885,-58.9956770786729,120.180096405663,-22.2345958948753,258.320748457844,72.9885240736743,85.6251682801479,-8.84520959192228,191.237091732144,-27.9632292694945,171.891537962366,-2.94396142815434,63.5607498375663,-3.76719628143642,193.775261978611,-42.6711241815264
