237.237267588534,-58.0577222103198,640.968985215044,-158.506746240444,800.811849389588,-13.0168103889097,4301.52899079306,-428.684048709875,216.262541304493,-23.6790902241809,339.772457792227,-53.4550890181022,1177.94756723936,20.8590941723405,550.309840340964,-99.6450710048904,1996.9875601818,-257.826233080023,73.8461501342585,-5.69797751871807,2114.04932049001,-400.398484195565,1845.93242388048,-348.925337981555,1132.34084796839,24.3183260624318,1723.7134196212,37.813065975581,882.227182551127,-118.124314804416
238.652717774198,-58.4211951032106,639.789609686447,-157.180058692392,800.514523811124,-13.5016561953336,4301.07808648386,-428.698554209561,219.885422898021,-24.3802970346781,337.579599061901,-51.3991271067073,1177.21153561498,21.488426094586,551.299683612656,-100.275667812614,2000.34255719276,-261.124299043207,73.8538062769227,-5.67905167998166,2117.76755283966,-400.150123971713,1840.25726406955,-347.179034779419,1136.20939863105,23.1219235469539,1724.71891390679,38.4900730171608,889.859617562394,-119.917313972915
232.808863847786,-49.5935451212929,642.715449825918,-160.80554406295,806.080304371655,-15.3248215052783,4312.01510003498,-435.424700323469,223.428649796877,-25.1736133564474,340.176574718042,-51.970513079855,1183.83134477568,21.5218584437933,553.262589305679,-100.741947298811,2005.45499492326,-259.112672479228,74.867030112778,-6.12947115462777,2135.22709594826,-406.215879316431,1846.73030639604,-347.334389455761,1141.70732425451,23.4845632824874,1728.28034802958,37.751115901952,888.328948735917,-120.415551697923
226.901844678441,-51.1966300063236,636.139303940127,-158.036758534586,794.309321821719,-12.156419096319,4289.41067869122,-422.146613492944,214.59736909412,-23.3724927818372,336.779093893813,-51.2896240603424,1169.98549954257,22.363311033537,546.465994390041,-98.6122654276014,1984.9100407876,-251.820225681192,73.1113585720774,-5.60654993859063,2092.10835844915,-394.825757235859,1831.01582837797,-345.521011674624,1123.31029853714,24.4636683534938,1709.18178362488,41.0926986246976,875.339269059755,-116.074184188773
242.369239947947,-57.1937282205806,640.251580374138,-163.620922095497,792.867113209174,-12.7903036659869,4284.71033074091,-417.788338559083,217.57398927532,-23.768771122616,336.92109342873,-52.6717360703074,1169.05340166579,23.2214470782771,546.907678760259,-99.3091366174946,1981.6201988739,-254.561413228813,73.5108368413512,-5.80180337596562,2088.49490611266,-389.769173380042,1830.19797407004,-345.262074107203,1123.39380963444,26.6767084479153,1713.08361720711,41.1477206357538,885.091581717917,-117.966057205667
221.000457486938,-45.7443179311937,630.465988184686,-153.287131162497,798.292259905382,-13.5764077422108,4292.5968500731,-422.041853467563,221.941952218494,-24.6540033646487,336.697786813929,-51.1240000666442,1173.74225126541,23.3286307852032,549.476617583116,-99.6962995483989,1988.63864270567,-256.667395789357,73.9209325522362,-5.70857976207182,2110.76730971958,-399.718510861185,1833.89349728869,-345.156052795867,1132.1967430834,27.0857949759526,1721.52969643907,38.9786821938444,892.909595718969,-119.453598129985
225.53582446303,-48.929206905945,627.630510647065,-151.158453257116,790.182337182713,-11.3364003105356,4262.2749382298,-405.755186267017,213.125313163638,-23.0168311979944,337.234504937025,-51.976099175841,1161.34767634158,25.7643282350769,544.141645460442,-98.373250879048,1971.42172473887,-250.306931175986,72.589804648435,-5.55108502395284,2076.81396720603,-389.822725526761,1818.02763700206,-342.248099836011,1113.3078562765,28.2197589144298,1701.68491964408,42.4990308849391,876.313672253179,-117.292993014177
233.137058381467,-54.1789138354803,623.809802547639,-148.712225611533,786.853412104021,-11.2859901972683,4267.75363236148,-408.767790346678,215.740537175417,-23.1808038729923,335.273222988823,-51.1372701180648,1159.7789624709,25.725099607472,543.09946116224,-97.345665169745,1973.3786953721,-253.228851923534,72.3055798482114,-5.27491354425073,2073.6060088934,-387.632254252886,1811.01772069169,-337.035525987562,1109.98760903357,30.8826509684365,1703.33290287977,42.2943297367399,880.369976839657,-116.6989638455
226.911071798147,-49.0704649038976,631.967849892172,-147.652142981806,791.740035439536,-12.6159073354047,4281.71820458034,-415.185894650825,220.665626788165,-24.1501628601549,336.177142356513,-51.3491637574295,1166.01277346963,25.0797765225835,545.876280267861,-98.2965983828331,1979.05889114726,-251.841838850367,72.9817630194886,-5.42548317752714,2096.65032303597,-394.378550976754,1827.61060702608,-342.490635272634,1121.26926316622,28.4415516295915,1714.4971711343,41.1985260638744,888.852031264381,-119.605787551404
236.842642705034,-55.3797962667387,643.389805230829,-163.831180053593,795.801007250003,-13.712062274797,4284.18852452755,-417.732802684783,215.939785774977,-23.4390411907164,337.198926386774,-52.0086087279082,1165.85783344026,25.2551255323064,545.652105473523,-98.2186049280538,1977.92709779634,-251.93320862568,72.8181963948148,-5.55673624542568,2085.60688580652,-391.309477003056,1822.77690633226,-339.981655379243,1111.34976059277,32.7300983164499,1709.60073629868,41.8692377214633,879.325387516798,-117.995707275459
231.619124106942,-53.566228253746,629.782924811001,-154.258694406099,781.694373350346,-8.24254436347942,4254.144853522,-401.716846751145,214.20141028757,-22.9187566296847,336.533548660367,-52.028481306605,1157.92553982247,25.3008004678366,542.200218466247,-97.4534481908078,1967.25815561889,-250.919747735189,72.3259980827603,-5.49707149655329,2074.68256050131,-386.641043070188,1815.72515918178,-338.95818322455,1110.39825165724,31.0726318065929,1705.24952951298,42.8236689965648,877.156913983249,-116.993170501455
228.870431854895,-57.7299549513541,631.157076311765,-157.158597052673,784.254171495461,-10.4650656384001,4264.89986506713,-407.520438966926,219.755164664323,-24.4212278998424,335.781182541953,-51.3215775043353,1161.64332651231,25.7192188034228,544.228477348168,-98.2534570355459,1967.5373156847,-248.242381125748,72.78829562004,-5.63184492151233,2091.34339734308,-390.915482703087,1825.35519016519,-343.860011949535,1120.57729115093,27.7207327255149,1710.82879456166,41.902167863434,886.250962465551,-117.437109427325
234.481857740767,-56.7473642867764,635.978792873123,-154.763611117025,793.614211940746,-12.9424538288943,4286.22172550442,-418.688022616502,221.759671167372,-24.5554917169209,335.543048148811,-51.1997055966819,1168.58077216001,24.3971086414688,546.477742037774,-98.4704635583741,1976.27059557134,-251.541746171076,73.3055038836122,-5.55103512655202,2089.11053694287,-388.256250062896,1827.74497525417,-344.013149929837,1118.91292986983,29.4272531433215,1711.46885105511,41.4426018284561,881.245845690105,-118.702627889532
227.21809150993,-50.8725259502393,635.384603225771,-165.247032517564,782.608807076235,-9.60581874262669,4255.88254040236,-402.952674311074,214.758273008074,-23.1826885223612,332.809482548757,-49.6755519107383,1155.58640948317,27.1792112983369,542.142709961295,-97.6514367146729,1967.59832640203,-251.703512899965,71.9707484442242,-5.16449059622179,2071.63844498556,-385.655169179529,1813.68483269582,-337.933598899005,1111.22454657087,30.0730015519922,1707.19028802552,41.7008507401229,879.759342859754,-115.581064767913
226.464554379202,-52.2496933067482,621.043521580277,-150.329693725223,780.331356340378,-9.09282440030972,4258.10043594564,-402.575669885522,218.805281990566,-23.9906525942386,333.782121638663,-50.0324708816672,1159.82683871615,25.5737632447359,543.868907145501,-98.0874202986668,1968.59668210156,-250.140728410832,72.647624785831,-5.65732667885789,2086.74179150295,-389.864055121744,1825.62522949688,-344.727990167602,1120.76508698479,29.1023653253005,1713.99701531409,40.9722302877191,893.19346887408,-120.500329364328
231.006323926897,-54.7504906440193,627.970206577946,-151.010235720742,789.014031405061,-11.8210958723874,4273.60730556897,-411.738043219857,222.885944604968,-24.9970114584359,336.792856339273,-50.9544587287941,1168.49221651068,24.3232419471349,547.332887641304,-99.211317807447,1984.95975961182,-256.154835616772,73.3889713504723,-5.53018073964048,2114.48669199914,-397.371767457328,1841.20533714062,-345.829872688371,1133.3699896648,26.5365308436471,1727.18407590151,38.5642531473313,896.34729901865,-121.030138379297
229.899102620427,-53.5960670977301,631.818850836248,-156.398906704636,779.406513937928,-9.68634643415254,4235.45133243738,-388.968119951129,212.848150699742,-22.8103216704505,333.39106128804,-50.6392134407608,1154.89338010412,26.1760562290013,541.291218701617,-96.977217581438,1967.72576452176,-250.084607249693,72.4372478443541,-5.59193763472348,2085.93982840805,-388.725717147212,1829.9565792516,-344.637401353208,1117.36717161517,28.1752192272171,1713.05461548305,41.1380368579249,881.608731041832,-116.072246977473
225.935160567622,-52.9241035737675,621.027193749978,-149.903156574219,777.242400446687,-8.81198511570175,4240.14615799715,-394.165464807639,216.551749977083,-23.5971205191489,330.644417223387,-48.6451832822532,1154.51731932308,26.7717671189719,541.167259423094,-97.3624276971254,1969.59263571354,-248.635863828408,72.1317853579283,-5.2086023525229,2089.18930229553,-389.041271496503,1837.70713774846,-347.021868081035,1119.88728164813,29.1872661002961,1715.15705532123,41.482131542566,885.936126857664,-117.156595291524
233.898041388453,-54.8499407669586,632.745774776315,-159.824476506098,780.186405498534,-8.38367092575803,4248.79641346858,-396.744700250293,221.166328146288,-24.6756738330939,334.644903320988,-50.1930398722117,1161.10027316743,26.1429554384793,543.352047171239,-97.5082396268661,1979.48946176429,-254.218992835639,73.2368620197381,-5.6986670844377,2113.19162123955,-397.164509656214,1845.07839717813,-346.231067912064,1134.19162438296,25.1247370757335,1729.62265963969,39.0083888698418,903.77620052719,-123.807951579743
233.589800684581,-55.3714426231991,622.922465321578,-153.724424175465,779.757629538809,-8.90585012894638,4257.16829209583,-403.276477342921,213.986286390949,-23.0005330163714,333.614265857758,-50.2494727617521,1158.65235698927,25.9983486809333,541.191251642139,-96.8624093880676,1979.79913615363,-251.628944601318,72.8660773353352,-5.57018700324082,2102.41200592856,-394.60447229062,1847.13698412233,-349.051286620277,1121.88093777466,28.4692712097889,1724.88563054022,38.9051795239942,883.688157619662,-116.909368522486
217.736243003852,-46.8407497919544,627.291648651641,-154.434966055225,769.454304294468,-6.53251366966302,4225.97623020718,-384.294151731717,212.891386192246,-22.5919488313625,331.548583544968,-49.6511479385281,1152.13739914557,26.6512638053225,539.13068305345,-96.3198684049601,1976.46708361875,-252.604870869356,72.369386054086,-5.36040306101642,2095.18390320622,-392.826303801484,1846.0737245947,-348.301093111608,1122.73411051655,28.1359535891155,1724.40172302554,39.8072281799998,887.675976491336,-118.580835095279
227.087019300829,-53.2944854508493,628.617254848247,-145.966824399993,774.343665920025,-8.16232826514649,4243.47762156358,-395.650759304571,218.210314680933,-23.7700616384527,331.149674561648,-49.2414624145677,1158.55004364495,25.8178583302816,542.322791393204,-97.2969105011965,1983.93185377455,-251.922984447242,73.0992260981388,-5.7336574322697,2121.08031835304,-401.261026616746,1853.13872983206,-347.272729098134,1135.69049822232,26.4603343045089,1736.86305799956,37.6664907044031,899.58288687712,-122.974648716816
246.474696166832,-63.3019045358931,632.174282451833,-151.469833457602,777.571840822864,-7.11443061332572,4258.1612963222,-402.046385259572,223.006332211181,-25.0805697003926,333.740150894422,-50.0079042034805,1168.57934698663,24.7711381947469,545.559533699642,-97.8663238249513,1998.35399983043,-254.850543031704,73.6948602824439,-5.57004467294994,2147.63332953165,-408.090141893623,1874.24758868555,-352.763437953669,1151.97979496657,20.4173212988356,1747.12419746256,36.7231546510624,897.959665793317,-120.274275766532
237.351856205009,-56.5417193512993,624.049372828401,-154.186329681341,772.44861512685,-5.64778366282133,4235.94695124878,-390.291218409169,214.917907657577,-23.4150776231403,331.193730362665,-49.315941556326,1158.07420658701,26.6000717987086,541.224229548724,-96.6504692237354,2001.01929599118,-258.712319992432,72.9221843559025,-5.41553150902788,2119.9884296368,-399.856966522665,1865.60930842312,-353.520233218952,1143.13050097293,20.0983274019315,1741.26322460504,37.1829273919904,888.205875312497,-118.705133699762
222.800366156278,-46.995108980639,628.338770551176,-154.59434318793,771.616241573528,-7.77484547380311,4242.97060941286,-394.774065568205,218.035300752707,-23.800135865318,332.252986661146,-49.6019431711218,1160.30381649411,26.5109103240361,542.980382798387,-97.3159115950292,1998.97623416647,-253.417348614537,73.3716280337061,-5.61210436455914,2133.00008768774,-404.459991287494,1872.94284296288,-354.096468242704,1152.88752285603,18.1616397182539,1745.63438104346,36.9159515025599,898.09692283823,-121.16773612211
227.984727728418,-49.9220781063667,639.352272120793,-158.60536121172,775.16763388099,-8.19260311298725,4267.41509668693,-409.400734258411,222.731474941764,-24.7798227964616,333.931693915952,-50.3775133853465,1170.65849294479,24.9776676267185,547.710151053309,-98.8959070662677,2015.29732305835,-259.686809273785,73.8047539144823,-5.71390678677099,2161.01505723869,-411.410876139046,1884.23578474298,-357.921387638578,1167.50204855172,14.7000333379402,1755.31133458885,35.8939167324396,910.700076875162,-124.812220193236
235.720123278669,-55.7942897689416,630.851064053244,-156.709631914976,774.453250599097,-7.23917643819129,4253.93151722708,-399.844218517204,215.916080899521,-23.6141014499067,334.509546115377,-50.2461938407876,1168.4306091442,23.8107492878706,545.775314747759,-98.208229813306,2019.42567691353,-260.381124422724,73.3147534220628,-5.47180296198068,2140.01849063747,-404.870929897193,1878.58389789763,-354.989052933682,1158.8727538043,15.9553125066013,1750.65389903813,36.2193207756241,896.947669246454,-120.678522649223
217.673125934359,-46.2410695435554,626.269990537433,-151.870768674339,773.509020242737,-6.76734593608465,4248.68834259323,-397.649443369235,218.531267054715,-24.3186434790209,334.959626782519,-50.7608907854201,1168.99533401547,24.9095786696715,546.777507582529,-98.4532895819344,2017.6648583495,-261.437425305048,74.0345544471719,-5.84744695520577,2148.22494825555,-406.606042510595,1881.5651525174,-356.944131603016,1160.91435191398,17.9039279888809,1754.11951340807,34.4991250538064,899.228102426764,-120.830968614072
233.903889188205,-53.0927346371361,635.902086064542,-153.213249720966,781.804865987055,-8.65459542827708,4278.65704643735,-413.459092154069,222.991677257306,-25.1853337923737,337.572193147676,-51.7821604937508,1178.7854268945,23.4687132390774,550.278322759524,-99.1938586250989,2026.42463402993,-263.331262149556,74.5935518384689,-5.79167992952909,2166.17310739748,-413.285175931389,1890.00403307402,-356.957692277913,1177.3530259028,11.3529126366823,1762.94869576842,33.6174163179085,913.098478013338,-125.23017170365
235.740941307099,-52.976611898942,646.195652739391,-159.043756355515,783.343473361785,-10.8152501580299,4269.1979579872,-407.414881767898,216.294452530073,-23.4759750832101,337.698006773307,-52.0912240237084,1179.22986637016,22.9857734742718,550.149750763498,-99.2891711132425,2026.19840904291,-260.171650206262,74.2197017685955,-5.82120746629247,2166.05127113691,-415.183790688332,1888.1400260809,-357.640138935389,1167.54726889721,12.498916932472,1754.95849963391,34.3498369376946,894.442640329505,-120.516312042887
236.953538618116,-53.9256513415831,636.277142047447,-156.153100366763,783.630889510765,-11.1243395012585,4273.51441769352,-412.026969000317,217.078293891658,-23.7737952182861,336.268329712984,-50.7083733157822,1177.58391456769,23.022677101129,549.562011602255,-98.7698089724676,2028.2056699169,-262.169551526936,74.235515018375,-5.58008004911069,2155.09074701435,-407.539347830448,1885.44915795992,-356.834304116992,1168.07200855046,16.0743238220847,1753.28190405684,36.715509807619,899.034431339867,-122.968859698944
233.530390844388,-59.3630130620149,639.249418428371,-156.370471117166,785.676871591325,-9.60425465810539,4289.09159878385,-420.983500968985,223.200792819756,-25.3241835350506,337.922929719112,-51.3152760151864,1187.58161901426,21.0692808383956,553.836467323435,-100.373584781482,2038.10483699236,-265.307866946983,74.7982224477481,-5.73233092486521,2180.84632849259,-416.770630602865,1896.46902557724,-358.535239049368,1182.56831318871,8.99065987541837,1764.24445933933,32.7878269718644,907.012848067654,-123.533130971916
238.938828431546,-62.2735336929734,644.68694764812,-159.665537331969,791.905806122717,-8.92455614472413,4307.10319667847,-432.350592836096,222.961551088064,-25.2990090693483,339.139121670368,-50.5042649756534,1193.74080933894,20.6347069241409,554.502610652325,-100.121133108284,2049.98086415755,-268.982374032598,74.9971837855182,-5.77125117017324,2187.21520332128,-421.548971152928,1899.60459480111,-362.081595827168,1182.58033442702,10.7938255308293,1763.55763793747,33.6209647245432,899.163681205144,-122.002599947869
244.059808422165,-57.701738658105,645.342086348907,-163.394876203738,789.333820006466,-10.3456590478734,4291.45706450285,-421.291216396656,218.477986468327,-24.6104102141201,340.919830058649,-52.5254069528773,1189.2990989753,20.8822961910613,553.337551719669,-100.157964752005,2043.73279910329,-264.352563073488,75.2012376683765,-6.15138838344325,2170.80548019079,-416.583616246098,1893.5519631162,-356.608257917109,1174.37964018935,13.0208694813662,1761.05501451145,34.9643445101741,897.944295789814,-123.293051096218
235.399137107919,-54.6534256253377,654.393169728876,-161.305856922157,794.510907153386,-11.3340451192244,4297.52283143275,-425.202279974844,224.313674340297,-25.6946232021031,343.506074184481,-53.0479503451154,1195.13690846294,19.836909379516,556.750634434472,-101.221235010137,2052.67234902754,-269.305936995532,75.2661580968447,-5.97422779814062,2192.02347402242,-421.30018261236,1899.89230226517,-360.189179643383,1186.36117946122,9.64734109108821,1767.89670172888,33.4761687082809,907.823720184814,-123.919944323576
249.843507580837,-61.7486673100902,649.555209845973,-160.284409250661,799.233314458598,-10.7653381406445,4316.32489016641,-437.481534379857,227.07192053177,-26.3313756585754,342.29266318838,-52.2485611304957,1204.2084334098,18.9371204569482,560.125898998492,-102.141752349129,2059.75731176191,-267.901482525873,75.8788391419159,-6.1601558748289,2205.43027291051,-425.893550159471,1903.82220894566,-362.325478538768,1190.8986516678,9.19848115502628,1768.30219189809,33.3256564669713,899.116315959383,-123.033049241058
227.669920883513,-49.5775378424848,650.646569941314,-159.578594763667,796.349420021168,-10.036926620484,4303.37363108106,-429.48570211178,220.425349715399,-24.9220633810875,341.499864673317,-51.2883166397831,1197.69987123498,19.674364915368,557.70934375121,-100.991662522203,2053.24119244293,-268.664819859099,75.4670795844771,-6.00520399550833,2184.06663911226,-418.210652634154,1896.84503569336,-360.031550928529,1181.7830594321,10.0734906520391,1761.25661535984,34.2639409217942,892.011006463976,-118.753235707186
236.298919789864,-57.2098490326175,649.959308776411,-156.972975794853,798.421260080936,-11.4085804770791,4319.67895678053,-440.921062928399,224.171492012932,-25.5475537487961,346.036649471788,-52.8449274954494,1203.80342217316,19.4421628616761,560.045100093708,-101.956568370839,2054.24896877573,-268.08806886484,75.6874100049383,-6.12473744547068,2194.02060135456,-421.045812483974,1895.07002179385,-361.51922593952,1193.29051637918,8.2095158953204,1763.16856675228,33.2144352858743,907.390667262501,-124.606681160528
246.598030608236,-58.0476710070658,652.398662408934,-157.572456499345,809.485218808547,-14.9759089657147,4333.94897292458,-449.702685816651,227.462238216298,-26.5320654586699,348.286437535169,-54.5387253596828,1212.36522445361,16.8795408752596,561.983561606299,-102.394923035694,2059.72845214747,-267.207600974463,76.0912483690822,-6.2422741814098,2202.47822584908,-424.514226040662,1899.00859722492,-359.843346116614,1191.63446450171,10.3228186981501,1762.906314173,33.6162752027621,895.270445505554,-120.927817299946
231.856689777625,-50.734833031639,655.857441279233,-165.133872535725,801.335481586959,-11.4428240024369,4308.64910381878,-431.984535148991,220.058704246706,-24.973317554955,346.436437567686,-53.3108799958914,1203.49122517906,18.0748140256199,559.237845464711,-101.71557455872,2053.06196727725,-268.578181385431,75.3681943660885,-5.88548513443908,2183.39841660588,-419.791950459158,1888.26669632818,-357.326436851906,1186.32383939899,9.18581453292113,1757.04878932364,34.2032624856948,897.638841100233,-121.953704780346
242.529817122693,-58.5750065677155,642.225815810293,-158.120928107225,804.191738107025,-12.4539529776652,4314.39185876351,-435.457595353191,224.669047697121,-25.8111911650087,346.246569789125,-53.4734082999283,1209.65646476468,16.9733771637963,561.082689522951,-102.463003267513,2056.07613931587,-267.466466182911,75.7580296872626,-6.09467821509193,2196.3399404111,-421.812596438406,1890.97343769672,-357.306816989381,1195.70740534855,8.37558588433012,1760.55902914899,34.0670173238965,905.071298410371,-123.475906938027
237.384849337476,-53.253737445918,656.694105006267,-166.058422846042,813.771180986695,-14.6631706962384,4333.82303794706,-448.438826125374,227.884424432773,-26.4702346718075,348.175129282031,-53.080963409107,1216.18425329692,16.0435232849187,563.872153938725,-103.110809497917,2058.59672821065,-267.51132599519,76.1217332106568,-6.15468352054155,2206.34473422641,-427.244376832917,1893.72223155858,-359.084658822891,1197.35073581316,6.87821461927535,1760.37433046319,33.2982743454701,900.484938869898,-123.266887321432
237.894867599955,-52.1153112074548,652.118874063767,-163.406991017219,807.22464985649,-14.7856701041436,4316.21280721208,-437.844076990281,219.469515906798,-24.9264584423111,347.715073216241,-53.4903878765665,1205.66270805521,17.9836547462707,560.176036168599,-101.69755423511,2052.51888111163,-269.126371814986,75.1614738025321,-5.80258810120922,2178.42401395136,-420.797360477969,1878.84020587592,-354.183040353628,1183.85492604022,12.0560173568468,1749.92066708793,34.7060046697341,892.94862351798,-118.77348436261
245.067313915279,-56.4114754362198,659.017521788109,-164.821912193161,805.476636079373,-12.9559828654067,4323.34021521975,-441.195187712344,223.50269342794,-25.7373312872597,348.799675039264,-54.3596267027119,1208.37139110936,17.4015958396988,562.318403322416,-102.822490864079,2047.3105604884,-265.5538317737,75.9629902467934,-6.01947874209558,2184.2200799135,-418.917110370996,1880.58133490865,-354.454304640611,1193.19980703133,9.41480255794145,1754.94392210773,34.401128957629,907.9909490228,-124.100482136722
233.694163850356,-55.1257007426038,661.005004719938,-165.211060926228,811.13598914079,-12.2498743928418,4335.52300510244,-449.686416518097,227.683852101521,-26.7350341793989,350.35326569571,-54.2236348668228,1217.92136158121,15.3666135093267,565.055549020999,-103.423789444952,2060.37667098713,-269.676228216905,76.4397171907898,-6.26339959573347,2205.60776759036,-423.852445435949,1897.85489893994,-361.778710990997,1208.2585406367,3.82182941412255,1763.38268010984,33.0080430809388,905.199760561672,-123.061234751694
235.008247653468,-53.3772838069511,651.614571774778,-163.538565014705,808.413519012752,-13.7196062292617,4311.50019742888,-433.417897608651,218.254336507394,-24.3897336420289,347.661638687827,-53.7448153383051,1207.39360499107,16.3281407858666,560.874601307085,-102.601511362959,2049.82477620932,-268.183219790209,75.5803716221471,-6.05285383199045,2178.13224993349,-418.330119892325,1876.88179060119,-350.88143270484,1193.16629718906,8.28334299369344,1752.05387126484,35.264834069469,897.843751836834,-122.966188266286
244.586254090785,-59.9202577167504,646.905340867043,-160.848833235355,808.626960096027,-14.1087138374724,4318.5310355148,-438.341325808926,221.720468366444,-25.0893829992282,347.691746319109,-53.3192913175963,1206.34198523616,16.7862501861713,560.684681334718,-102.260271763935,2049.15358973845,-267.196460639509,75.6186395584614,-6.06983258144107,2178.68972270085,-417.286573018911,1886.43432236307,-358.727058348288,1196.07262376076,7.18333205917228,1753.39868672569,34.6521923117282,907.355158252475,-125.911601769553
243.263492609874,-57.0154459263108,644.720465196727,-158.661339774772,811.206434972824,-11.6506568886607,4336.04356321733,-450.407139682655,226.108390700757,-26.0662036927899,346.661990534123,-52.8398718508792,1216.72509419651,13.9533808775815,563.463666936403,-102.972296221866,2052.77824377704,-266.705519836457,76.4335865998066,-6.22264487112075,2197.83875949625,-424.402694285736,1890.88516024259,-361.36200053337,1204.58187034203,6.40868292215054,1758.4188369129,33.6893677374247,910.159587557407,-124.527453787253
247.556058487932,-65.4647639857717,650.966818769583,-158.476159257984,806.663296957681,-12.5260583618424,4320.44921515249,-440.813573870161,217.15215327316,-23.8121685008288,347.633834579769,-54.0632587288285,1205.48231346394,16.1799095138443,559.764682088892,-102.010161451287,2047.50894635885,-268.624498495915,75.5215015943583,-6.03839312896952,2173.79662080107,-414.515675060213,1872.63755410101,-353.254184912233,1196.76427597689,2.28966472196111,1748.06275722131,34.9385005321569,900.542154963048,-123.594273289793
238.845976415703,-57.3538379466186,645.509011199618,-159.807331846883,805.170910419785,-11.7644962719379,4329.93469956638,-448.427441984842,220.947886786889,-25.1225192359912,348.235748654072,-54.7670334877807,1205.67943595979,16.283155416056,561.190082537204,-102.547832666205,2050.04344530612,-270.330856363543,75.3732267016464,-5.86643496119568,2178.71870336327,-420.470041346139,1874.11993789842,-353.859628005556,1198.45528604184,4.70151158165938,1750.27780575359,34.0607997618288,904.723088983097,-122.513077741444
241.298218165342,-57.2132563891609,642.274555964279,-158.047855525657,814.731540571507,-14.8211285030336,4337.49041370486,-451.724251130091,225.42752681518,-25.8017071142276,349.635688809,-54.4849509275806,1212.18483732786,15.9931239107866,563.662792750185,-103.126257242418,2056.68640181457,-272.493026364927,76.1128186010111,-6.20548779981143,2195.73912244874,-423.261031377125,1888.25969133932,-360.350840899151,1208.31871166026,3.57395846677458,1757.89981286979,33.0596461155063,913.758151414472,-126.398466373739
242.503856120579,-55.0937179108399,656.128866669042,-163.237502995853,806.506334273035,-11.696045252726,4312.15422240713,-435.002034960007,215.13180920421,-23.4712689130557,346.598171947804,-53.4102253573251,1199.67407574452,17.1676364704423,559.201557424542,-102.282380675115,2041.70177540415,-265.698832517633,74.8975066490257,-5.82201754923157,2161.81645859028,-412.556092752176,1870.20958968578,-352.570129388895,1188.89301455468,8.45740099812481,1746.60717097442,33.6940840190246,896.093786076615,-121.716775842792
226.080073207008,-47.2248712292403,643.429010548024,-160.493897303179,806.459260767661,-13.4645408004976,4324.0478507296,-443.828016875001,219.122122682188,-24.4149912700659,346.652331302478,-53.4709899460531,1199.52896332726,17.9079704777624,559.15668624616,-102.338469716259,2039.74519061286,-265.574879427359,75.2901232022424,-5.98731400499999,2163.19364955029,-413.209354055221,1872.04730881555,-353.882071302063,1197.95079802027,6.24802716693389,1749.71465723166,33.1834523303377,904.033208934002,-123.993446415059
239.790635265957,-57.9413325217394,648.170157444944,-162.494149560051,812.075839403311,-15.9134047303616,4331.85395819043,-449.123159495456,224.337883512151,-25.8433005514356,348.436835123022,-54.3381035456474,1205.17926262524,17.1621965630987,561.615109344542,-102.578386507978,2053.67329034953,-270.563747412278,76.3135989526183,-6.33912040113628,2180.96662085862,-420.51985850717,1884.66522728228,-358.708664795436,1207.07640250623,2.65111083287348,1759.27273484591,31.197928632444,915.575554620599,-126.317654050935
239.472336206918,-55.9863845928758,651.222363920533,-160.693823167362,807.009846542164,-12.6073012447257,4321.6965062086,-442.716727037793,215.476518761192,-23.8220100133175,346.861801037577,-53.6084916762987,1196.53057818884,18.0214017210008,558.130059723046,-102.02586004611,2045.91382273345,-268.749370522177,75.2820831113487,-6.03410631511272,2148.38030713027,-409.397862005669,1872.75744051568,-355.155907505785,1189.32195779543,6.43390611910208,1747.94285307962,34.2223274915604,894.519601690982,-121.690778604213
232.516735630182,-54.3054721129684,636.430353118505,-152.418991252406,804.47857263955,-11.4517851960492,4309.27478845303,-433.225007184497,217.426037232424,-24.0793238201313,346.58079757078,-54.05051314227,1192.54081424757,19.5550089692741,557.583113361132,-101.661342355279,2049.03611490743,-270.026874776231,75.3209180457345,-6.12491195004187,2154.48071917865,-410.731918801139,1872.13155262015,-353.95766096475,1194.66638740223,5.43593479267635,1755.12519196505,33.0148277873372,901.641737684949,-122.973199006567
236.618194826767,-55.7475727715021,645.527979152175,-162.896620136016,808.862068522396,-13.3621007425866,4324.41327659329,-443.546942350672,223.438198594308,-25.3470346359853,346.484937508196,-53.4421238533075,1201.56337385523,16.7775268662552,560.188698858318,-102.602414151451,2053.36305086373,-269.977586410879,75.6650724327836,-5.87872717225611,2173.29436389405,-415.692394641757,1882.93779446567,-355.662890301986,1205.81090221213,3.37129205646664,1766.18046648761,31.2141620125457,908.415932299549,-122.353676319938
244.396152008428,-58.1736305723973,652.760362486112,-157.946324818725,809.599154235044,-13.9949381325132,4332.59830984345,-449.343571470281,217.629940599637,-23.924683322405,345.315801579192,-53.172177961636,1199.0238833168,17.6106370468422,559.334069548375,-102.218633882594,2056.17374096954,-270.103707488802,75.369465860927,-5.75415899275134,2165.41041526497,-411.485033379194,1885.27054792486,-354.996147289416,1197.48532011711,6.56390937486253,1764.23557209756,32.4297702150386,898.607080612723,-122.640036127904
243.493246165592,-54.8861975242619,658.382199399587,-169.128317138519,807.445575902273,-14.2574749995082,4317.57600186851,-439.784886526365,217.705646152249,-24.0950196883203,344.304047660405,-53.3810838831109,1194.58818538274,18.4285636937546,556.883935678882,-101.947870681282,2049.69420331201,-267.157468932655,75.1657542796916,-5.88574607330569,2159.92400280396,-412.65297383795,1886.53630226998,-355.859938414961,1193.88002241945,7.1348491640725,1767.97571584017,31.6136164826957,897.981987465863,-122.455425830578
238.867587567782,-59.1138554401867,663.864384283713,-174.07905904,802.790002590369,-10.0071607459603,4324.63248798287,-443.961841044665,223.364821979702,-25.1369733950908,344.099236964971,-51.8240862533167,1199.94728535268,18.8889203857402,558.933509841554,-101.865106435124,2060.02043974721,-274.187458376238,76.0378302676394,-6.08124054511964,2176.82505952776,-415.155601694932,1897.44515235936,-362.097825657498,1205.24788203096,4.98559606803889,1772.94435010421,30.3735615470298,913.337458379987,-128.655118105978
246.314983240562,-58.5549746379223,663.777454553664,-167.611822405822,812.720423126913,-16.1400968229074,4329.50195662582,-446.558537511783,219.669180138074,-24.4997590468316,346.565982659253,-54.2372288335578,1202.24824761591,18.2172991893088,559.314103787819,-101.635534219853,2058.29291997682,-272.74468055568,75.9850848813185,-6.1846189617401,2177.24286923256,-416.719954525265,1896.2922843715,-359.444754787162,1206.83351609238,2.98067200635982,1773.4053143725,29.1391078784123,902.093051798115,-124.224836024829
242.308405730289,-54.4089477933458,634.717723862798,-155.943558891091,807.018775697197,-15.1741912373121,4319.83874783696,-441.36687888238,218.923103687017,-24.68776154661,344.692458524867,-53.0197220341406,1197.82287054204,18.8983185475525,557.889192295862,-101.774456218329,2059.35157920637,-272.316932102674,75.9297054739206,-6.15823332524843,2171.4695839114,-416.258177963471,1896.99936869072,-362.148438851815,1201.61841127487,5.21985037950042,1770.95029963022,30.9327732298955,901.574111543696,-122.658611197245
241.134166144099,-56.7341948854618,650.335888827337,-160.503832618864,812.234344689544,-15.8851365426826,4331.0524627875,-447.960079526232,224.42728790264,-25.7950524914704,344.425548410283,-52.9749060519873,1204.55165655865,17.542906369493,560.529765065237,-102.871215539654,2061.92481632995,-270.818364519484,76.1105725690351,-6.06099610621711,2194.0902873061,-421.942584853768,1903.04255640947,-360.574320067808,1214.45033027549,1.78852777183282,1780.76439635871,29.6643212110156,910.268806433966,-124.327636381222
239.249221544145,-52.7879121944367,667.575099637591,-174.712041906117,815.258800611031,-13.6862492148642,4344.43044293864,-456.269959535374,225.984315463946,-26.3126139632012,348.807427716058,-54.4502505106774,1211.30192154131,15.8970768674635,562.473152056602,-103.958419099726,2073.27247262908,-275.184295462423,76.5871068490784,-6.28540953010239,2196.50680363536,-424.217388857869,1906.58134820277,-360.493905992007,1208.42827982506,6.14869947032496,1781.89107939931,27.8974178631828,908.464718064891,-126.184397214858
229.672814497691,-51.7847629509166,653.068678595952,-164.711175174019,807.76320303042,-12.1937846721622,4323.97491510052,-443.263722552757,217.884860410958,-24.466082663888,345.358212459135,-53.3246150742485,1200.90638733197,17.444695469487,558.53511975552,-102.337878582024,2059.84349992701,-271.679567893973,75.8264082564584,-5.9758269689376,2179.81376363694,-416.322424329253,1903.28708734765,-361.142661217963,1204.88160157594,5.32785126128809,1776.82508362909,29.3234950471448,900.614270829072,-122.605573869901
240.87928104508,-58.5317005526312,648.230693904671,-160.622232800112,809.97841841714,-14.7524263963617,4330.61646827441,-448.288017287714,222.654193329304,-25.3274244121337,345.142192617589,-53.7863752766811,1205.61549974801,17.1884183288915,560.045807993314,-102.647358894416,2063.57050551344,-273.658075132632,76.284053114688,-6.07648502289114,2194.15546427899,-421.55359519261,1906.73653286142,-362.352229073925,1216.93662489097,2.71018497750603,1783.87916618545,27.8242046362748,909.923110172842,-125.001766724261
234.093393215584,-55.3132347486481,658.17912934898,-166.999647580507,815.247170054056,-15.4934233355401,4352.12189077956,-462.527513901606,228.019850134006,-26.7475317059939,346.620074609609,-53.8964669295546,1216.65767406641,14.8873225260395,563.854639334816,-103.843996179729,2074.42451777693,-275.6555905344,77.2121329855482,-6.41727145535638,2214.48005845186,-426.164449751387,1923.98688416949,-367.377553545228,1228.93668445433,1.01135736535951,1793.30887977055,26.1924634967418,926.895069296949,-131.499623003652
248.762695553711,-61.8087964116148,651.792130332069,-162.962035676882,809.857801988428,-13.400166553314,4335.73149323487,-451.887159199478,218.531195965915,-24.8929663798208,345.853836337865,-53.7951637512669,1208.24104964244,14.999347916826,560.406802949459,-102.618829578333,2066.20176624795,-271.249993114487,76.4383661055071,-6.37417537019231,2195.7667609136,-421.823882218562,1911.28260477597,-365.992650712017,1216.34990889573,1.35787243775616,1781.81034375786,28.4783637073473,906.945259363922,-126.258249283665
246.165918815636,-59.5280659024639,656.045245407185,-160.315313711352,811.535393968111,-13.8046385385961,4333.78875855086,-449.622778131887,222.531712088139,-25.7253540024176,347.023533476342,-54.7601162388262,1210.83790230921,14.6983599784561,561.527787333461,-103.06149641474,2068.90777410801,-275.147949598484,77.0833372255821,-6.63019211724803,2209.1255188993,-428.420248456955,1912.80328634187,-362.804956063688,1218.81718731298,1.53805701508128,1784.67810161251,28.5194684279574,915.215989955156,-128.543768890946
239.611004210526,-57.8679413340887,673.333335449708,-174.665335599483,818.474339999731,-16.4579468070386,4351.1521379354,-460.775368517237,228.218238496923,-26.9711345016133,348.535260115971,-55.0444332801817,1221.29807687808,12.6502968944924,563.947342837835,-103.637611804682,2075.76706405079,-274.567686849084,77.0669656429739,-6.30381567241272,2231.59647005313,-432.709836254807,1926.50668253896,-367.674378647651,1230.30335916133,0.121065226557074,1795.56126049513,26.8679842761199,924.765827403642,-129.286904619426
248.139430261345,-60.391478402652,660.735406257358,-165.036466819833,819.132075947364,-14.9788340893024,4358.51599657311,-466.443724188681,223.553717882899,-26.0907185857457,350.357222906034,-55.03673307553,1222.22234676337,12.4284279653859,564.291631855161,-103.704384615534,2087.38166374546,-279.015480492505,77.315997326507,-6.67958481813497,2221.05413275956,-428.843894100304,1926.59231227828,-366.854119194481,1226.64760214264,-0.372583258775264,1793.84588964517,27.9076846227867,913.503118104234,-129.479368389638
237.344528312663,-54.7451473306422,664.785590248849,-169.794973287305,816.880996791475,-14.3085221225683,4353.81672936768,-463.191486928058,223.400216332883,-26.0206866293638,351.397618836587,-55.8638727458586,1221.59179816799,12.1779236541362,563.368092467818,-103.441317338475,2076.08838294553,-279.456212497578,77.1077412481492,-6.53888887162757,2222.63324631087,-430.598339870876,1918.8266510146,-366.408580765938,1234.05342149783,-4.28909418338525,1791.40633517543,27.1206543116071,922.029399273105,-130.945666695518
247.891855773147,-62.9959327108854,654.2842496869,-162.633185269828,825.711526379446,-17.2541775487227,4368.13708553897,-473.368461979114,228.95587155521,-27.0160825165392,350.39613414933,-54.4894759069295,1231.80176741738,10.0164107858234,568.59533483695,-104.985692882108,2081.36797215173,-274.181409818981,78.0214159847879,-6.66793582001743,2244.70944476103,-439.175644663185,1928.93784938367,-368.222319531575,1243.26059620819,-6.76701072298692,1801.50130959587,26.2920638167729,929.514278051014,-132.332519920296
247.479663845565,-59.4312884559726,668.805779503644,-163.198438426413,825.88916705461,-17.1353349985284,4365.62218387393,-471.258612397082,224.825465791115,-25.8178346085668,353.43954791555,-55.9723610713773,1232.92813971727,9.16835728801096,567.689741603321,-104.989882900461,2097.3260060305,-281.896072639216,77.6741945108487,-6.62415644039177,2237.01387360438,-434.238171895988,1926.28774063418,-367.105500389697,1236.11808229366,-5.56070920546133,1802.79163964557,27.8829126758927,921.99401106922,-129.226405145016
235.557892906014,-51.2769598644986,655.24480202862,-160.917383212919,826.721638735994,-16.7274842099699,4363.6737641704,-468.476769915632,227.333395972677,-26.6846020856598,352.773378647018,-55.3088886469204,1234.44204892772,8.60175212453562,568.471743441329,-105.477986364593,2099.18002971036,-282.431923498835,77.8726949711397,-6.61665028985979,2249.82420667999,-439.778144955891,1929.16356572236,-368.499319430821,1241.97995099119,-6.69403569176911,1808.13464960151,26.7798603687434,926.670088078105,-131.329522830163
249.239398834014,-59.899420630147,667.569834162351,-168.051126577996,831.291976026866,-17.9994318706746,4389.37804528303,-486.870915489195,231.927098792609,-27.6769746811391,354.593401909147,-56.5740026591373,1242.16391620833,8.64026801003254,571.661850148213,-105.914013029403,2111.71399135302,-283.083466432281,78.7105207069549,-6.93142518000786,2272.3655837687,-443.651546351021,1952.04964071017,-375.124133452244,1251.93708702382,-8.82945708030288,1823.88839207288,24.9063920483503,934.923690619168,-130.87478463663
251.160828970925,-60.2028820337801,673.024021417584,-169.876921625309,828.14122760442,-16.7773293764521,4370.49271904897,-472.593972860526,227.581187790325,-26.8974772127649,355.303101526053,-55.3410291707153,1239.14089245867,7.97304787341952,569.367915483995,-105.272845879943,2113.34226129882,-283.815600992583,78.0803328725073,-6.76102092090785,2259.10598261411,-443.323064873563,1939.10089013478,-370.394263325281,1246.27583593062,-8.58190280421552,1816.65315507593,27.1383613931793,926.90350792187,-134.063576757478
245.223681259773,-59.2139097140002,651.208634954235,-156.081306045488,830.412683590908,-17.9992943164433,4384.94992059736,-483.488393342956,229.208199968195,-27.1181930483845,353.949323228892,-55.7624100686769,1242.90925912942,7.10658441600918,571.177835140772,-106.1711117048,2114.1536234369,-283.176440817782,78.3886580191713,-6.66185651701839,2260.04240815274,-439.786536401823,1942.23499605527,-372.733049949537,1245.29905078825,-7.59714445485251,1820.24605580796,26.2450596482722,932.966124569453,-133.583299128602
243.978434633883,-58.475036594024,668.368711313121,-166.865679836112,835.066690289288,-17.9949356375556,4393.46870453246,-488.126315679456,232.191098774787,-27.7869763642267,357.418883938111,-56.5454104512219,1248.17647560424,7.81408048031781,574.559623383682,-106.816585845208,2118.34258719681,-283.951499609279,78.859055856875,-7.11010477307008,2272.72507150873,-446.615253956035,1939.18819349326,-370.545164949265,1250.69247951225,-9.58424588355796,1815.63488882015,25.3681190752562,926.738059033832,-133.354568158584
244.015672553961,-55.9161426492983,669.058780922176,-166.493512710339,835.960805759565,-18.9121551833459,4384.31097310272,-482.514018984043,228.478225713767,-27.0005766947348,357.280487064152,-56.5582516088335,1242.88034070632,7.47332076886495,570.671062326903,-105.547541978028,2111.69967262844,-283.535823683155,77.930800919757,-6.50639748378777,2251.76954420604,-438.983880922453,1927.5943717554,-366.029134994869,1243.02089479488,-8.5764748715937,1815.79653787017,26.7525178408521,928.440925837173,-132.313392471601
241.652868243724,-56.2948636666729,668.212149920168,-165.025837837863,834.000852578943,-17.0408855497607,4390.96498625376,-487.700580154029,230.64809209409,-27.8597106874915,357.957225678703,-58.006420107161,1246.15569539928,5.54006206098412,573.334926624937,-107.082194890412,2085.87761027692,-279.839812469165,78.5196043789261,-6.90141230240583,2249.42555263663,-437.959029754038,1911.70134611819,-362.109059866483,1241.11742821413,-8.04334385003634,1799.50780985535,25.0435325718532,936.872048253759,-134.372067605434
248.297071580102,-57.6671767411575,668.056333028969,-163.470800524474,836.918531124195,-17.2841602921085,4394.25435014216,-489.844133903992,227.567476606251,-26.8830598632233,357.80603335447,-56.3657621003412,1248.07348542757,5.7218802823573,573.319778951952,-106.327962139323,2055.13095696852,-275.602624928459,78.3236247680445,-6.85222028177577,2230.06220299257,-435.232455497685,1894.30953028212,-360.015612725616,1235.92216780322,-5.88422371588908,1769.37727107402,23.6487892247303,923.639835671539,-132.919029145391
249.85867490864,-59.9147682378392,663.895350448149,-169.305628869702,830.936981319614,-18.3111286257407,4368.50981863855,-472.240129320581,222.220159168594,-25.420492062567,356.451527511442,-56.7700107645462,1237.2134989694,8.23881779002465,569.713457798605,-105.239880330464,2066.71850006615,-278.057960097516,77.5434220885251,-6.59280042291832,2213.13066389507,-426.221464962042,1897.11520887329,-360.982541109332,1226.19874132529,-4.36244867216252,1767.41159541253,26.7900487603052,919.2939812018,-131.654225029851
243.910982992617,-57.1984809798773,670.40992607494,-171.013292799264,833.13995558533,-19.0511262005699,4375.2689729391,-477.536722991847,225.007763605583,-26.1807272255785,353.985495948871,-55.3000187124436,1239.97191320332,7.6796312521324,571.279332796204,-106.288019133629,2049.21626000542,-273.438248668245,77.506681459844,-6.60126280396778,2218.35378203887,-430.686681335054,1898.11091829993,-363.635723387894,1228.52524381452,-4.41136673339252,1762.20461178314,26.5178323152665,926.256908741523,-131.275046072582
243.231257476003,-57.5587393640843,668.372162727209,-166.337383260291,833.179919349852,-17.8595251674193,4393.07209577884,-489.761366410938,226.484819697342,-26.2368830692529,359.145982421889,-58.3441523873988,1243.32095176436,6.35809068400537,570.803253122381,-105.806026056123,2059.87920440442,-276.1752300205,77.6801740026862,-6.65008809233494,2208.3906092794,-428.952356632625,1894.53867426967,-360.093519570196,1220.30769086197,-2.84479012650839,1757.59333432644,28.0677965396364,917.410025256804,-130.172449822042
243.750436415189,-56.2372622091285,661.066005638353,-168.883861126549,820.932474024235,-16.2604905406688,4358.75976691001,-468.14527840133,218.612776852949,-24.6087606005955,352.527240300043,-55.3824396590551,1225.94088097627,9.32153222000251,565.596038184812,-104.727623525034,2042.88160978775,-271.865764893146,76.5302952335852,-6.45771288973113,2173.98961839532,-418.163774556855,1868.06399523201,-351.861801071207,1203.3664588613,-0.471692459063874,1748.75125293591,30.1723847762396,906.110107857717,-126.625263787572
238.871975121727,-53.0942563449832,656.318951932342,-158.039003141852,821.214569072467,-15.457033329657,4359.22703388586,-468.381158327376,222.366921842865,-25.2019932529918,353.701191355271,-56.4973087063284,1224.47608153481,10.2468432540981,565.323299842604,-104.623217985414,2038.7125821367,-271.396396422422,76.8119915334647,-6.41969516025227,2178.19821936536,-418.712918139466,1867.76676687549,-355.971541879189,1207.10175776446,-1.22183370631441,1746.34365213688,31.4248966807912,913.713166023656,-127.96232634149
252.480422761446,-61.7368949793456,655.585241993804,-161.59077457473,827.346900445604,-19.3890983065603,4370.75741050568,-476.025317649443,226.626695534695,-26.3290073043482,353.028003686408,-55.8000205920778,1228.34075111076,9.62503111555412,568.524691705574,-105.52375509633,2047.0736892538,-273.64447817262,77.4568216702059,-6.60302339149311,2187.29941735115,-419.593390044487,1877.52282079162,-357.364271413389,1213.64978397284,0.505042714549816,1755.20882803777,29.2744918109281,917.974491443388,-127.593427853906
244.523422046349,-60.3793326133025,665.924481526604,-168.407693585887,815.538984525643,-16.3802429429862,4343.64392988714,-458.191557325671,215.430023768696,-23.7430715072199,349.806580153187,-55.2556527908427,1212.91453595232,12.7897574031683,562.673921288997,-104.101276176282,2022.12575342023,-267.646345657524,75.8516944487124,-6.25139913450301,2144.25236597872,-410.421672748031,1843.58020794474,-344.796989269109,1180.5607213623,7.97948949907276,1730.79309560721,31.8919186021219,895.218936976023,-122.601095896327
239.264685961894,-54.8758669068938,650.963775803343,-164.071844412754,811.582229253125,-16.7395978202406,4339.20594807281,-455.689121007923,217.78782608621,-24.1590162405092,348.128122516288,-54.6868019093667,1208.89962540064,12.766718982483,561.121036760687,-103.58300250777,2014.55629355688,-262.423942000326,75.5986010513127,-6.16343928740131,2141.86673214312,-409.567889358023,1844.04068813337,-346.905778524263,1181.31866203776,5.29447018343676,1730.06258606995,33.1036613760407,903.426435245108,-126.122008502541
235.594576928967,-56.496549669002,653.388231715614,-165.50274773779,814.036698003502,-15.0478922053604,4351.72794234326,-463.701553965064,222.728945705229,-25.1609331453794,347.694742465212,-55.5487726317517,1212.91224063916,12.0337654278709,562.427953807575,-103.875628405219,2026.2673904887,-266.985470969747,76.0973488907465,-6.28736043667569,2155.65084699791,-413.271270935156,1853.80872821486,-349.558227911452,1186.75533034336,6.99571198585611,1738.1925782195,32.3665059066168,907.299000959522,-125.006350924633
237.210101697467,-51.757189332791,668.031711259352,-170.1415676946,814.569445650112,-15.1992363050047,4344.62107280649,-458.636452843203,216.974907665958,-24.0280347453496,349.742826444005,-55.2452336217995,1208.78026060935,13.5235840259632,560.380247967188,-102.971196297741,2023.08370297414,-267.819260845976,75.5275174540391,-6.18257425895978,2136.50258536444,-405.170309354308,1852.25546331425,-351.1646122109,1178.56428283011,8.4587996485514,1733.21628455249,32.8406265526323,893.10113783806,-122.973025617018
244.071544059695,-58.8621012839559,658.312799136855,-168.74861651309,805.174529822861,-13.1614539885355,4328.97743251499,-449.207932582804,215.758861802279,-23.703024616774,347.152616807921,-55.0835280412806,1197.41496683761,15.6143982758995,557.694033908945,-102.427172025778,2007.78541964949,-263.151149840767,75.0609102482571,-6.01153523948204,2118.69956110416,-401.762601929398,1841.46595350441,-347.25674747878,1170.02964331426,13.7086155312411,1726.29937333711,34.5586377994155,894.372731171028,-123.290855970819
238.624058619775,-57.9526733808919,657.399234469285,-166.933307985999,811.637691214363,-17.1470663122781,4335.26180394186,-452.087340214877,221.644887884529,-24.9513400675298,343.113978181455,-53.0316168886621,1202.7007508551,13.8923928932653,559.563817342511,-102.7195642507,2022.40428609094,-265.651106001371,75.5458674385972,-6.10656879297522,2137.83377909555,-406.207090604462,1858.63523006951,-351.001861175149,1180.309968122,9.70727004264175,1739.0831758956,33.3540347090884,907.952468495119,-123.903443989262
238.063477506712,-54.8317815689076,657.9995186636,-161.7140946947,814.658005969407,-17.1158822921541,4355.17422852586,-464.852819904302,225.882512779977,-25.6633675247581,347.143503177949,-54.7932563032777,1210.57212097891,14.1736680863481,562.916676004931,-104.10215687904,2037.17200032123,-267.910691342048,76.3302686490201,-6.13164891714363,2158.33908252915,-408.371221085265,1876.00460976869,-354.218810313144,1191.91270540561,9.69132049620058,1753.68447608415,32.1643682398706,919.76152046019,-128.623267428114
242.158086407402,-58.3402180376475,642.520868620108,-161.214313284592,810.226156053269,-15.8040305341909,4331.91665549993,-449.432295088676,216.177178019971,-23.5370195088485,344.606827220435,-53.1649955938763,1197.43521039308,16.5501261422419,558.976544272071,-102.864843668835,2039.28339941718,-268.424323749155,75.2619343445774,-5.89966853878984,2136.94702460167,-406.120712410774,1865.24129577387,-350.442854286818,1175.41018240836,10.8515357287351,1746.70400043533,34.2268624617324,902.364302317409,-124.591465142478
236.903180358488,-55.6351528935048,658.883079685049,-171.137236745872,807.04989375021,-13.0305930056277,4336.67419997775,-453.561927542825,220.534555597656,-24.8036792073245,344.625149046546,-54.030780178557,1197.32835720326,17.3301596668457,558.941086911834,-102.58173099715,2038.21772804752,-268.691832044458,75.5082893133995,-6.08626818541384,2138.98156932592,-404.715815089936,1872.77403451985,-353.765544850285,1175.66790281823,14.6119932479977,1753.9501658639,34.0607672677629,906.943219178876,-125.04236455079
243.267129376056,-56.0645629850344,660.510904333745,-165.137867586069,809.96629261961,-14.119615520183,4346.22520428018,-458.819372336234,225.306299956498,-25.6042641898109,345.012153143591,-53.1117565307162,1205.08823342269,15.6526314094585,562.22329286694,-103.489941401258,2060.89306678741,-273.855070164174,76.2671483115494,-6.21720387312352,2162.22737058772,-410.734143034319,1889.62204716807,-358.048968899328,1189.25746605165,10.4712128599683,1774.04883620793,32.1757619155331,925.310704797401,-127.781044940752
