236.990651434093,-58.6678751625828,652.091264954771,-158.975247001808,797.372560327051,-13.7788084826709,4337.93739427807,-459.552806594596,222.411491117432,-25.6787735517608,345.16795557169,-53.9699721873148,1214.63232877825,2.00497763267165,554.893953338531,-103.592204624604,2015.27118871129,-268.009767522372,75.0997969068884,-6.59951503162189,2119.07533525398,-399.735164984057,1852.73919618015,-348.175676665617,1182.08024640992,3.94240262440967,1761.74220433049,29.8146870924976,901.537857410928,-125.661114637346
237.414984151937,-54.6310416768185,671.068626491936,-166.880155285274,802.911259210524,-12.7762758537528,4355.55331865262,-471.642347861975,225.325945795642,-26.395051013288,347.332508525036,-53.6635130220071,1222.13569939787,0.988010253862482,557.983333242114,-104.364363903096,2027.43518786278,-273.586894154332,75.1633370859976,-6.39859755759463,2128.59739645463,-401.464386872736,1851.20816158427,-346.001109590454,1181.51922773723,3.25230380067844,1757.21255420156,29.6510494329418,896.269546228686,-126.810932697771
238.069236981691,-56.6908349364285,660.787561803757,-163.061884110908,796.553863929181,-12.61157131784,4324.28568394534,-450.507583840514,217.447854862756,-24.7051419292378,343.139956608726,-53.1997154670789,1207.77598070536,4.01428134272895,553.512107191667,-103.305532604993,2004.90495679523,-268.436341114222,74.4075095867117,-6.29443223442343,2096.8120236648,-394.41728715512,1838.56528434888,-345.008039047878,1167.92880729046,4.5709224726514,1742.70683401973,31.9141399013534,884.859512750074,-121.463537322272
236.092922774475,-54.8323234011432,653.545237188548,-167.796687113852,794.370272668142,-11.6338281368896,4329.62407254335,-454.026166972806,220.038073089313,-25.0288080999517,345.387014256294,-55.0848021081838,1208.33074799133,3.90433855493419,554.203264905582,-103.675765865858,2004.03985384383,-267.809200228736,74.4299240172234,-6.2458051723426,2106.53755097685,-398.31468752853,1837.73752536901,-343.003274493878,1172.467087043,6.59750072973665,1744.58792335094,31.1778227242241,896.926455265846,-128.557538396973
229.468326934905,-53.9286258668551,667.104629899054,-166.730895719123,802.113276209224,-15.4141832603937,4341.11807076008,-461.806244540933,224.128116235113,-26.0925688795271,343.778652594709,-52.5930351253823,1215.40946279488,2.47741358560822,556.952767065627,-104.225934062043,2018.956223639,-272.690526405031,75.1635686535635,-6.4765318444177,2125.81420709845,-400.168963742729,1851.37991898668,-348.183631977574,1185.37883015137,2.4723963681989,1754.8712326251,30.5425025658511,908.948905086687,-129.711778462012
236.849230904599,-58.9858590751337,669.418395826819,-174.135998106868,798.705130095429,-13.2649559560476,4335.45509294727,-458.411348534559,217.814183823783,-24.8443131420544,343.15137265441,-52.1828302678915,1210.91412201773,3.30976767060759,554.700370858772,-103.702327370237,2018.71017098954,-270.756519785431,74.4020647659737,-6.23721682080582,2107.81923760622,-396.843626005869,1840.07141850705,-343.412089166493,1169.84977236249,4.44191466512141,1742.45675525768,32.025303193862,887.221814860316,-125.359798781432
234.190229187208,-56.8233415846209,657.520855426841,-172.785794353577,794.360231381483,-12.2630329167211,4319.5121399225,-448.251764668321,216.602190158018,-24.501184803711,342.194219645666,-52.3625940737357,1202.18823926209,4.70055274323872,551.97959619747,-102.85272950697,2004.66152221963,-266.310492389146,73.71061607114,-6.01561810112126,2093.25154830229,-393.432926985049,1828.53123694142,-342.40149421907,1163.80545544293,7.39581482192726,1734.66116800217,33.1601005652758,889.261573728898,-126.47872837319
236.162040412764,-53.0306614207015,654.103742087954,-158.066466817437,796.420459937916,-13.0240880728278,4327.25732273203,-452.825285947418,221.1311081668,-25.3005362570097,342.569019434679,-52.3659970018833,1207.33189755168,3.12309822215508,553.96122198834,-103.640954112548,2008.91827788429,-268.252452359097,74.4374622656899,-6.35972775501421,2106.86467400081,-394.263752736086,1835.87986948584,-344.102170018096,1176.80223171634,3.16134654513016,1740.33080173569,33.3796687044429,899.175868690304,-127.617033733064
237.966240293701,-57.7166416506378,658.471095630424,-164.439076296297,797.070074194249,-11.061395863403,4341.49039705347,-461.844213379195,224.695170856925,-26.2726308759893,344.820446492446,-52.5481458079466,1212.76839215306,3.76924938576663,556.201075646421,-104.149499969206,2015.73826152683,-270.706713369381,74.8113717216502,-6.28505643100912,2127.9727972797,-401.127563493443,1852.27983785599,-348.658031690275,1184.42829547199,1.78887617871342,1751.56183110798,30.8899023612199,904.367355143862,-128.241527605436
229.572939094233,-49.9573194097811,656.179271766798,-170.025077112914,791.843933839702,-11.8631346662833,4317.2273531962,-446.983735744953,215.029326634072,-24.0374541749067,344.455540838892,-53.1266450896813,1198.92608330962,5.69335396557113,551.02506476011,-102.395097540265,1997.34639320788,-267.236646450013,73.6661905828862,-6.29564422320306,2088.61964731035,-394.489854189552,1824.18211483847,-339.102427933926,1159.51244925302,7.91244217941613,1727.03891843108,34.7507735741555,878.092496042471,-121.407994870031
233.606985531852,-55.5010275470024,648.323066708563,-161.286507723042,790.622826916323,-12.1297811642249,4307.25369318544,-441.739852920398,217.963734753906,-24.9224044829915,342.965372416151,-53.2538602102863,1194.95325562593,5.66014465501897,550.38932668235,-102.539408185367,1990.40669813221,-264.085623500784,73.7752827372421,-6.32932742273145,2085.20597679893,-389.895616995123,1816.404135331,-337.953417548758,1156.34409440988,8.72414002740243,1724.97871944806,34.0928812352485,885.272366329042,-124.712223538999
242.284638258138,-58.9933205423822,663.022797195537,-166.853475984039,791.260085553051,-11.4553128842183,4318.01052536389,-447.032258717118,221.525659719407,-25.5179198733097,342.052376150271,-52.2395310557084,1198.79178753639,5.65471101893319,552.934971206287,-103.268120188246,1994.92477702011,-264.786350462504,73.8365413672417,-6.08965466474862,2095.4613597791,-391.396779411064,1824.91394682962,-342.563433722345,1167.83772666326,4.64657334177333,1733.41282472587,32.774622912517,891.272172121294,-123.5443128845
234.846914261305,-50.5743237864745,659.757497055196,-165.115787406378,793.570490611593,-14.6968778280781,4323.57559705278,-452.123500734977,216.539250836321,-24.7725762214793,342.028742839942,-51.4012786313335,1196.06609082642,6.43863926743553,551.263842898595,-102.790438191638,1995.58150692601,-263.842460381183,73.6804739619964,-6.27032333725908,2086.7921001186,-389.910094374089,1820.47562824751,-337.201377339506,1158.27087497267,4.57166609074472,1722.17176925759,35.5758904806255,874.13706887888,-117.824327126155
229.44737024637,-51.5434311904125,650.587874226492,-162.660209039117,784.512174815202,-10.8297989540825,4280.92188082824,-427.324779158402,213.582242825789,-23.9004623605863,339.570228511562,-51.0755485359723,1184.95222418427,7.7105610967233,547.654145425351,-101.955464629426,1977.92195351229,-261.355637650292,72.6336627787017,-5.91077193745899,2065.24334854361,-385.04472333777,1805.26249597144,-334.463561125495,1147.55248271876,7.30090705244988,1711.84974558641,36.6925321339067,873.058159034265,-119.704268474865
226.746459783885,-51.5179018502451,651.19692240042,-166.788808089104,783.129156771889,-9.75274184474462,4282.79586139146,-427.709975690948,217.164102086491,-24.2847473293829,341.865291084346,-53.5995274536017,1184.20614817493,8.78037364029514,547.528495126641,-101.323468240509,1977.46725362462,-260.321651432949,72.9381128277783,-6.0085034952209,2071.24929101608,-384.070931814165,1813.14020459559,-340.031712624664,1152.61104478592,7.24769714813809,1714.99405938944,36.3936883034912,880.685740933731,-121.414654033875
231.156618118377,-53.8536628898332,658.1946245794,-168.27888451494,780.903553389331,-8.48270770616378,4290.65422136171,-431.8146723308,214.228913015075,-23.7364027059662,340.396452376016,-52.5190733929051,1182.25408955518,9.18554762425409,547.40498369774,-101.854552453191,1974.00901394165,-259.934134758627,72.3751755867913,-5.86344002649252,2067.3328316493,-386.542286614743,1807.04087795463,-338.490880325118,1146.7939388245,5.71569661360946,1709.98119462308,37.4013798105333,867.397829825831,-117.563527085112
235.017857436809,-56.5873619754099,642.26202867952,-159.657959869509,775.222457595129,-10.3151238214301,4258.63021114084,-414.841009228014,210.625875606949,-23.0244652276575,335.725407121393,-51.1612734187904,1168.48082236558,11.6136857542345,542.362320648559,-100.161469567252,1957.85724630052,-256.277804132773,71.7211747494929,-5.74341360111653,2046.69810443866,-381.891982168616,1791.78791034546,-330.712469340133,1132.51975488791,10.5393008339905,1699.43739944745,37.8975898681003,860.587971635502,-116.129205101698
236.690560109127,-55.6992497660935,638.987150913778,-162.279221249537,770.99532508198,-6.91372788580658,4256.21927872719,-413.47051051881,214.300053309974,-23.9072914879147,336.356719091108,-51.5692581200935,1168.39803005145,11.5757470971394,542.430395012661,-99.9156902399311,1955.79720513863,-257.15974386013,71.9393588073545,-5.79861975819485,2050.78463234561,-381.12369316952,1796.23896739882,-332.259320414519,1137.78166517436,9.44218765840078,1701.27236370299,39.2774421950304,868.180270671516,-117.399066298198
226.246268404755,-48.4684099754494,638.969786796692,-163.461264769471,772.289052390765,-8.33336890700186,4247.15077243127,-407.364148969167,208.900557636759,-22.4465840695854,333.218188783717,-49.982950751166,1162.41339216131,13.0304275638411,539.88252285062,-99.3859090856022,1950.02679949148,-253.981600539966,71.048036355787,-5.5323268732028,2037.21763233448,-379.709569230817,1790.39261153002,-331.93370720785,1125.80805553351,11.8924935234946,1694.29261321796,38.3969818866147,855.160754555784,-114.66695232352
221.584113197665,-48.9674261338299,627.728781400708,-156.13512820513,761.673081493775,-5.2788278628031,4226.64985416562,-396.246307563981,206.774668507886,-22.0565148195804,331.615898000681,-50.4576583725378,1150.38112610398,15.397310226717,536.657048615181,-98.6355347941803,1943.19034934989,-254.621417739032,70.8523930533869,-5.52158829815281,2026.66552657957,-375.605283892752,1781.29320312544,-328.270402920709,1120.30632232514,12.173686187102,1690.03020716646,39.0864303326954,857.540499782597,-115.294341047494
226.389396496672,-56.3519792654498,628.56425347974,-153.56130157872,763.139136766197,-6.93693512019463,4225.89686987603,-395.469426646204,211.426938001223,-23.1604059245997,332.409333485054,-51.6297917988944,1153.8216027645,13.4900518819543,538.021779571833,-99.2807515403457,1940.47090683811,-251.185943692406,70.949792430791,-5.43304522405458,2032.9332406531,-375.213756295234,1792.80514824869,-332.165259923176,1130.65412193362,9.79615078404851,1697.71873149286,37.7172778375451,866.619850491993,-117.506811569189
220.044850090358,-48.8892574860403,636.258736106486,-161.472630657682,753.180188134727,-4.41048879096999,4218.27233494911,-392.096826738107,205.136220423793,-21.5561308689133,328.855830594625,-49.4743902378457,1145.64955192306,15.8893302278194,534.895858585547,-98.1391884430292,1939.68866700445,-250.780013448038,70.4404720301405,-5.39751854732953,2015.33663214519,-371.742973982722,1789.64520150129,-332.445034924894,1112.12721077042,16.0544529858825,1687.68251134645,39.6856362036754,844.318886533213,-110.143031433382
219.039350360017,-47.9279020675131,623.228654839241,-155.120204280003,745.37204142964,-3.42282629566605,4196.07394453412,-379.462219589008,202.092072852163,-21.0569946259302,327.095791240416,-48.8966317921271,1132.28190646889,18.0055629771941,530.999750364208,-97.2377387277377,1926.58490798053,-247.801218302616,69.9362590129198,-5.32603274973895,2005.30881701876,-370.758493262957,1780.58809614387,-328.633121347259,1111.75289342256,14.5623970947392,1685.04105915271,40.0814499731206,848.240629375342,-111.925486050091
219.389686950722,-52.063071192346,623.737845641894,-153.819260571475,748.11239729701,-5.53076716204365,4196.96723711756,-380.239901297626,206.495561806764,-21.8983444215748,326.704059309651,-50.1930616803715,1136.53540058646,17.5625449503374,532.544539859951,-97.6979026467048,1927.60565356609,-249.27851159833,70.4874388939038,-5.50757885304646,2020.60378142088,-373.706652697216,1791.47695825391,-332.968490847332,1123.48061271101,12.8425337893097,1695.21747434675,37.981099891144,854.465163004682,-112.883967486596
220.700621292212,-52.7132855114498,630.054734357817,-160.3549280941,752.020405756587,-5.56290681016355,4216.55584184143,-392.753762376812,205.808941887906,-21.8409978568654,328.020978318926,-48.477628624998,1138.29943794719,18.1090480052011,533.912020905033,-97.8859831282135,1944.23347159119,-252.908792804938,70.2485341250855,-5.36983339710923,2019.24200592194,-373.585066001907,1791.57412971622,-332.360491645159,1124.00818351035,11.539475845352,1693.96954385977,38.0825783135861,846.588792016384,-111.34195917093
216.664928146888,-52.5498096724764,611.77772586403,-147.246959232982,738.854949905293,-4.18017677866983,4179.11565826268,-371.605420804744,198.822896924351,-20.586051777731,322.713134490849,-47.8512700537933,1122.12568655788,19.8479435216834,528.733623494206,-96.8519262986164,1930.48966958961,-253.020008647067,69.4072744937715,-5.07558215317761,1989.63794037806,-365.1330598309,1786.84105209726,-330.389097677909,1107.50612548332,17.0917057040631,1685.32176827964,40.2741223095412,841.926619026352,-110.178861161532
214.987701703411,-47.0827020194853,622.509715034216,-154.079993394629,741.917024919377,-5.59765137737536,4183.08614456693,-372.677403998839,202.310327818866,-20.8946478427418,323.233070764622,-47.9743848127487,1124.80272944113,19.446362968574,529.484473054281,-96.5053681274588,1932.41643447194,-248.745027351658,70.0731352452281,-5.37913312743704,2003.31664918779,-366.900198023038,1795.49089627695,-332.018527096736,1119.71996633512,12.9566027956545,1697.229905862,38.1994223334227,852.988323879798,-113.225375620854
223.456620080573,-53.4117061301483,623.924089390774,-158.39823212541,745.076116511299,-3.6108749403582,4192.39755077516,-376.520615161185,208.214527357941,-22.2814307620981,324.831615072576,-47.8743899102423,1135.89957946088,17.9718781416854,534.603409406696,-98.4790949907268,1949.05142236146,-254.449463820054,70.6714743049194,-5.49058156248514,2037.29771906704,-377.22003950905,1810.34217408089,-335.370626701477,1132.71051642689,11.2311448885185,1709.7405892903,37.08936741849,862.123976245509,-112.92977476672
219.465181888707,-48.6559997283486,610.989815513214,-150.060597117539,741.932920758863,-3.69048575475086,4183.55056994845,-374.284078965654,197.549631306253,-20.0195284132734,325.159886720811,-48.6113395839406,1120.83033575032,21.2182283971501,530.230161990671,-96.5378387928808,1947.2652487286,-253.170171296898,70.0025686504663,-5.24146756187381,1997.07517869131,-368.320155608011,1805.99609468953,-336.454765277657,1120.23602670265,12.3264751615322,1702.12441998156,37.6673076980659,846.181088682707,-112.321372541043
218.977417426237,-49.9008435401558,617.005850304605,-149.968411567372,741.768656088296,-4.74986544576699,4181.8985253613,-373.425013201113,199.614215196047,-20.5828062653702,322.928437395556,-47.3134675776793,1121.65690903329,21.2446129429882,530.854958664537,-96.8765535288899,1946.18922006521,-252.328355376454,70.1653808809723,-5.27224526029178,2005.41428592318,-371.151238914676,1805.44860202712,-333.289025149546,1128.12111853097,9.77866240249874,1709.31133070564,38.6588903400832,850.821656119591,-111.721303522182
208.441679134088,-43.4561835145549,615.718800267077,-151.790337609599,744.367177258767,-3.95755148717002,4188.58019521247,-374.347548456784,204.211833576813,-21.1468211266169,327.107064617973,-49.275070285427,1131.60241135899,20.0817292043589,534.473367509587,-98.2251155845398,1954.14680196319,-254.222045764203,71.1631654794237,-5.63702116335544,2026.03715345035,-376.101886758842,1821.01714017772,-337.956801573646,1139.43810890682,10.2154981915293,1720.0413720328,36.2061620441338,864.829503763257,-116.106761777764
218.661062835625,-49.709569735958,625.298660257742,-157.197418157212,747.262142695249,-4.30755245008269,4193.96875755815,-379.033403606529,198.387668307118,-20.1590382740234,326.315601587578,-48.5695470251936,1128.65849065688,20.8465063941626,533.513695958283,-97.8615167693416,1960.5887544803,-255.795887845567,70.6318133695057,-5.38002882668138,2006.70482753032,-369.859899633866,1816.33667119456,-337.801216435187,1132.25468589199,10.1397699240243,1713.39731306484,36.6751177719891,850.357272532719,-114.310454958037
222.649769250312,-52.0509741248412,610.732494303897,-147.717616119511,744.275383617358,-2.80443096695984,4181.67498596157,-369.461025083592,197.733697037438,-20.0103598340373,325.170284184321,-48.0854734406129,1126.27303759382,21.5800671701498,533.113406068249,-97.7953749015804,1951.85797629747,-253.398548056558,70.6663807018973,-5.4635737081318,2003.15940615331,-367.951650490587,1816.19895662925,-336.759219932199,1133.23688298502,11.074592389173,1715.25200142606,36.4991847947003,857.188286276632,-115.598051004166
218.997476458973,-49.4757533766515,618.979228299114,-149.338554234095,746.582246647646,-2.62832529277543,4203.88445922163,-384.500544023674,203.825013007518,-21.4317977252528,328.352000433653,-49.4220737453665,1136.45473438149,19.7213140069315,535.899317843616,-98.3725673119231,1962.88846855824,-254.958843422199,71.4789103804971,-5.57280211783822,2028.47800882676,-376.59909648305,1829.3940422243,-340.385296395797,1149.48466248316,7.5223070678509,1724.23820927487,37.4931288542301,863.001240171364,-114.427199809118
232.758636248815,-57.3331986933659,632.238545182218,-157.731387047861,756.786810686868,-5.09043771197156,4213.77353420567,-385.41931211215,208.63318414857,-22.3606032133864,331.493812167808,-50.1579231760233,1147.88388559256,17.9853618917711,539.675882962709,-98.8279282652314,1979.24872915982,-260.553867283952,71.7266409852137,-5.37676913582411,2040.21613930732,-379.568953720653,1829.99354723729,-341.899967695387,1151.6748620499,6.63120350175223,1729.77692665499,34.7826994037291,860.691511202485,-114.685927856471
221.944085808991,-51.5092472643346,614.878122134936,-156.364934307945,754.062698106921,-6.67893006459606,4197.15756410395,-378.553711528835,197.694627694334,-20.2521323728058,326.931079815578,-47.3504668311899,1133.3604006476,19.9582385905814,537.077084428184,-98.4962378835397,1971.5345865882,-260.156532447814,71.3199225703604,-5.446950511745,2008.25805957375,-371.611187824386,1827.48424748761,-340.480124730115,1143.35883509349,7.83775525121846,1721.76487766027,36.1306491111328,853.795649017895,-113.917490275166
229.576276418224,-55.1466939657235,623.64395925984,-151.394093335454,756.275963921884,-5.10015080828471,4212.69760403651,-388.714385283093,201.563178737289,-21.1685597609103,330.177933420583,-48.850828883841,1140.79472821734,19.2358992765122,538.306403589436,-98.8072707412892,1971.56426321328,-258.182818942002,71.6433830983437,-5.50616700200012,2024.36376473692,-375.037069028917,1830.17660234592,-339.786259821633,1153.70370006123,8.01062282742193,1727.68931743627,36.3932931865692,862.856880350357,-116.472865015648
213.002245664644,-46.472663506904,632.73499177984,-155.91706907511,761.462923138831,-5.15427080675912,4226.03925020924,-394.092050262227,207.208317035306,-22.2751221491859,332.375375986632,-49.5674644705097,1152.74852785797,18.0183124447639,543.603116680982,-100.545029251425,1984.52021812274,-259.404665565215,72.315005679905,-5.70082848714999,2053.2474346614,-382.62870609794,1841.71921645557,-342.321305963376,1166.45184696533,5.07202175100037,1740.77627994918,33.2305509773838,871.079713090652,-118.161629423303
223.874991791759,-52.630853815556,631.034461110331,-156.258184270024,766.930492316861,-6.83622842688854,4234.1206063659,-398.206458230057,201.718383844555,-21.2188247119898,333.813092539535,-49.6117006121795,1154.49845119628,17.274123795064,543.910898169561,-100.589735141258,1995.08891419334,-263.42899306575,72.1847464428057,-5.69311838440044,2040.43646611994,-378.418550274289,1841.68207599465,-344.384328282077,1157.88019679386,6.89887610621674,1736.30060714981,34.4468259908808,863.649922562037,-120.211092066559
218.545855370142,-46.1349522327426,628.36207517846,-149.903991032777,764.151678824487,-6.63548762834656,4216.86276396863,-388.63619047825,198.572550872388,-20.6389732882436,332.035895188009,-49.5593783469521,1147.58402655153,17.9318514283307,541.20030381592,-99.4597463322897,1986.95454827096,-259.271555827305,72.4197598523919,-5.78769931666207,2024.00695448321,-373.787630812567,1838.26417237258,-343.318260502563,1157.6673510989,5.7563693497488,1733.53849479487,33.8068679189496,855.319165472928,-115.332181317702
217.827531719256,-47.8182606943429,629.9388501679,-160.698748114505,768.232557415324,-6.60879100342554,4242.3813256417,-404.370320067945,204.315737672095,-21.6915472341518,334.078646259275,-50.1077344757611,1158.03427139585,16.7966255735825,544.986838315725,-100.922852097819,2000.29571183306,-264.535931426056,72.9434518060406,-5.86905362041719,2050.03394842839,-383.928112619065,1848.40232235773,-346.397817356307,1167.27496192871,6.73171021089839,1742.45083309125,34.3417625718475,864.247687957959,-114.697581964309
225.701236240708,-52.2926313019451,631.464553956309,-154.048477628352,777.366969776103,-7.98311549694966,4256.59239985139,-411.757324248799,211.271378235228,-23.2786202290692,339.187816481752,-51.9140686448182,1171.91922199635,14.6333758394595,549.161478910923,-101.918848389785,2018.16751606959,-269.282044018438,73.4586329536213,-5.83937448280758,2084.04085602035,-392.128093901185,1861.29851703601,-346.927114291928,1187.95502278785,-0.10338917105215,1758.5699242391,30.7873696565142,881.025649999973,-121.769605742323
232.073356564277,-54.2438034011515,638.05715561529,-156.918885406451,780.780302237354,-10.7878838910108,4265.93285444408,-419.496684468614,202.683670364007,-21.8468601198041,339.116209949285,-52.4036607628508,1169.37253360788,13.3334754741413,547.673330534254,-100.879494528462,2019.76127807474,-265.486021652725,73.0821655278574,-5.81601377399224,2054.55065706893,-382.585946801851,1851.16816280876,-345.84832030698,1175.07239307898,2.05479487645635,1749.38607688532,33.3714029239708,856.141128860372,-115.198049995204
239.981057570939,-61.9973071206853,638.739020056503,-159.741837284266,776.144458811532,-8.68642348320417,4255.89806537724,-412.200891700076,202.689826383579,-21.6583188371621,337.408346296642,-51.4503608881951,1168.01022939359,13.29767422538,548.024599080036,-101.387651021795,2016.39126733025,-265.633428777425,73.4737079454525,-5.99425819628004,2058.44243098172,-385.757768384783,1852.16256915782,-344.446343343838,1179.03638219006,1.00964775151785,1753.34361857852,31.9792353459732,866.348661661913,-117.987091482513
231.131214734375,-50.6721683546712,634.965231973028,-161.301007657817,782.507921267831,-8.31164780218364,4277.6583328561,-425.113770327317,208.56159195227,-22.943906828345,340.569027532495,-51.5146474947276,1179.27224635945,11.8617671785783,551.380871111854,-102.302935404959,2022.53457263856,-266.982301303387,74.0924104507105,-6.04761760420098,2082.61012827001,-391.481483151238,1855.75389836212,-345.29120899686,1197.34573731599,-3.30124469329009,1759.78553884211,30.4659809515028,876.184516886349,-120.5435147843
235.999892744874,-54.3451269356726,634.730142715248,-150.94196204106,792.254259620923,-10.9298971908629,4297.19191826306,-434.116861967187,209.566998512303,-22.9120193899196,343.377886321599,-52.7138948778554,1188.47000845844,10.3901262308734,553.946767791068,-102.878297971274,2031.98570522098,-270.636923837197,74.1615969215383,-6.1676064020288,2083.11677389365,-390.045322134863,1860.84217980805,-347.45062537236,1195.35215779331,-4.61345779288833,1758.07969450416,30.7054084262699,873.007918564872,-120.838512544351
228.860108457425,-52.581430376297,623.21627725618,-148.881720032547,787.852502953846,-10.1954831394357,4274.47556611523,-422.795833937616,202.787458304684,-21.877776058562,342.866402792205,-52.942780708382,1179.46034560566,11.1500063861479,551.312013745741,-102.237683237847,2026.47483498124,-268.539634180187,74.0101446986735,-6.20941987859459,2066.89316389681,-386.596005430547,1857.9235095843,-350.856154232797,1192.6493329728,-4.34885372608846,1754.92317406215,31.7879250297368,870.198852005563,-122.651807656333
231.412730400559,-55.348606807897,644.478455653641,-159.142459252401,790.584452558085,-11.2387080264303,4303.88445292047,-441.04774063804,208.299599830594,-23.1285713828725,340.68633117374,-51.9928057228708,1187.43100056333,9.66620874108862,553.755951257841,-102.934529615372,2031.97692295531,-269.787264248619,74.2979161461619,-6.08293433011381,2090.24078938002,-392.455948657223,1862.51150486786,-350.034595836159,1204.74985538622,-7.07219642871433,1762.53344132347,30.1719943013272,880.357015575649,-124.560453542103
227.263996896614,-50.3455047021412,656.880782818284,-160.535553730395,796.379295136866,-10.216251335617,4315.24848962862,-445.388737076551,214.095182178583,-24.1144406837774,345.134926891346,-52.7971558662294,1201.29364831809,6.79655605019763,558.667382316003,-104.247781216367,2048.57265350604,-272.445069580155,74.9285850897123,-6.1840340987632,2117.28123225058,-400.787759705619,1877.13134581011,-352.698595635094,1222.22018441385,-11.4361412413019,1774.97483130317,28.0330418148929,889.63890928341,-123.399171896743
231.810498477559,-51.2232153641482,656.74677929707,-164.42761341226,796.454690473804,-11.3976364176944,4314.54283291801,-444.130853822543,206.290892620787,-22.5749300003932,346.740401965037,-53.7848410084989,1200.15528198092,6.47178559274415,557.062665474728,-103.68763544866,2051.36145990175,-273.863445566557,74.9547120668034,-6.46502735789819,2099.01773607301,-396.88814765629,1870.89829065366,-349.533936549066,1209.42136955555,-7.55859891852129,1769.96383360216,28.0256806801447,871.426137071597,-120.305147558734
233.395840439448,-54.9306928055833,645.650554074775,-160.725543722401,795.467471392609,-10.5271182330305,4315.18624534748,-446.899922048439,204.949123657272,-22.6574799331244,344.784411933573,-53.2596120055255,1194.64994300856,7.45389486546671,555.605088193972,-103.635267990161,2048.27833824444,-274.576343405684,74.7633725106567,-6.38621373163432,2092.19408927272,-395.089937323905,1871.75165797769,-351.010176379369,1212.61302856324,-10.4425688371371,1769.46829737323,29.5137289633078,879.491844677628,-124.710981485009
232.424499902617,-54.0484972411187,654.241164290443,-162.129712653573,799.65594083773,-11.3444165269741,4329.35869085947,-454.619430557583,211.23668042795,-23.8145420356605,345.730740671739,-53.1208740519482,1206.06907946227,4.90493985893571,558.746522238548,-104.603339460784,2056.28280620213,-276.464364313306,75.3679044594631,-6.4516908460445,2115.90353910064,-400.885977340462,1882.76568450537,-355.606022955644,1220.85641939746,-11.5807223341071,1780.30237283301,26.6117177755472,888.466364326041,-127.769781930289
238.817231116527,-57.8733664548423,657.060862520014,-165.059675563683,810.173106317359,-15.2302678144243,4341.13881069192,-461.2798369745,217.533911066757,-25.1773188519514,348.770879934216,-54.2135340541514,1218.65917141808,2.91444855964344,562.962188007724,-105.505745133929,2068.32190312092,-279.914354255931,75.8863475446475,-6.47199527089337,2149.83840346029,-410.826590494133,1899.63799477997,-357.314554673014,1231.54953470934,-11.6321002483727,1792.54570383938,26.0574378181318,898.873809594034,-127.51418837306
227.751958807192,-48.7997989670752,665.186475698579,-172.578294365881,801.370990987423,-12.2727158734746,4335.48117532822,-457.647422731978,206.584860289338,-22.9294864795061,349.519013580569,-53.8038962088149,1210.08808509091,3.59847539510637,560.404935161595,-105.093906983994,2068.34835321593,-280.019290203266,75.3204395432937,-6.50332402202757,2117.4511921225,-403.343912311662,1890.27586268676,-356.216594104111,1217.84737655488,-10.8544042634988,1783.96999794624,26.4654950240279,876.508660986426,-123.450441061887
234.141370350283,-52.2399996991729,637.609391385609,-154.553472248046,806.940823329076,-13.5185513447814,4337.97812536615,-460.05937691913,207.649246787773,-22.9404388226559,349.11034470598,-54.7343877416175,1209.11975417016,4.14775334531563,560.043781902536,-105.123896412545,2066.09410755186,-278.189375854544,75.6772425724433,-6.48102560978939,2120.09957044999,-403.739828100692,1899.42551019977,-360.114848784435,1219.17994068943,-11.1461263035952,1789.96551698464,25.7394115663175,879.520060306417,-122.61736184635
232.807809280454,-51.9349474706571,660.077657479272,-167.187389069809,814.341402960838,-16.1215956654906,4347.76006040115,-465.610180780165,214.767996457314,-24.6954206613052,350.46161567625,-54.5713820099258,1219.9621286236,1.78155670353501,562.887478450858,-105.737721967659,2080.44843692722,-284.624241143059,76.4292615639955,-6.72065992223388,2152.64452502585,-412.077689465168,1910.02515172542,-360.706999074112,1237.48729563566,-16.2774792805834,1802.48298044455,24.2838551648211,897.127114230276,-130.159504544597
237.502693724371,-56.011364622571,663.064476661489,-168.203559256984,820.249126194831,-17.8166277359907,4370.22261061229,-479.773793697179,220.867936263344,-25.6764938131362,353.98397777169,-55.7900824853828,1231.66573416212,0.272239400918631,567.790707897786,-107.491498088787,2100.84959428758,-287.670945187591,76.8962160993134,-6.73342275030975,2181.05369505327,-420.411803515008,1923.91011598799,-365.313612654774,1244.6249044836,-16.2780541747679,1813.52172506636,21.645587935677,893.923173372919,-126.642539006406
233.84526418668,-53.210595498813,660.929848496185,-167.961482801397,816.724776179048,-16.7964922445039,4362.406819687,-477.063724390338,208.763416092064,-23.2381877925864,351.601186287316,-54.4726539049361,1219.18097205847,1.86392967772451,563.759598359425,-106.234848136113,2090.21913807293,-284.696299151471,75.7832644497474,-6.43559170869807,2147.6747281459,-411.563049122805,1912.89047331698,-361.157303754121,1235.7042416373,-14.3035782716809,1803.78268680723,24.119943626708,884.180597312368,-124.24476371541
238.728490095842,-56.6137497264969,673.320829077887,-175.237847627315,816.736539001102,-15.9332354276056,4363.65858182159,-476.770164429387,213.567548761077,-24.4849945967915,353.308203988613,-55.544227982298,1224.60207970838,0.79209424444374,565.033431711786,-106.17989882795,2093.48746008369,-283.687486606095,76.6192173316121,-6.7868983128359,2156.97492960759,-413.277134718849,1921.67578506181,-365.25931534331,1243.52749720329,-18.0523164428541,1807.94482618643,23.8942270094961,892.114172126334,-126.744360020246
243.980776459546,-54.4403940049783,664.086644755366,-169.381232651505,822.035242000003,-16.7526119914919,4373.68856126853,-482.719190056056,219.424380877504,-25.3498577927512,354.75931196176,-56.039558853435,1235.84297187068,-1.80558134771174,568.850066477811,-107.552879799042,2097.15807900533,-286.827448969817,77.3307291823652,-6.8305386341314,2180.42837627886,-418.091439945886,1929.10000353347,-367.531594532896,1248.43469633041,-16.3657191451132,1815.95506007354,21.5916587082568,906.826172017748,-130.370382559061
248.525438702475,-57.5875627541796,665.305314495062,-170.374448967801,822.389411046479,-16.6650194058721,4374.70961838893,-483.190343054492,210.162829794068,-23.5310735382484,352.48191132583,-55.0645859440678,1229.06577852051,-0.869290158800546,566.404869299011,-106.464260570636,2102.09855414063,-289.577783543827,76.8776337673721,-6.87643824429711,2162.27055157486,-413.998806603336,1924.40536609438,-364.644341112351,1236.5491093135,-14.3358310226617,1810.12606743356,22.2550504630637,888.689436610474,-126.043445674982
235.653651825741,-53.1272093079896,659.819515406477,-158.806516086724,827.18082373485,-19.940395950271,4375.4710178884,-484.054059137767,213.780923871045,-24.4234023903975,354.921554754225,-56.1373938929012,1230.22553454827,-0.527642382678467,567.540403519696,-106.823403793337,2098.57663741057,-284.011615725962,77.0815767907482,-6.8167053295766,2162.57358383839,-412.437772770922,1928.77073378319,-367.232260560895,1239.6528877952,-13.1291868061008,1814.14077284083,21.6926098530372,897.123782167445,-128.787398569284
249.168964106029,-63.467041676464,668.479926174565,-166.754203796653,829.16453087241,-20.5210776252107,4381.37233520707,-486.409034468931,221.150922271976,-26.2073424446467,354.807675400295,-55.428961809003,1240.42740844335,-2.24995505695622,570.729379355159,-108.176985036716,2111.7021343549,-291.384413833485,77.5716569008784,-6.89793448083457,2194.09478630744,-422.744685758883,1934.84475214495,-367.92553019993,1254.65055421789,-17.8782876625909,1823.32260100243,19.8116304882966,909.531150473159,-132.959708755133
246.080324315133,-55.8791111013578,673.559897119773,-170.911452961469,832.895688295159,-18.3979634167156,4399.17366239438,-498.490958484729,215.843401708794,-24.8662360968011,359.057956205215,-57.6054899179358,1243.61111570769,-3.5011127509152,570.226781175974,-107.43990799362,2120.52779310178,-295.199499951735,77.2294508737264,-6.5646438376924,2191.89060352872,-422.962793489082,1929.88306045931,-365.576986344872,1249.13630265897,-17.3374375792847,1819.62609536528,21.5763616487667,895.737734653518,-127.667242457777
243.187213372561,-62.8035453292697,656.269886153093,-168.994844393049,827.70011009324,-17.9027573065903,4386.06193967734,-491.572826801363,211.786040013579,-24.0219996138201,359.718678744731,-57.7588951417981,1235.38117847711,-2.16989045104753,569.717054103327,-108.158156538811,2110.73123099781,-292.485763745944,77.4390967882883,-6.82833578658345,2168.1776609652,-417.095428693557,1929.24162659974,-366.245629577662,1244.94167163588,-15.9541805267103,1816.53572256399,20.6238557153488,889.846309962471,-128.444355684547
245.380518019978,-57.4329001303786,669.818574365774,-166.708023930696,828.860923502662,-16.6094200762247,4393.84088945483,-495.484270741288,218.35155671223,-25.3011862865374,357.528515635514,-56.9775015074958,1241.38426346906,-2.95677218941726,570.917657370389,-108.051934788334,2115.40494649911,-293.888078664085,77.7903196574983,-6.94973888942813,2193.73716253508,-424.293242926286,1930.77472912345,-367.276482800439,1253.55495635196,-18.306812600466,1821.82912292258,20.1685824468737,903.456321485629,-131.213995589486
239.088297673816,-52.6742264549303,673.054234215359,-167.186273304948,837.935560885881,-21.5895087019052,4412.471407093,-508.375570309166,224.103655155005,-26.7073882927071,358.911859960446,-56.8159060368031,1251.78234390186,-4.58124669454644,573.903847780362,-108.929554813775,2125.14394071855,-297.39188579991,78.6007942557491,-7.39921658471658,2213.33562101898,-428.288475997448,1942.33010565713,-368.255533382241,1263.66158979985,-19.5835861448631,1831.56321522441,18.0749152201473,910.97288256393,-129.983581086527
241.893252321292,-57.950882229913,688.18056970631,-180.122262177095,839.393105689343,-21.0803586264412,4402.11775385373,-500.490778347937,215.306986441449,-24.5961447380882,360.060917544352,-56.6201373935408,1247.24985381723,-4.41384827668532,572.357872956866,-108.574583613642,2121.89380679002,-293.356296950514,77.7668387968324,-7.01935121684889,2194.01091372544,-424.266831812558,1930.63823374642,-366.955069247024,1253.99405979489,-18.441615697545,1820.41952179752,19.2001186502678,896.49287463621,-129.538711705276
237.420515658538,-51.6662696117115,673.875192124571,-166.32051795966,831.891332463087,-18.0586758209184,4399.82915678209,-500.627302891162,214.236679433721,-24.6773016335471,359.01312495735,-57.1980061628913,1242.39990636908,-3.8987473194083,570.876970691652,-107.924490828028,2113.55939844508,-291.087669775749,77.7777071051245,-7.01336680071042,2179.05022800816,-419.692641484282,1932.03434631158,-370.225901738463,1254.31839184685,-20.9470910844189,1819.62151275171,20.0826176200096,897.131536760314,-129.426634436893
244.768140265125,-58.5905223224253,668.701508183272,-171.872937871147,841.677901182102,-20.866033950985,4408.07510546248,-505.02015902309,221.27674724431,-26.3522390433789,358.546585573672,-57.4319809916442,1248.30463567132,-4.28534147447611,573.570440170078,-109.126280088142,2122.12478883796,-292.826471129548,78.0019754230056,-6.87359872772767,2202.78798747963,-425.830136225855,1932.58065213778,-366.186823782787,1259.27532427991,-20.1859898608254,1828.04378520883,19.1789682899221,913.892061072482,-134.210471058529
241.013643361038,-56.8838563818648,675.257825130012,-170.842574654095,845.663534104987,-22.4540689981091,4422.05912810065,-513.48570214265,227.144883745046,-27.517240831241,362.196826702794,-57.9138656356384,1259.71247438825,-6.85640430153395,576.252593223378,-109.444239141388,2138.74371398299,-295.976881312248,78.6702346143682,-7.0344155966208,2228.56755484464,-430.701124466948,1953.74860836987,-374.908313872236,1272.3955060467,-22.8459967131604,1840.35099086594,17.3340245714735,908.981627441102,-130.813651228097
246.955934095729,-58.2507878453363,679.915341555145,-171.152569747977,838.093083613401,-20.5586188263081,4401.41107003844,-499.794682979796,214.391545974853,-24.5796709612405,361.229372212101,-57.3970652726145,1248.1609338454,-5.95335896006962,573.316497627981,-109.175886284466,2129.57957052304,-295.014397422854,77.9983924078975,-7.15800627786347,2192.07811164608,-422.783013255522,1938.24849608176,-372.724500187311,1251.63324038318,-18.196612371705,1828.27413032452,19.4389759770512,898.059555325251,-127.308025457798
247.329598075689,-62.1362588757846,676.487123384226,-169.932911039939,840.054530107233,-21.1567741942748,4409.77570582139,-505.073502322051,219.621257289191,-25.9269441370341,360.174562700026,-58.0126330808379,1250.07821291884,-6.03876204253995,573.01556171924,-108.927157011901,2127.90646311191,-297.012546116478,78.2189579623618,-7.16286732082486,2193.79553444122,-424.243692892418,1936.55512818728,-369.510689320763,1256.26561439112,-18.3404617187353,1829.91433939584,19.2732065429209,904.772800452169,-129.572320722218
241.408693987349,-57.7214925334636,674.530308315288,-173.993837142497,845.426378540801,-22.6871871620504,4424.06201220475,-515.629697468382,225.049916089998,-27.007174330843,362.605134015198,-58.0850663178812,1257.27707357433,-7.16024620763314,575.111151717575,-109.452767779642,2128.38174426223,-295.521697552822,78.6200340718352,-7.14776858546549,2215.30959061335,-429.387492396994,1942.52280568724,-373.780199356073,1269.00397033127,-25.7647342594218,1832.72873624872,17.3391924932867,915.565799098626,-133.714797168712
242.637806875183,-57.3405690620955,676.798053923125,-171.028456628043,841.135518779373,-19.4835652045467,4407.2434237452,-504.474752846999,214.367446337338,-24.4411323274945,361.733686492839,-59.566129004349,1247.21047262355,-5.80279096277364,572.702678115088,-109.173775324481,2118.56777879777,-294.479319256269,77.7282067676368,-6.89626768951625,2178.95691558146,-421.451225671052,1922.61489788049,-367.683404898495,1246.02788036561,-16.2309514366755,1817.62924109574,20.0614055482442,898.277679154191,-128.838916510738
238.411898277435,-53.1242649222774,673.196632523227,-170.596489792375,845.485468312467,-24.443520830933,4409.98911258478,-506.445915360992,218.405397594623,-25.12385010601,361.109077953763,-58.1100187011682,1248.12087473418,-5.54646910538165,572.14110642145,-108.522519629499,2117.89777078425,-294.446528336179,77.8632872006692,-7.06627276940966,2185.67225924444,-423.031352702817,1923.91996714575,-367.027452646478,1253.26218530121,-19.5092592675506,1820.66913293992,19.9788733508379,909.484721398466,-132.367238950175
247.234047263957,-58.2236570294643,670.005020187738,-164.112285184938,843.103419517157,-22.8137982404214,4418.60234937103,-511.131103834277,224.219747472982,-26.9035396106336,362.314487399205,-58.9347301825692,1255.27791995538,-6.8296456615214,574.894120911345,-109.199418498555,2124.06215905406,-298.388957003104,78.2221207595559,-6.97558192576874,2202.93071997028,-427.103839177764,1928.27120476532,-366.548393721587,1257.72234920367,-19.1087372473164,1824.83015627629,17.3037739611923,910.158868687535,-132.550309301584
238.202636631047,-56.523487410401,672.554169673657,-175.256289467523,836.722189967148,-20.3502486401133,4401.82488624018,-500.572179933334,211.829174778772,-24.0376714876305,359.723327915136,-58.7269471675175,1241.18964956913,-5.51601424042037,569.936130626645,-108.165602703397,2113.50888276354,-294.40996781153,77.4459913330178,-6.9877238992999,2157.97535051749,-416.647667860197,1915.5817869398,-366.905213519425,1234.76801074076,-15.7989100094321,1809.51919959285,20.5227732290069,894.985294042274,-128.038176387895
236.495829469653,-53.1495764871298,677.915950846823,-174.804613939424,838.206930343479,-22.8721262199849,4408.90825911013,-507.35890484482,216.415072112846,-25.1192685430259,358.452972910371,-57.7216044714073,1241.20472762569,-5.45397077611183,570.077081922419,-108.21253652581,2108.36948501194,-294.5252057625,77.3449554330415,-6.95980371323527,2159.63920031173,-416.206628813845,1911.0038474884,-363.806387684459,1236.37014799136,-15.5171616300007,1809.09118767171,21.503918995427,900.180601699948,-127.870809098697
249.918378969856,-64.2624575169689,683.59964093386,-172.975582617522,843.609970674247,-24.1679088337277,4410.40436729402,-506.650589764607,221.572988740142,-26.0057332235927,359.624548274471,-58.5977047432749,1247.03413611972,-6.22919806309626,571.751168491588,-108.456169446906,2111.08751370071,-294.911512725371,78.225774198165,-7.18108123544348,2177.67121187099,-420.386111589796,1916.67622520655,-364.652654951274,1242.01825367012,-13.7226529494875,1816.92079888499,19.045718316456,910.482963438982,-131.380794965089
242.386425375347,-57.6552009117314,670.072089397862,-166.741361092679,836.199164916478,-21.7392105354634,4399.55441596238,-500.692518651686,210.197701080703,-23.7293862588872,357.277337397158,-58.0639654266557,1234.49985131473,-4.53277750456986,567.828225578963,-107.871151597198,2099.5925431711,-292.761090266528,77.2059517609731,-7.0286940279927,2140.77897416717,-412.537218505773,1898.69029249077,-360.715708849135,1223.24047295443,-13.1051186487359,1800.4367886322,21.9413208005834,895.111404007856,-127.512728154354
241.739564365531,-54.7193977224141,671.329177414811,-174.358623803696,836.170232824548,-22.9242481696004,4398.56653708676,-501.604351190304,214.036482145512,-24.4825460795269,356.704277472426,-57.5025596798842,1232.00401974777,-3.54225547553541,567.216883523827,-107.353606212608,2094.03068749349,-287.263588860618,76.6667615873754,-6.74365526210328,2137.79608033406,-408.561108999699,1901.12674757271,-361.399606817212,1221.95530310102,-8.23295048185083,1805.82855991013,21.4148975418706,899.69564997313,-128.153942124869
246.598834423496,-63.4474192367795,659.912612578272,-164.187742053064,834.610637271109,-21.104593098606,4413.51056959903,-510.590073348513,220.355899786295,-25.9194055395584,357.93086385543,-57.8815957595232,1238.93690272806,-4.44224535102358,569.691275808182,-107.967193459917,2103.98009432169,-293.19226067637,77.5617514106512,-6.97713556177917,2162.34915763297,-415.325063970595,1912.27636419821,-364.708292711231,1232.09462616468,-11.4631788481359,1814.80931739542,20.521386906538,908.749707876112,-129.764112179593
244.365635355205,-59.2460858468503,659.739618645635,-162.067130209419,831.772898773016,-21.8188335869704,4392.95699579633,-496.417505096821,210.87395171981,-23.8610897667101,353.883917081235,-55.7521317974504,1228.73230198637,-3.20726095885346,565.746907616941,-107.135859136006,2098.4334199669,-292.373359359107,76.6842178249589,-6.83603361948034,2126.46147708627,-404.622453689923,1903.90395402756,-362.609863601988,1212.63956844596,-7.31902169879249,1804.3649733511,22.3875861131936,890.42606720206,-126.981077189537
237.174416821313,-55.9384803687184,667.489713525099,-168.291591156815,833.9527468503,-22.6895842768094,4386.3101415095,-491.956150741012,213.542029845164,-24.2581920962611,352.631490782707,-55.7576667939248,1227.10574731586,-3.60058853639885,565.31202198299,-106.888120449546,2095.49061590515,-291.032243054835,77.2318014666603,-7.02642465057698,2127.53805726537,-406.393464084352,1905.68560792292,-363.829914207523,1214.6290666035,-8.15853935674077,1807.05569909892,21.3459688896836,897.116727935856,-125.658711170354
237.014126121949,-52.952375160645,668.456491723448,-161.980905793015,835.474451280087,-23.5016740922484,4400.14583703261,-500.714125813855,219.910856862927,-25.788664533511,355.067210534031,-56.3532504169867,1234.03327020829,-4.71319832605669,568.065440723631,-107.790352163447,2107.77205210396,-296.676201647663,77.565526631638,-7.23827020071202,2149.41702943436,-411.076513069416,1914.85426165757,-365.046784217408,1222.1301216279,-8.97986314345298,1814.70303320436,20.2373734771334,906.023558465373,-129.790209705408
232.495096840353,-57.5847568291517,655.736086474725,-163.232012653648,831.696069971423,-21.9260157533564,4382.40514057463,-490.02468970064,208.867003161618,-23.2172385188143,354.720278391792,-57.1053326017118,1220.06474525142,-1.77514147923705,564.500383990029,-106.876076362173,2085.77028915404,-287.093985305371,76.8328555835668,-6.87187031448265,2114.46025747412,-400.552902417374,1904.39337414145,-361.713205138131,1210.15788944995,-5.97369076717105,1803.34042882123,22.4443248485678,892.424519896405,-127.041641770695
228.921361805318,-50.0158332121942,672.030095391362,-170.992434674253,833.995222300699,-23.267376406439,4385.37291689501,-491.406812954575,214.128624921718,-24.5063408684631,356.549289228454,-58.2819860898911,1223.39568010839,-2.86736559035501,565.752481952791,-107.075322136941,2089.60740493456,-289.485864502215,77.1440492309189,-6.93882199251944,2121.11051565412,-404.049665472073,1908.0434670731,-363.340660337645,1215.29447848463,-8.04933274969985,1806.57312501511,21.4797674394428,906.438801955422,-131.456915490053
246.356209245314,-61.4439565877138,662.248798529341,-162.063937897636,837.376255482938,-23.0502847834304,4401.06563099592,-501.644540984955,219.583759992329,-25.2562148225598,358.698079423508,-58.6430721297818,1231.83357500906,-4.31061628030673,569.128534284978,-108.537915567956,2109.95813961876,-296.637641400284,77.4053954620976,-7.05911099274241,2144.14793179251,-409.384563410926,1916.76196619571,-366.114145479202,1218.86231087167,-6.22371859512294,1815.20544645561,19.7414973711876,902.60586362976,-129.41752406111
229.535940853905,-54.8701068517847,660.691057826209,-167.644430564329,830.838054396771,-22.0615234405687,4375.6979740996,-485.252886432373,207.048270391418,-22.9039932702981,354.705790812192,-56.5371868507355,1216.27073515575,-1.95603809834361,564.369094439769,-106.995440760832,2092.70329273797,-293.591467593362,76.6282791249571,-6.74385839633068,2099.81199969548,-398.773059018096,1907.76360947092,-364.18321044713,1203.46242450001,-5.6775962892164,1804.00875698718,21.8801169982383,899.360877523166,-130.447747650907
238.428600139393,-55.2050178662489,668.940344357534,-173.090442679985,836.187508353368,-24.7158317532003,4389.21679497311,-495.503133845337,211.353477117269,-23.7994602054314,356.990869254511,-59.418704347598,1218.48763327191,-1.68405336503326,564.636989527575,-106.599230313238,2093.32968709166,-292.198584276715,76.9602661480599,-6.76091812680888,2112.38971502219,-402.608933384821,1914.03394179821,-365.689593575379,1208.93162039619,-2.81915847614295,1810.7791376039,20.6883594402935,906.545652385566,-131.582948675361
241.553061105236,-60.6624094769548,675.821125681396,-173.903741495042,840.94670648435,-24.3679582353016,4394.40499879939,-496.538682447415,217.855271061403,-25.3836165200393,357.083254049998,-57.3561715521393,1228.54998076648,-3.9027265689585,568.814697504139,-108.447706247866,2105.7500753617,-297.66006565825,77.544395998537,-6.83821765325422,2134.73920545513,-404.660553101062,1923.21860856496,-367.915887654067,1222.42841207835,-6.78191641866901,1819.12563709904,18.4422939511244,911.933746555596,-133.401807101824
235.786910965828,-55.8690132157781,670.371178410545,-172.851795879679,832.951954583804,-21.4961188966062,4382.52502490122,-490.763083130354,204.47561801858,-22.138569050264,356.411281920924,-57.4042827044742,1214.33943687584,-1.90973603701066,564.95335134048,-107.383740698083,2094.28958590166,-292.286760653259,76.6280374415792,-6.72378955265293,2090.8761285418,-395.444314839126,1909.43974598603,-362.59657625953,1203.89917907325,-4.57291131428824,1808.36830753365,19.9947315473525,898.33655847574,-131.24757810684
243.898850328706,-60.3336469326779,663.461543490846,-168.260529765605,836.835176885837,-23.0549641200403,4389.40738325437,-494.921231306707,209.305944810772,-23.2664125436605,356.832734978237,-57.2944865307853,1217.6678407076,-1.83438823512887,566.10126320312,-107.987513699243,2100.07914595059,-295.564014148821,76.8570267843164,-6.64183157214682,2111.37487056058,-401.342942645247,1919.08077725391,-366.353504689125,1207.95487887089,-3.03065035694376,1814.50432157542,19.7859896664576,902.657376974906,-129.508789557812
239.078475803152,-52.8524251289177,666.260405832795,-165.946410627308,841.576414399941,-23.3975464456051,4399.48452964354,-499.502275512127,217.162895594605,-24.8259601691055,359.202234675725,-57.6886091532713,1229.76543466157,-3.85717105999409,570.635930837593,-109.182834293033,2116.2071178106,-298.387564701766,77.7189674704233,-6.92371453193152,2137.19119592457,-407.22261150054,1935.20210770167,-369.202106008405,1225.50376907013,-8.22817780987619,1829.99649299096,17.1208957185899,916.16199723578,-135.518659569399
244.804423459128,-59.8715254478464,679.644594934351,-178.352757049662,851.881407712551,-25.6788419015412,4420.39230898927,-513.835475227694,220.057177304441,-25.879322112218,360.64755038453,-58.2627974749506,1239.95758784495,-6.02692490668164,572.868780542031,-109.527933442378,2134.13013468326,-303.647612022217,77.910834744753,-6.99968782363576,2148.15743855019,-409.59826240137,1945.64289880111,-374.893184198146,1222.27744056407,-6.41931709468072,1835.88424881217,16.2504247414488,906.519717617483,-131.554668360163
244.951331854047,-58.4221654610664,665.451247718524,-166.674369846973,844.193436057054,-23.6324403508256,4400.54409257169,-501.516202983811,208.438663864884,-23.2446032895484,358.12997589484,-57.6067808754726,1227.06065422765,-4.04691260688964,568.869408488136,-108.23497890432,2127.65031339566,-300.708758093821,77.272908919544,-6.71821685823713,2123.22360537166,-404.836403597249,1937.08722178614,-371.964832883476,1215.95030447785,-7.82994851696549,1832.28596256824,17.4198738942199,906.927407326716,-133.895660287152
242.72950490847,-55.3778086420883,667.901125812838,-166.294522864358,848.703735118307,-24.4060346968509,4410.01495166777,-507.501492637943,214.915515881564,-24.61183842497,359.669968894269,-58.1994298044057,1234.37971718186,-5.0408194792787,571.247693944993,-109.095463126196,2134.03864268818,-301.701091795012,77.8190419320113,-6.94529938407153,2139.11635925842,-405.204751178141,1944.85969745962,-371.311184706501,1223.12181063488,-6.96622206034284,1841.70832855141,16.1953904427205,910.470202297126,-133.173073618914
