256.402248781501,-62.5471338179126,699.827578896554,-178.198048043409,856.723273670413,-28.0533565230133,4485.84965812635,-562.622934305634,228.686906994326,-30.026971300118,373.052051572659,-65.6733279750031,1302.1526440945,-33.6864090491822,585.143458261121,-115.550668330706,2142.55096492546,-320.021655171245,81.0493446380434,-8.21061567001266,2263.25482443872,-455.327364813502,1960.18686193204,-379.490292854872,1311.18384096866,-46.4468016362499,1867.62173548751,0.127411144758153,961.406962263563,-154.445818663494
247.615732776702,-59.7118893434614,712.53040751533,-188.713866970535,861.820688590755,-30.4353341980266,4499.94724329539,-571.398026491378,232.141137319877,-30.9012618328732,371.529114405733,-62.7552606437657,1306.68510761081,-34.9415877101904,586.177362453751,-115.589388713748,2147.54215363639,-319.728416454484,81.1480991143353,-8.20586069311096,2263.1070685373,-452.619880560106,1957.82412817497,-380.495476311515,1310.19974118136,-45.7357417778529,1863.76861276589,1.63109043903255,952.533295548762,-151.687254215895
247.882493569293,-59.1812776353291,707.689851322722,-186.034600286495,852.113249926162,-28.6578246557599,4466.96779057972,-550.035159786672,220.662774227379,-28.0461933615201,370.795216022849,-63.6821226146035,1291.59703865795,-31.5759578543819,581.353061009927,-114.51746030225,2128.57730489841,-314.678918578295,80.3044991749506,-7.94839855741162,2239.8678546633,-450.247021708911,1942.47661627331,-377.146736975496,1298.49236841182,-44.5648743359969,1849.2699070317,3.34885292872106,944.667641935261,-151.250525919443
248.987831216731,-61.9754765616765,714.297090520058,-188.142180219157,849.67953214936,-26.5595354735098,4465.88031063041,-548.990321955194,224.150395293704,-28.984474720533,368.414149375765,-63.1514918159748,1290.02659281849,-31.5369015500411,580.896298152333,-114.22724229522,2127.3297889508,-316.706331684289,80.3615448665129,-7.97563190439056,2238.32381057507,-448.290474148094,1946.06844242384,-377.374963008404,1302.42726876302,-46.5207807916233,1851.91818468869,3.51639806799508,949.070900700056,-150.023412899704
250.799562851276,-60.4182699785169,713.425383106249,-189.395350270924,850.239988158323,-26.5016407784442,4478.47659225821,-557.076736522283,229.037166767354,-30.2444225369393,370.098959460212,-64.5733395758918,1295.13095836095,-32.7601968625747,582.615652919596,-114.837827245915,2134.28799635326,-318.780579951465,80.5824276539279,-8.00797332736448,2258.02850866406,-453.925707722317,1953.83809563542,-380.086758028861,1312.40498750975,-48.719266337009,1859.42264306249,2.18417303106953,968.183907681657,-158.255703114702
251.121800162739,-60.5451758807016,716.542271672864,-183.78796989704,850.915348238443,-28.2210208543379,4474.63806674623,-554.911723915057,222.542456269148,-28.6567581351236,369.955713764285,-63.8274023746984,1292.90397603462,-31.9403580272907,580.855995868994,-114.459102429018,2130.96846415659,-316.814860419045,80.0463146830321,-7.95503327574118,2238.47040337742,-447.102167412158,1943.30422877867,-375.52822228618,1296.34567282777,-44.692368194624,1848.60877886269,2.97460211234391,953.273004099164,-156.814985592661
253.363173809327,-64.756189961252,699.48318258499,-183.600405650186,845.581584981969,-26.9289857435984,4457.45576884219,-542.950491154787,221.408065478759,-28.7198527168102,366.82355013106,-63.3538469511017,1283.82089932141,-30.8096063061499,577.829114210446,-113.598004169182,2115.6348100493,-314.656196827665,80.1205433543793,-7.98594621520184,2224.72965133889,-444.001129961082,1930.43789020541,-374.313479135801,1293.7050795082,-43.8707434903046,1839.7355104812,3.57452913314464,950.819514912727,-153.736014391609
247.975240839968,-57.5045108178722,707.861711743993,-191.577811381562,846.3063643226,-27.4403106262415,4470.26894385668,-552.655385536572,226.809220286904,-29.8348409492407,366.899440307793,-62.3057666759874,1287.62367660855,-31.2897610870647,578.783746249691,-113.815511301998,2116.26653412909,-315.123166400814,80.3061323523259,-7.98907993557177,2235.95747666784,-446.677324719481,1937.37198782727,-377.004716334765,1297.35589837763,-44.0871662645533,1843.08608465064,3.08618236652479,961.727308853812,-156.843449348977
242.145406273118,-55.1365577825078,705.407914326658,-184.163149309693,848.487436192913,-25.5157463195697,4478.53693599947,-557.611336752201,231.362718513337,-30.8605311026391,368.659364108688,-63.1571933669244,1293.45527587113,-31.7234875634955,581.232505012256,-114.311802575144,2122.24863671883,-315.92192980677,80.5805959885093,-8.03094903546962,2255.1370972585,-452.05839844234,1941.97104622081,-380.462950843544,1305.41508041176,-47.1178773529716,1843.51685468449,3.28252189040986,959.901907587562,-159.181264523568
252.03384065802,-66.3369529897888,705.510856963069,-178.77445356194,838.137127055133,-25.3059919797591,4454.8413319809,-543.196380131604,219.837013819416,-28.0042675476366,365.741507384408,-63.3018597190741,1279.72554991696,-30.7404266955331,575.350955441239,-112.598535508913,2104.46763052891,-309.718426002527,79.6768455395121,-8.00293887048547,2214.42126239801,-444.061613715205,1923.62791293135,-373.611789983863,1288.06817673168,-47.0386419569648,1827.57690534391,6.67235284018837,946.369643764619,-154.21185402474
250.198732898778,-63.3512314379157,694.87461115269,-178.22807074379,839.124108237758,-26.6428493747125,4451.08872914466,-539.894435963782,222.423630555194,-28.8131938486261,363.649937349187,-61.4871069589254,1276.70649546463,-29.0155542573268,574.512605444612,-112.819694422545,2102.54053662986,-310.797535868121,79.5794143368368,-8.01069178138766,2206.7707526987,-437.754587747197,1919.58984593979,-371.220578962426,1290.13007703542,-45.6326416520898,1827.03662392303,5.42634548311206,950.877042778105,-154.478319495056
249.475957245143,-59.728249005844,682.919931749686,-170.943640134381,842.07639711814,-25.9005811353072,4462.96250464904,-547.679958241835,227.717269481508,-30.2833515074759,366.67630598173,-62.6614795701583,1282.62813906414,-30.8181491229002,576.96786734906,-113.507363222942,2107.1651666159,-311.338855658318,79.7228376152874,-7.82502109894188,2224.80894549831,-445.018907054273,1925.27082764976,-373.167953261373,1292.80968486159,-44.5311281843566,1833.89028642714,5.21894022787925,962.305831632913,-156.323103428453
240.318399474598,-59.2236119328783,690.281289143082,-169.492214248531,845.558449910299,-26.7809968794544,4472.55090237782,-553.705406527111,231.402814548632,-31.0471408378086,366.071072209481,-63.6755981263305,1288.31544574285,-32.0597734140041,577.939780837748,-113.385063057536,2116.12465048958,-314.487059154576,80.0712534748576,-8.01995143019676,2235.43119833473,-445.135745507186,1935.28045309053,-375.616078049246,1293.34222289738,-45.1569454819781,1833.65858856983,5.19919503109935,949.849205476256,-153.91370555499
245.656672479404,-56.7743695589183,699.88437794467,-187.420336281317,834.303026642665,-24.6789228030178,4444.36751151717,-536.524418731356,216.762810485685,-27.3769331574045,360.211587075681,-61.004357899343,1269.46598176226,-28.6177964449802,571.964231494677,-112.087778079478,2091.79275083508,-307.233704551973,78.6826169952125,-7.69151501343116,2189.65172075348,-435.019375009364,1907.4817463459,-366.81546545486,1272.29008962706,-44.8904263189036,1816.02906785955,8.2122089524536,936.991348208874,-150.977876907208
241.783026576051,-59.0854848233271,685.140963248881,-176.751764692762,828.804352432819,-23.0378919856589,4447.22771364173,-540.136809307425,219.965030132901,-28.2009140222838,361.677395587247,-61.6438531073439,1264.7295335487,-28.1433665046543,570.213710685432,-111.437278752746,2087.35062594913,-307.28920696003,78.8507489757583,-7.74721469124989,2185.55622211822,-432.904235193584,1915.8372022706,-369.678268592459,1270.82489210271,-41.8408494316938,1814.03919084151,8.68709744144408,939.794631443153,-151.912361138735
249.290012994367,-63.0008513510673,694.008469257483,-183.343685128602,831.827204200033,-24.6368767574986,4436.80648799073,-529.659645928706,224.285760578182,-29.4396996148085,359.702067584882,-61.0053118994307,1266.89461082012,-28.0199506006464,571.085634974375,-111.406124506183,2091.79192946709,-307.253996617037,78.7097467519153,-7.78994268083411,2202.80291097923,-440.003943893553,1918.75426859816,-371.975695731705,1279.5272586316,-45.1557781134455,1822.61339838683,6.97614696409184,955.605302822427,-156.830416805645
252.141814470535,-63.5703945324701,710.709156675009,-188.452550944601,832.937138152993,-24.8480986445942,4450.4747891515,-539.199312229281,228.756862086897,-30.3091329218898,362.306481752033,-62.4872319459055,1273.87710838385,-29.6410729820283,573.431144524595,-112.585135193825,2100.55074456222,-310.014238723558,79.4880719367532,-7.86092977707981,2218.071068029,-441.372981561771,1932.68986678026,-374.726740580408,1282.41700052893,-41.6849512797403,1830.00583362599,6.11492969625736,950.656337240458,-153.805981300914
243.947740683,-59.9138726623498,678.160027721337,-172.530607799994,824.625985419139,-21.3659125993232,4432.86639560545,-529.455392510686,215.241336665672,-27.24599065311,359.453983971435,-61.643599534035,1257.77512027076,-27.2058057949879,566.900981137831,-110.382887232664,2083.99707455832,-304.426051506091,78.0960169452779,-7.750516644933,2172.97911175463,-430.085452065352,1912.69846130913,-368.304885042226,1256.95789334237,-38.4665726287324,1812.06737371414,8.85353341351905,931.497784689583,-149.379448454654
229.383192495519,-53.4444172968371,669.866012219048,-171.945664315187,818.233506593448,-21.2704071328983,4422.06361316375,-522.037269620028,217.583672212232,-27.5208007244934,355.257928505839,-60.1471396453461,1252.12716888816,-26.2437749091618,565.506146195831,-110.195746894533,2080.39937563185,-305.8589202975,77.9451620951864,-7.51113563678013,2174.20537101829,-429.398904891317,1915.89150779569,-370.848099755302,1259.29855019674,-38.2050151814709,1814.53841576953,8.46936426130611,934.947912590915,-150.151009560736
242.194736510887,-60.0929326932288,686.749621689465,-181.176985796541,822.771150579286,-24.1133516983305,4430.35449286038,-527.447169352073,222.442639528998,-28.7017173292486,357.699213139369,-60.8185568679331,1256.10849680403,-26.9054992424357,566.769919741391,-110.597447692198,2085.70352809535,-306.665562008079,78.7116841616507,-7.77612709939981,2191.85052779211,-435.109700977215,1928.08576125546,-373.120775973226,1270.23041570722,-40.374103040124,1824.60936510962,6.86091754436538,942.765465659037,-151.342193478868
245.176602768907,-59.2219014562096,682.680602668906,-174.178156767394,825.771574439547,-24.3043809868519,4441.32430256943,-534.377624254875,227.130457119496,-29.918621957189,357.268430803592,-60.5017822292439,1263.16720387867,-27.9078248697313,569.082713005552,-111.330221016308,2099.15773812355,-311.527030785867,79.3992201368022,-8.01557109279633,2207.02103615593,-438.591333675439,1937.78192348509,-376.334691421516,1277.15190897715,-42.4554425938893,1835.65113160859,4.32664907573492,954.597084975254,-153.31058291544
249.365919162851,-60.6951741243662,695.853996163956,-187.589642608305,822.484590810772,-22.4873231300997,4421.80052219243,-520.290511905238,218.020842154647,-27.9410573566716,357.450572994513,-61.2752092572564,1254.64539225458,-26.4540981795766,566.47628528932,-110.679696877207,2095.19375146637,-308.875577615382,78.6328835305241,-7.78637024506564,2185.24034014774,-434.363129416452,1934.41118923791,-377.496963208501,1258.20245805879,-38.0856020336742,1823.7810235248,6.54505173836061,931.345234334631,-149.71059553703
236.305326880136,-57.2004527416014,672.627581853981,-174.67846211397,816.976219453652,-21.1471687392464,4414.46737715563,-517.559667668822,215.83100993197,-27.0430988234577,355.160065380884,-61.0275303519421,1245.94972288229,-25.5225006183038,564.112537546532,-109.696272548943,2079.30911220957,-305.097534580768,77.9225479223799,-7.56261857523394,2177.73283019865,-434.022292965245,1926.34150017704,-372.737312679508,1254.65574426122,-36.1120428105519,1823.08423400837,7.07512443567861,935.145178525183,-148.956514107815
236.776675792868,-51.9583543513017,678.377366145165,-175.955001735544,819.05570554808,-20.9042379957834,4419.26055992551,-520.362492929312,221.37185265006,-28.1811996410163,355.363445888647,-60.3183497350304,1249.71630801952,-25.7354420026133,565.04085944978,-110.256793228815,2088.28588809813,-307.195319411289,78.2596812325256,-7.60214604191705,2186.1377780249,-432.214816973333,1940.83860412853,-377.881325686754,1263.298376677,-38.4765990298885,1829.55097621602,6.51147908767053,945.912412667982,-151.984741566599
242.620401320223,-59.2700832815752,679.971232287191,-172.894928956302,821.841014333128,-22.4855190621666,4439.91526952673,-534.802015575802,225.783365504802,-29.104626843733,356.788078648918,-61.067412772459,1257.20857137956,-27.0535126564075,568.129173703025,-110.904993457821,2096.63202718049,-308.082543341283,78.9271486584757,-7.75810323116576,2216.6761727254,-443.84579277617,1947.98429344827,-377.862720785943,1275.45523426838,-40.1991251593347,1845.12203218709,3.68888367061971,952.454006732993,-152.060224959214
246.697399009912,-62.3327674456218,690.462884042363,-179.58549330096,822.712030210302,-21.9369584530617,4433.08337526497,-528.355979586969,219.724449242223,-27.9509215002219,355.301412304482,-60.1498030203107,1256.38043412663,-26.3736911084469,567.287918112582,-110.623881044783,2104.49541496259,-310.452425374296,78.6187793130758,-7.72490073719834,2200.0245234096,-436.590882281382,1950.94525593333,-378.727056664949,1265.67199808721,-38.8063595213349,1842.90683219424,5.32036103479208,938.453234086542,-149.972768074003
231.439558424896,-53.7761122163249,676.042867614545,-170.923492926882,818.379168361789,-23.6358384162265,4414.68001694616,-517.184987985269,217.180811853505,-27.2989699682618,351.549540686526,-58.1908320443152,1247.74891016438,-24.7926739674769,564.953818412871,-109.923433874498,2095.82255145251,-305.590437262977,78.3172982411474,-7.54708030648587,2186.55001227897,-434.658916355699,1945.40675949647,-378.308530635508,1259.83292112213,-37.5519251137866,1838.74642909586,6.47865380050134,935.228181600953,-148.73185767798
240.847493930099,-59.2258574433857,684.825833221466,-174.794080952187,821.381532353099,-23.7095733761489,4426.57064489623,-525.279470283567,222.403595363632,-28.7020336187839,354.774009934513,-60.0717092829716,1251.37305396038,-25.8258310078788,566.31029192228,-110.129931950179,2098.69890768489,-306.86571302243,78.5346757497874,-7.6117527912248,2200.13997803878,-438.113637476314,1942.40024028153,-373.597252029447,1266.11204694111,-37.0279828100005,1844.22831453998,5.70545230852912,947.395300588945,-152.424830056566
244.566524091397,-58.5253245627598,691.704632746597,-178.749234493621,821.901649008771,-22.735768959769,4440.79113927214,-533.728690681419,226.742806617366,-29.4450124610112,356.140354503846,-60.2250687524594,1257.81603185317,-26.357157345653,569.789883362532,-111.256805579888,2110.58937045784,-312.171438388761,79.2583224302908,-7.82523295839785,2218.25544952109,-443.414205465104,1957.61455619356,-382.103664987342,1273.06952561891,-38.7791070712015,1850.91164742548,4.16858018916129,959.696235188821,-157.227276242697
240.570194489194,-57.3872183021789,689.993608923491,-179.349518214919,816.960070663945,-20.9684363910996,4430.59515215547,-527.901096443578,216.528572454441,-27.0410712984711,355.662735724054,-60.026361780375,1250.47121597787,-25.3058414686378,566.695600136802,-110.361623578,2104.51384932308,-310.038404302649,78.3814450744918,-7.51489730094299,2186.72823627077,-432.623815143925,1947.19364458696,-380.376592265055,1261.72512458059,-38.9951971922228,1838.86551492774,6.60059856954413,936.436484664482,-151.303777984833
239.26728352512,-55.3404818171077,697.69640953554,-184.872473308456,815.092687909565,-21.7577008154451,4420.15412740448,-520.106445483838,218.0917887113,-27.6748675384419,352.407070998185,-57.8538376068166,1248.39793019405,-25.0539143998061,566.17623251004,-110.29612874047,2096.59378875313,-308.286616831117,78.1406921986524,-7.51683702831719,2186.89765043615,-433.362864221134,1942.38571594732,-377.405583887204,1256.65963044483,-35.4202113132836,1838.55880905699,6.04025205189771,938.306705041199,-149.446754896648
242.125631698906,-56.8967051254573,671.853284646949,-162.689870854953,819.635324778612,-22.104986272009,4436.93482969254,-532.155908811298,223.440420015686,-28.6844241989064,353.8850205955,-59.6648853316631,1253.88533757292,-25.5608550870726,568.57591100034,-110.753543667114,2098.66806194147,-307.048490630433,78.2521199930817,-7.47019168377302,2198.1629251805,-433.686491746899,1946.102858899,-379.241840767617,1268.25531327907,-38.8357298104097,1844.43325689791,5.35356997038907,948.824341958232,-151.745591460947
243.641860622754,-59.7430758563311,699.437391806552,-182.305826253297,826.175040049066,-22.6804988991465,4444.07492494281,-535.869911898505,228.034988367384,-29.785371357277,359.843000110682,-62.1071783659488,1262.79304620087,-26.9144807745845,571.461540419074,-111.598863169089,2112.12751480522,-311.850475300562,79.5000051428312,-7.9424236844919,2218.23067007943,-440.216599033237,1956.0975620379,-382.494468936354,1269.09752922273,-34.7296177335167,1848.00929762771,4.43468174245914,948.34975153855,-151.643587462879
247.272726430588,-57.7910852301339,687.009887110094,-181.342508261597,815.102856570989,-21.0759367224621,4430.01063047986,-529.08079713555,214.869651963036,-26.9818883458132,355.070755052725,-59.6585464265537,1248.76443219817,-24.6269442495779,567.686831319695,-110.473659329996,2090.69063183007,-303.377994535775,77.6992888625929,-7.28563210465166,2178.44864101181,-429.921075479904,1931.66001018599,-372.280923963468,1252.94072507629,-34.8719186562582,1834.54560853457,5.94158586800361,931.576347453178,-149.178763872433
244.182637012982,-59.8212089258434,668.162581751791,-168.038778316456,814.89914287879,-22.4595845375418,4432.54792473875,-530.029452140552,218.501234823465,-27.3413437680992,355.357165643211,-60.2427562390684,1247.41359887282,-23.3487961517225,567.50465930121,-110.360965913898,2091.84111295658,-304.839679817056,78.217650546848,-7.56311454994489,2178.94678587744,-430.174134630368,1933.71530772038,-373.948986369404,1252.05538539289,-34.2038687825178,1832.51361805995,7.50895107438129,936.396215049063,-149.048703663445
246.584372035069,-63.4578278090991,676.618942070895,-173.326936415827,818.535039346259,-21.6657801437237,4437.89871049162,-533.089268933842,224.304694182372,-28.9640415985629,358.443149052777,-60.8330952135087,1253.79647856375,-24.0867939790958,570.485831783159,-111.225069742309,2095.71529862766,-305.981233713486,78.8363232336375,-7.63296573049747,2196.39024153349,-435.11438985802,1939.93112817707,-376.727545500348,1262.12846560975,-37.4162112729024,1837.71316012768,5.97177367462742,951.111263375471,-153.005810462335
248.788131796631,-62.9379786431533,702.655483913356,-186.03038458739,822.172599449441,-21.628240528919,4448.87197400211,-539.047692027449,228.78300837401,-29.8814792045366,356.679486837267,-59.4574341427288,1262.89328093945,-25.5683268820169,573.182667171192,-111.669100713669,2109.90138718836,-309.731012303997,79.5185775825447,-8.05085891638955,2217.07501255685,-440.593121846879,1949.98615867962,-378.598532257102,1272.53982081144,-37.6238843768447,1847.80614393978,4.09457918594384,958.219569348402,-155.404233851027
242.672029071704,-58.8031589559228,698.307800754463,-184.162742236378,822.60020117645,-22.5067996308634,4432.51173388432,-529.559611348372,216.083363675384,-26.7284081862979,356.038429121655,-59.2124575249779,1253.41459899323,-24.3109939075447,568.907471479738,-110.926569584732,2104.44628802038,-311.022379064479,77.9700391451133,-7.32425023892081,2180.09155212331,-431.441834527156,1930.74919952962,-374.184686037525,1245.37385072722,-31.6100368627549,1831.74729760973,6.99271047298344,932.229118319161,-147.835172368166
241.040527322585,-56.2003867977042,693.996904424258,-180.511917317156,819.171882206626,-21.492144100532,4426.53164797385,-523.986353902049,218.546413440729,-27.751690994604,355.981150592925,-60.1294053353353,1249.08168804162,-22.5156150786537,567.868386120964,-110.088313155276,2094.79164672814,-306.161160225307,77.5044852162034,-7.22559353426817,2174.47753347784,-428.562221064432,1932.00126704096,-375.166598008563,1249.78819666821,-34.009298380066,1830.80329757428,7.49901389744841,935.968349462327,-150.862005857215
241.717169816044,-54.928481740287,687.267540561354,-178.531628069194,819.233350900541,-20.4046018236026,4445.67892226873,-539.060768735973,223.952609696842,-28.7411226427319,357.049495117009,-60.3339656602658,1255.86386986672,-24.4133599249888,570.40926230204,-111.206625427124,2101.39122021303,-309.480085907125,78.3871271614607,-7.56080236437654,2192.21057981431,-433.139862584325,1938.60569412144,-377.345999053918,1255.53301964498,-35.1435155185632,1835.45600499262,7.24368180607198,950.894770011387,-155.336370917675
253.162863553263,-63.9022834328838,688.535707299768,-171.383483824777,824.766764991237,-22.6315964437058,4445.11732327824,-535.124407067714,227.675858488829,-29.4004014580385,359.822434472944,-61.5203864245551,1264.22007116677,-25.4283194105757,572.559375190259,-111.356035695655,2105.40229548497,-304.462521804824,78.890950657212,-7.75547939133978,2212.94210195878,-437.290318911806,1947.09552449998,-378.189860667602,1264.94662542757,-37.688914087324,1842.64415333103,5.52338559840239,946.775544038879,-151.875103859475
249.37916328308,-63.7479027159422,690.089933454885,-178.935807629643,817.893861012198,-21.5744672486882,4431.48181809732,-527.831786855523,216.754488428124,-27.2783484358874,358.295107862244,-61.7701830732284,1250.72629831839,-22.94395863439,569.308548369029,-110.766526534547,2095.25758950899,-304.089641398991,77.8880868360058,-7.51255430441129,2171.65743536706,-426.295152788988,1924.36981203746,-371.320199488851,1240.18398825306,-30.6775580389102,1826.87236467111,7.95614233134673,931.392620802907,-148.330939006542
242.244240066988,-59.0222484011771,678.694335782243,-171.234848085264,818.858754728926,-23.4258830704799,4432.98200801063,-529.177171394998,220.246908533754,-27.8530986002235,357.615577828899,-59.7055958208351,1251.80031454075,-22.6654087119151,568.973862867223,-110.784491780152,2091.75523721261,-304.599365441777,77.8805321459367,-7.51534119694596,2174.68127559325,-430.031928229546,1918.93184067445,-371.080846832354,1240.93066802544,-31.4728704893839,1823.2226247397,8.75961354775666,937.436132275156,-149.707398681496
249.884629669826,-60.2077503658247,693.965699536227,-185.834692230031,821.456093902911,-22.5947715670321,4440.31161494315,-533.642067260821,224.966058327304,-28.9411498707827,358.7209273151,-60.2412059354747,1257.08857569425,-23.4908892254531,570.051515110455,-110.598084633883,2087.74206529991,-302.270438919025,78.096622274369,-7.48951970101337,2186.8041065723,-431.400381186086,1924.99185487465,-372.797515446169,1252.05094092202,-32.3726529485063,1827.5243220644,7.99103658943303,948.88019845801,-153.839916080039
248.386894697094,-64.1470776169464,698.565468301645,-187.070357572774,824.026803846751,-23.8599589018254,4431.62302244219,-528.56384491114,217.858864868528,-27.2670849838069,358.852890127679,-60.5777967082118,1253.19579717282,-23.1830724324181,568.675957453945,-110.513891904212,2087.83418876095,-302.155887283671,77.4149897397817,-7.24427533926831,2168.02784897003,-428.259222833359,1914.57876286404,-370.200514042668,1232.09735062429,-27.2372579037494,1815.42527030943,8.81234213308583,926.610768397359,-147.382620619131
249.592085535362,-61.4647492581239,687.274941482545,-180.547472931318,812.021293471672,-20.4219724076093,4420.01613025198,-520.807301077726,216.068294856653,-26.6900253605365,354.737555743886,-59.3564792535812,1243.62858828872,-20.1019826411541,565.972414066568,-109.450629280655,2070.5764141176,-299.33540761895,77.200764383557,-7.20728745942289,2148.33139027454,-420.659658252075,1901.54520030209,-366.035696338696,1228.35131546037,-28.606873205918,1807.21864502808,11.1061599734549,928.271392613244,-147.812921623139
243.956094539556,-63.1464857037397,681.179853465242,-174.626229571448,819.694231238302,-23.0248542466318,4422.17015898054,-521.985407422402,221.006532543584,-27.7884585624283,356.64208495809,-60.8069874253643,1247.32665483864,-21.5043580892735,567.687293729542,-110.411622136945,2069.87781683386,-298.673796157461,77.4553726878588,-7.45053674312507,2155.15664290177,-420.730401287444,1902.58185584554,-367.547916930356,1234.51686017049,-30.1583135201677,1808.79086851239,10.7487659317427,936.741455023824,-148.150353448448
245.955319172215,-59.8826748188185,683.73062108289,-174.696610405069,823.126481222524,-22.16436188454,4432.36398772938,-527.990122514942,225.549229526013,-28.9644516843052,358.53281549108,-61.1226904709475,1255.15677520655,-22.6738563691413,568.70419897927,-109.865216968239,2080.67264187144,-302.062850894579,77.5578602477368,-7.30898136160452,2173.49008397072,-426.449469182836,1912.26704286301,-366.716712984202,1244.42006502351,-30.9325405049467,1817.26721514778,9.09235415034548,945.990423737557,-153.212365160307
241.65625871305,-58.5927399595053,689.640693226892,-178.682596063338,813.206712876588,-20.2595786468146,4414.51419628529,-516.860981277642,213.851109156959,-26.3616025769405,356.280556528988,-59.8768792458017,1241.44971938117,-20.8796502655014,565.026844949494,-109.244803320236,2063.68133097668,-298.427400940297,76.4324294490885,-7.14550956925867,2130.02412834335,-416.058727124924,1884.48697213157,-361.995106999355,1210.31151153693,-23.1192940567546,1791.81390349581,12.7942794099813,916.065025518713,-143.613248099233
238.375257469624,-57.2899443460983,669.165579775506,-164.161795650742,809.087030554358,-19.5406803500972,4404.10769949286,-511.353253452881,214.980679296741,-26.71088874534,354.430243336465,-59.8011448520231,1234.65568602904,-18.4739686925269,563.633124104662,-108.788932759047,2048.36863750422,-292.78907654969,76.1971225500799,-7.07796075839231,2118.22809329676,-412.686849900151,1875.15642357708,-359.216274535972,1209.74974086703,-22.7036967036742,1785.90096236496,12.7605107026568,921.45895708207,-144.233575368197
240.752571208663,-60.3962094070785,662.632828923441,-170.752376612258,814.310664725198,-20.8814561144302,4407.59122944464,-513.104278620458,220.023225340607,-27.666175574816,355.956731380659,-59.3111178536279,1239.47487047532,-19.6640421519924,564.495181501608,-109.246096290043,2057.56614761112,-298.554104210564,76.6894558959529,-7.28739841810824,2133.7102469349,-416.370511784827,1882.16511162268,-361.804174870359,1213.08342018152,-23.4010408379894,1789.52840276016,13.9113178185409,932.750577263524,-148.090814584122
234.449418641392,-54.8454590370863,685.860769499579,-178.207011168964,819.621699703412,-22.6080386386493,4424.23020948373,-524.491621480678,224.484300705544,-28.6138957224869,357.129606588052,-60.2904690717791,1246.55578495262,-21.1811549010002,566.413099708952,-109.429999568378,2065.07332059067,-300.213496281857,77.1130856360532,-7.39266448339494,2156.29032793666,-423.922445994794,1892.92955086243,-365.04092763984,1226.96120564172,-24.805313948859,1802.50053070266,11.3459047432209,940.561593125306,-149.321914421268
247.377272251159,-59.261247631693,672.225154100013,-169.114697294581,818.024386244942,-22.1024724514359,4410.04603379941,-514.31731981336,216.15883023308,-26.6435081677868,357.182887539983,-60.1860781146332,1240.24755923885,-20.9890829000887,564.685967741932,-109.000610893859,2057.05565459124,-293.921848599505,76.1179828238519,-7.09741283747625,2125.88699641008,-412.866149761445,1887.51484362335,-365.200068557537,1208.24890316356,-23.2536985179137,1787.77128033376,13.6909752829739,916.348290805245,-143.058944326667
241.794267240429,-58.1225904743473,669.925449475092,-172.548614742327,810.084849541956,-21.801052379789,4385.60631349576,-499.156426246552,213.000111298049,-26.2139308101995,354.583535046717,-59.7502655600345,1227.88160495153,-17.2768692427637,560.802519685449,-108.15063839109,2039.05016494124,-290.31023795714,75.1733118708992,-6.75458224755749,2109.36564507121,-411.913545988123,1873.4263475293,-360.720846461357,1197.71164855104,-20.6342792406654,1776.71620122342,15.9014807952899,915.405336921435,-143.545626175069
239.636906388378,-55.9156545243984,676.472923871227,-176.264488474713,811.241325914054,-20.1669674845778,4392.23613041488,-502.73649163989,217.864968204079,-27.0830838193134,354.28185768391,-58.7998129330631,1230.3602912426,-17.8984872449723,561.712868806675,-108.24954649139,2043.07815909044,-293.810624846572,75.7103338197466,-7.01198303399352,2117.76475502282,-411.424463550764,1875.27067396425,-361.69170061977,1205.33907965072,-24.0208089611004,1781.38252645161,13.6199143100939,919.596839662727,-141.722424785868
239.649688240277,-57.2154665480042,679.493321782692,-174.953031534386,813.636341495788,-20.8220866204565,4406.12704714434,-512.483827657978,222.258536006667,-27.9753998562831,354.753075683285,-59.3849985538252,1236.82529578948,-19.5027047686829,564.328255931149,-109.193458894785,2044.46509265363,-293.390212273666,75.9498114379926,-6.95896581863014,2123.81163084708,-414.628888346381,1866.59308062756,-356.737232053754,1200.54215085384,-20.7515549145324,1778.86682789942,14.6569468666244,913.881790576694,-140.988219418725
237.906478718047,-55.2892402598952,668.342786502659,-174.335565312471,806.176602014484,-18.8371489231969,4373.85350216132,-491.493239655532,211.6327568833,-25.768255133256,352.109258216611,-58.3849353566312,1220.91779959217,-16.6357408115052,558.825821712805,-107.576429736251,2020.82477466201,-288.045779775585,74.7887975267503,-6.81253739695893,2091.40854195477,-405.943240658191,1851.17521794224,-353.490280789513,1183.80688190491,-14.2738538678799,1761.14537706338,17.1864316079886,906.583423222283,-140.707130515986
240.690101382816,-61.0995996539359,667.372910111884,-169.3916860605,802.452767371686,-17.6487608124374,4378.7433549379,-495.897080367307,214.777478599451,-26.2063243195391,351.023565416877,-58.5096711887969,1219.54558256937,-15.8477408805629,557.74817690783,-107.026933655328,2022.98744723885,-288.297100643582,75.2602827787829,-7.16055022731544,2095.1447574146,-408.125154501992,1849.45918209439,-352.424233489452,1186.56747617533,-16.500767222915,1766.45356416626,15.5053898705747,917.417048008709,-142.03350825305
239.091023699551,-56.328547683963,668.215679432231,-170.707771616405,808.769343826931,-19.9302921727473,4391.16383283664,-504.402139927165,220.079100390066,-27.5967704715735,353.343275789925,-59.6062237337154,1225.95894531865,-16.5944513939799,559.983036703158,-107.957566260855,2024.90068528082,-286.177494611147,75.224073963689,-6.81646102317692,2108.63265185354,-410.16537131309,1863.71539244977,-358.181333068168,1198.31192213107,-19.1161807342909,1775.72611050686,15.0265179913585,924.512613742477,-144.481507574557
245.992784543993,-59.9962023822896,669.775241330732,-175.459652221374,805.078013516393,-20.4646255499747,4368.48175605044,-488.717769554842,211.596789849743,-25.6317399345457,350.47547320101,-57.698900680438,1216.60425249669,-14.7539914904274,557.048730913896,-107.099037853493,2020.14923063859,-286.327501396776,74.4987693043482,-6.82199609004456,2080.39494440476,-401.792684100946,1850.9791000825,-355.229144488859,1179.60255292378,-15.1518433167974,1758.55150441794,17.7977929902992,900.792659452486,-139.672650772447
238.791422008729,-58.8695491544106,662.199426991565,-167.522210349221,799.316815719088,-17.4374854446194,4346.88267036073,-476.159272872785,209.568166345973,-24.88273086873,348.649708038559,-58.2376019948236,1207.19048128302,-13.9459589800384,553.295609616874,-105.875059246498,2000.91871010465,-281.36323301609,74.1456702928671,-6.76046659623091,2063.55894662018,-397.310862007591,1840.37373072132,-349.845142869821,1173.36059178548,-12.9863687525699,1752.64187243363,19.1323403972462,905.026988452946,-139.102691225728
237.225131543554,-57.8394510654432,664.569023761793,-172.834018489967,802.761095634378,-20.0048239047903,4356.00188276049,-480.706762049916,214.348395204319,-25.9810844529112,348.842442405648,-58.1797688931421,1210.53912885566,-14.2230989601108,553.692013022898,-105.403381025129,2008.88401983095,-285.868752858449,74.5785912616505,-6.79726497501854,2081.83520082301,-401.764962237611,1848.71703937016,-352.605817976715,1184.63375863519,-16.851772771412,1761.75993158023,17.6304977003573,912.902225852811,-140.19999669635
236.747482429479,-59.6151905317614,674.260793571245,-176.945149281104,804.24404309668,-17.0223565189164,4368.81641552447,-487.602395350452,219.855837011291,-27.4759099688799,351.897039263644,-58.9602579164246,1217.53732075522,-14.9555210937709,557.718239083554,-107.316242329944,2013.73595662984,-283.546557573876,74.8446260925547,-6.68274825881469,2098.49227545039,-404.075438448689,1860.18718351507,-356.463980167549,1198.58924620432,-20.1388944287752,1774.57789229426,14.8195239635508,926.572183781122,-143.211547918378
241.880198474597,-59.7172725407672,669.327218260297,-170.2440366457,800.287807448301,-18.2698290442048,4350.67157960124,-477.140494299456,208.955166257466,-24.9470507997024,348.736814438366,-57.5200070629301,1205.29654417005,-11.6262762590469,553.306218295084,-105.892754010017,2010.94788939391,-281.991818157647,74.0150467120363,-6.63449147362088,2066.14799149333,-395.826789337279,1851.6692972301,-353.530140905472,1170.28029096399,-12.7399249948753,1758.64909137833,18.3954142977009,895.466926343823,-135.263507367386
244.856243165612,-61.4194603772671,652.571038792153,-169.105691319204,791.738355623637,-14.7204746106104,4333.08706192626,-468.019306322534,207.907040634849,-24.6472598536255,345.739625816338,-56.9515215750332,1196.40034603813,-11.0614444982763,549.307004069667,-104.392593834774,1998.68546663492,-281.650764195347,73.8201802658142,-6.63685846453112,2053.7369110999,-392.969468207072,1848.9967253436,-353.875073882408,1171.2623623383,-14.8920979962802,1760.73620181586,18.2702668151979,903.11349088544,-138.363837922133
235.785764914735,-55.598232839274,640.087118737132,-154.581809336574,793.781818666988,-15.631112854942,4342.15667267913,-473.583852455571,213.215181310931,-25.7130432502465,346.905189431935,-57.5842419285345,1201.03626724521,-11.5063010943887,551.222861497998,-105.005991035699,2006.1450579001,-282.695177064925,74.0986993882323,-6.63726745961985,2074.10775738208,-398.381768866944,1862.34801025319,-358.034651030773,1178.31010283234,-13.9045320719425,1770.80258606187,17.2469950860892,911.261344410636,-138.199194150991
240.822758393419,-57.8905709313505,664.522581949862,-168.699059858516,802.410460884113,-17.6674917556707,4355.76555929983,-480.637939113417,218.751085009783,-27.190627714581,347.631645955615,-57.5907183105727,1208.76343521669,-12.2135144067591,553.850494600727,-105.477143289384,2017.69627486805,-283.334948937227,74.8451809680117,-6.71715865161086,2101.29577543911,-406.78160852777,1876.99962871554,-360.551712389555,1192.91510830317,-16.766509890707,1784.9424206178,15.0591928228096,922.613993025701,-144.224486694662
226.431746616357,-48.2722234230137,658.244169035687,-166.91379712619,793.383737188421,-13.9807482918189,4346.37197867904,-476.12844019946,209.426430990253,-24.8389746654927,345.048061428943,-55.4501516433115,1200.77637152875,-10.4300351536433,550.789077462325,-104.431865270532,2016.63315037929,-283.828520403003,74.2984817809164,-6.82166016874501,2070.35066539109,-397.808024927467,1874.81087401023,-359.249801312686,1173.56458036109,-13.2435711138231,1775.96496943377,16.909910927953,898.862040701857,-136.985757888719
242.984898649951,-63.9603281459083,647.561468758768,-162.364962353332,789.975483505858,-16.337498928715,4331.81388754611,-467.764635079804,207.800185929025,-24.7074702019463,343.642077745463,-56.6709544681324,1192.60821597835,-8.812760325393,549.005025670617,-104.594372652458,2004.8818995282,-280.332766892302,73.6947561850139,-6.37170640317327,2063.71864814694,-395.926961795001,1870.99755674354,-357.86110868835,1168.74122072873,-10.4268804816993,1774.55452358859,18.091584676078,902.490907318149,-139.029882920887
234.338550520156,-55.8242518905234,658.963036869705,-161.294836448626,793.833398453512,-15.7248058687441,4340.15799772979,-471.465160228331,213.007401144712,-25.6166079342525,345.738828890591,-57.1535880727512,1198.02993694094,-9.46237131479175,551.258160331739,-105.096978537111,2004.4160636501,-279.705091920708,74.7268463262805,-6.92176935128946,2080.85977475058,-398.720628805461,1880.69921681626,-361.489192957565,1185.66468136201,-14.2072234492483,1782.03451593484,15.0274092571727,912.408383322144,-140.650052001389
231.193966788873,-52.8664490887269,662.489425453338,-164.305427977853,800.096141394729,-16.3455672661966,4358.07688770152,-481.587724908543,217.925817637219,-26.7438035794283,345.231254238652,-56.1391808791701,1207.70778416624,-12.2385481781509,553.897578049904,-105.756404045323,2018.99923242171,-284.487825117082,75.0230259984154,-6.86773510147208,2088.98685186553,-401.679301634241,1880.91271372042,-361.094290114209,1183.27825045548,-15.1124874947391,1783.16396884609,16.0641589241864,909.640658505918,-139.274652995311
237.557051857094,-59.5617820988327,652.609483435958,-168.429429575769,792.413420879943,-14.906094188078,4324.10942833985,-462.029432850367,206.838032153808,-24.6282612137633,345.515017309988,-57.0641243733637,1192.71892329249,-8.56194272390526,549.638436691747,-104.580988697174,2005.60187408524,-279.082908543073,74.0922401669687,-6.74752162900885,2061.4092581297,-395.429954356832,1876.52971585449,-361.276565168642,1175.2705209303,-12.1851600978413,1777.2923249864,17.534922275578,899.20821571003,-136.399772030498
233.189424570291,-53.9679974230203,651.321332903687,-165.017622636485,792.328210126286,-14.9751831235355,4327.49080633461,-463.300502441666,210.075969680227,-24.8410310927989,341.912856827433,-55.0165660866762,1196.80121144969,-9.9698758699539,550.18536541234,-104.638564571797,2011.18567844415,-284.71812249144,74.12742432394,-6.57908545427585,2067.79475431823,-395.080816643651,1877.04125848565,-359.060353807536,1183.29429172471,-15.2233806559266,1782.06782781928,16.1953980883832,910.630661828927,-138.831246117214
231.628757811576,-52.0124929320611,644.703608894558,-161.708707581613,794.92356267272,-14.1337548261268,4345.41808709739,-472.139684606231,216.138690327869,-26.3904037384263,345.179312115306,-56.6603931184398,1204.16225040966,-9.99686709184035,554.321530819778,-105.987411015365,2022.69322528196,-285.923612994819,74.5974777005268,-6.59367240044752,2090.1234102252,-399.399650756176,1889.6222444644,-361.939744210193,1192.42539208949,-14.5422819627559,1791.80938836614,14.9836441190296,921.19715647596,-142.937401679391
228.63495831382,-50.9533747527136,674.791733302201,-172.37277715634,801.606617750769,-15.3894772060949,4360.24241272585,-480.969754227353,213.950107377964,-26.1113482980217,348.154917851568,-57.4843770197649,1210.45745426512,-10.8786596851768,554.764949983565,-105.620274392649,2029.63143984442,-283.509081320322,74.9797358423551,-6.81194108211954,2091.06779183815,-401.740751612426,1888.93417461867,-362.262047118007,1186.80348494147,-14.416439269634,1791.00308189227,15.2831173513145,907.538711855863,-137.203344639532
228.500708117024,-54.8467810986768,658.586741797924,-170.273236295591,791.598219646711,-14.5809975660414,4335.34668200014,-465.955274887178,206.581680788784,-24.1345264325855,345.323998684903,-56.4647615244952,1197.12947032987,-8.35302503327884,551.869671918066,-104.878139170958,2021.14625165736,-283.115980474263,74.200417519283,-6.65990860974241,2064.26699145767,-394.404939487414,1883.83757688174,-361.601376946033,1177.77146121942,-11.5103283905602,1781.92978989705,16.6243861148839,902.612984635742,-138.998486848033
230.464092747709,-51.1301391915612,661.290046013727,-170.465380743288,792.487868375316,-14.6414516309394,4344.85156806244,-471.573966501245,211.533113311671,-25.2531530853254,345.993711911959,-56.2507170019208,1202.29108690669,-9.32394801766078,553.672215822852,-105.498816211799,2022.26841355424,-281.41981471425,74.9269155335872,-6.93830856735137,2082.53230094922,-397.759941353228,1887.1871791837,-364.939723915134,1181.47699443964,-10.1960255346194,1787.29878391047,16.5039920500568,908.722546186217,-136.862397278292
239.34030628498,-59.0658011980702,659.554014895029,-164.269309472839,803.498462859579,-17.1215464898664,4357.05448428978,-478.886634587256,217.676653052095,-26.3216235796794,348.908078094878,-56.8503501009262,1212.05773533108,-9.85804488816606,558.429082287323,-106.927184388462,2031.44938478037,-284.763958753382,75.3661165892387,-6.77021812980007,2103.93838283813,-404.396128945547,1890.40119862392,-363.51058082046,1196.45946170577,-14.6465437492062,1793.14667633901,15.8119195033403,921.722406922055,-141.42065798006
249.968901782415,-67.3403021061788,672.000669271811,-170.417792954589,807.652761005511,-16.6653183087239,4376.5110281253,-490.252093430933,221.990228444588,-27.3821393922208,349.73406908667,-56.7494212960481,1224.8693111553,-12.1449368369129,562.311186516823,-107.508799399031,2048.14629379665,-288.767910590907,75.8013610754811,-6.68727147183277,2118.03748632167,-407.71141562336,1899.35952949118,-366.172042259405,1197.36858555155,-12.9582188008325,1796.29355948881,15.043475251875,920.556508207696,-142.156631966293
237.043551958787,-57.1724728059524,654.501813751216,-165.060504735575,806.446452080223,-18.1542150527147,4353.72451970475,-476.776244930512,208.345232208822,-24.7023386768995,348.713529258962,-57.9382371094145,1211.21539618722,-10.0470766922511,557.145897982089,-105.982874441841,2040.38706594631,-284.819777807367,74.9532233846663,-6.66727788325135,2085.57256992972,-396.825912735212,1891.21675951705,-364.231189710674,1188.42920538349,-12.2885348851229,1787.92540298257,17.0126451504806,904.276704044688,-137.126994070727
230.441788580644,-50.1009505014903,666.724619536187,-176.873015500195,805.071326327636,-17.3758475522018,4357.22873015511,-478.84953387527,212.759950079958,-25.292140405828,350.033804522646,-57.1368163150475,1213.59891504162,-9.67040066808544,558.397849611861,-106.39834174153,2047.39394951205,-289.119424772904,75.3963292473084,-7.01149987446201,2094.87196936607,-401.589099869104,1894.19368133981,-362.220969976394,1194.8946890109,-15.5010924471207,1792.46665773645,17.9410503169589,913.632619797842,-140.414540334932
237.022376647404,-56.9474422416173,662.488653266146,-168.086698330403,807.299179222691,-16.8190955546309,4366.8591339267,-483.593905744442,218.510011569046,-26.638073713711,350.353768446487,-56.9569434684044,1223.0041962698,-11.3766998213219,561.608723835099,-107.358382184591,2049.91717259307,-287.890626478052,75.8179583034064,-6.98724155775857,2119.11761104077,-406.25017250797,1901.58149324132,-366.994080421372,1200.65617025216,-11.6135771486164,1800.68317748279,15.8602966144004,919.849926093884,-139.192762641833
242.873393256051,-63.6637566909548,655.843704533188,-164.246963290353,807.175076376611,-15.8081419780434,4362.73669643635,-480.940538439217,210.840166375122,-24.9531407365738,350.481607199216,-57.2767342611134,1220.2779806214,-11.0212203766254,560.317152207596,-106.806645901235,2051.87740749731,-289.41704265367,75.4327794513036,-6.81314243702688,2095.15735883942,-401.853378132091,1884.44580048957,-359.340965463193,1190.58332025781,-11.7573764949212,1788.02134200229,17.7026585564174,901.428296703384,-136.697027966692
243.179598315928,-57.4143939874706,668.878484873362,-169.757570678842,806.322618795113,-16.9967301882859,4362.51291531353,-482.042695699299,210.671036310228,-24.9421210455662,351.634335314494,-57.7536513483985,1217.20629079153,-9.61561059534418,559.011395616106,-106.299593694641,2040.67680711744,-287.079616079936,75.3454858081221,-6.84394903776445,2090.63666346525,-397.233776642773,1885.26302522087,-361.29064028741,1191.48307225074,-11.9182217506038,1785.08428357766,18.0759465654231,905.160125990617,-135.973386569141
244.823390488025,-59.3655316414658,663.820026559161,-169.89591745251,810.125433075536,-16.7835945524535,4369.48596765348,-485.672545073867,217.017532152519,-26.5366693800522,353.406806581229,-58.4114596378663,1225.74824899564,-11.4632630865271,563.011929352385,-107.620348174207,2050.19953919386,-289.61685157924,75.9824219088425,-7.02711285297963,2113.4748798007,-405.836891855164,1889.02535732083,-362.148788367821,1202.91452673456,-13.8017100324053,1792.65944797991,16.6447675400175,918.086474062551,-140.1057646164
233.721836493931,-53.6406033960463,668.437126864671,-169.675751168551,812.711386439369,-18.5365904350546,4361.76743278691,-478.845665983166,211.371412364447,-25.1827325836093,355.114090735478,-59.0728645632538,1224.20644576936,-11.0302867070891,562.057805481357,-107.183282116545,2045.44299734937,-287.196638023899,75.5415351717528,-6.80229206998596,2102.09217912459,-404.833617940401,1885.03751455051,-360.551940121077,1195.68564277257,-13.3258478781504,1782.43188642127,19.2203793831558,901.646991534493,-136.510712786355
232.899606515948,-50.8321724789435,676.168461980502,-174.697629062215,805.918459064735,-14.1338219036432,4356.15137815092,-476.439095848399,209.240189481542,-24.6371230466827,352.563250219971,-57.7755304916005,1221.59819101753,-11.5409080774909,560.216162235041,-107.177639347637,2034.32138501671,-283.520287293561,75.1847550081554,-6.83654213670735,2085.92674806305,-397.18304348672,1876.5727415806,-359.55816208165,1194.53713923505,-13.9037229277845,1778.16879750287,18.0572111422282,902.609670894178,-135.452320362387
238.081645311534,-57.5021490547772,667.179683795205,-170.582298153727,807.736173909502,-13.8902774915503,4366.41716750618,-482.737838354501,214.777753973118,-25.6666048572172,352.881931956576,-57.3452133794609,1227.8209092351,-12.8236982696035,561.428433881135,-107.290155805194,2041.88460412022,-284.992561077832,75.6158115810068,-6.95439025424069,2106.54564919479,-403.737805468611,1881.6468890307,-361.205437296214,1201.52928237918,-13.5706922975757,1781.16843599281,18.0236182851439,911.938819792168,-135.88725788061
238.982699316368,-54.7070735884517,663.910041849287,-168.729511891859,813.988755418257,-15.9988827879216,4377.60322996367,-488.763826992734,220.157441507031,-26.875201976915,353.902658124319,-58.167804124226,1236.67813398508,-13.1652132586535,564.449929379747,-107.830989097474,2057.02039110904,-291.745200331887,76.3655194558311,-7.1839212973397,2129.2532857136,-409.667664778022,1897.52488701427,-366.496352699775,1215.08079171355,-19.3762358766543,1791.85640822463,16.3430300993592,914.656101051638,-137.432411423301
234.092192809041,-56.2045816352259,668.544118748104,-164.579647643548,807.166037672209,-14.1579167820575,4366.89980697275,-484.270636053469,207.249501842794,-24.2547884391326,352.584592065705,-57.5858360622534,1222.7795181552,-11.205034766695,559.516670869918,-106.512300315769,2041.07401815165,-286.429653382852,75.2013985234183,-6.82188593403399,2083.56207469589,-398.637019145085,1875.14528350805,-362.735576863525,1191.30269951087,-12.9275562555684,1771.226625537,20.331913187687,896.151551657009,-134.595015497142
232.973119263468,-54.9202450291747,660.856540897252,-164.098110519271,804.658192436836,-14.4727269763063,4354.3092924191,-475.457701631211,208.994437000659,-24.6000389166598,350.475429353781,-57.4362397831604,1222.3972414559,-11.7318937874466,558.796667414053,-106.374679739666,2029.1990060494,-281.950229783141,75.6021779533076,-7.04466637686163,2079.75912072911,-395.975011807109,1868.71856994315,-359.74629890178,1192.30897756054,-12.0880322048334,1768.55760953897,19.8259095824207,900.584705484861,-133.98804539147
241.666988364592,-55.336578177588,670.525169760177,-178.409849986347,810.643661453798,-14.6436792390015,4370.33697108477,-485.942512868528,214.939475473708,-26.0023849171328,352.47194239266,-58.4516067495773,1228.51241604541,-12.2075717081197,561.170996356033,-106.957457659604,2037.91216516337,-284.303442257474,75.8658872599502,-6.95261276158502,2101.12011374932,-402.65195729662,1877.52602267498,-360.861927231704,1203.65209921957,-14.4281143248434,1776.96736916472,18.8098927679617,912.856433298234,-138.616611329186
239.266134097489,-53.0834280849596,669.191460433956,-169.097670055009,817.26648229538,-17.2906035861095,4384.44966783364,-494.928849393026,220.438615634701,-26.9261248647607,354.44407552955,-58.118219210662,1239.44573404147,-14.7596427119002,564.823592053524,-108.037319212506,2051.78776124225,-286.666686485305,75.9413892093543,-6.75589621244592,2132.09528386354,-410.362952033183,1890.03944588279,-361.552884603915,1213.96180762708,-14.6728703868225,1791.90338598829,16.2657769589337,919.115467413519,-137.457471581603
240.848799639279,-54.9337407535421,668.520258330796,-167.503376182715,813.006464186806,-17.0742711174254,4366.77646179954,-482.48435828119,209.999756112088,-24.7149087319569,353.080056039311,-57.4697377579989,1233.05877185973,-13.8505093422083,560.672835495444,-106.779472267539,2050.5775398349,-287.013326971202,75.530305529933,-6.83593437000547,2105.78320540834,-402.958892114479,1881.52194543618,-360.668868516262,1199.25745713519,-14.629967253031,1778.23871146252,19.3861873186585,899.245805719038,-133.083489475415
232.527585962334,-54.3174286802699,646.257327390576,-154.349089167576,804.089845193164,-14.8906543488006,4360.25665451548,-479.857881465611,208.15812469391,-24.1861669704802,351.164716610102,-57.4581073808661,1224.03297675191,-12.4873742462197,558.472354660277,-105.938176186582,2040.06759206037,-285.970300416409,75.2401015868809,-6.73349664208912,2090.80474977575,-397.873046190335,1883.37770268833,-362.33209449447,1197.88858618628,-14.0841317092751,1779.2670295911,19.7783819590897,901.369797166627,-134.325623878295
227.2313331918,-51.9844604221424,657.31919622612,-165.386782483799,808.163386296852,-14.7286245288551,4365.18021734768,-481.400221040984,213.560121039443,-25.3430570224156,352.274696276505,-58.7576915414755,1229.04921098563,-13.1562778066179,559.919804944519,-106.29679507758,2045.08110134587,-286.503579409812,75.6482268794003,-6.88142743905297,2106.77675531446,-405.461787555251,1884.57555515553,-358.660813050622,1205.09610925848,-14.4175408837881,1784.60284414294,19.0251200821752,907.540534785403,-135.236821824839
235.756709372981,-56.5704475638375,675.235229934408,-169.828443728931,811.597725297016,-15.1966533673962,4375.06835950222,-487.823844903124,216.848771808278,-26.1735796274077,354.031849731273,-57.8647416867066,1236.65321052785,-15.3056304329522,561.658606168547,-106.987482807058,2052.71750712841,-289.28373771135,75.759225119921,-6.84482537790793,2113.74201695448,-405.616878617871,1889.30140159962,-362.57465778315,1207.41563314419,-16.4929970188721,1783.14390562251,19.0520522018193,901.838465458264,-134.580755291838
234.722990856645,-56.591278758497,652.920099618542,-161.186273084121,800.954054200281,-11.8357464177807,4356.54429762386,-477.042159243255,207.634595683905,-24.3283170308598,350.576498958125,-57.3742821598091,1222.27377061567,-12.037596348536,558.346119378617,-106.370731301079,2037.81969287868,-285.134110359772,75.0857194431722,-6.73848092890392,2088.96572903399,-399.917050270985,1875.64769159848,-355.477775976126,1199.81578660904,-16.2484964400512,1778.02156865315,18.7576977406595,894.45329120861,-132.331168669725
