237.211309632102,-54.5721936198896,661.370248215895,-162.803086207666,804.815929060053,-10.5968711452553,4335.64870219668,-451.913331815473,218.808832515104,-24.6896846415173,345.156867050358,-52.9516369593075,1219.56712663107,5.9253182567848,560.408890067757,-103.466161063482,2056.31586322453,-270.986373513401,76.8010229014039,-6.49653961149553,2167.45783960071,-413.92726766601,1911.43145865667,-359.269530398963,1207.07872752626,1.80264875293524,1785.96207625431,30.5521019683318,903.817128936086,-124.773843991694
239.389604846752,-56.1075755359844,664.625267921401,-169.144095333586,797.892176489273,-11.7810886661087,4326.64634028928,-446.123614873092,217.73153746637,-24.6477899112605,342.665721689908,-52.8172035516208,1211.42625059502,8.59085404140091,557.969304165243,-102.828505000527,2057.66135751688,-272.660883770753,76.4519933801493,-6.52416832039359,2152.12744590838,-407.204174018464,1904.89869604852,-358.629689196446,1202.14023587214,2.28607791193818,1787.66514743398,30.0475518581418,902.678968935592,-123.110647803417
233.950250235178,-55.6690073239447,666.612350758315,-166.36267828966,799.536419789393,-8.56603225818831,4332.71205561576,-449.398027751648,223.945180361041,-26.0487472370756,344.209087547881,-53.265886982794,1218.09292073883,7.61626100775599,560.118270503896,-103.135454723974,2066.27645441023,-275.700812533175,76.8011108517078,-6.37410284172989,2177.21748611092,-415.93395157057,1915.35220732424,-360.167729736898,1211.13890632038,1.06420676215823,1795.05978376656,29.914104189685,913.845565036069,-127.003534905488
239.628190095685,-60.1741964245293,674.989552285126,-177.490385170886,807.649270345944,-12.3963818862937,4344.48535601024,-455.562813364932,227.665353706278,-26.5610490319652,346.291620529704,-53.4870512281201,1227.85919009566,5.90396762249886,563.620888531242,-103.918180799579,2070.71112373632,-276.774285630882,77.6871915131525,-6.55698254169009,2198.30865714389,-418.61816608001,1930.48867254363,-364.828679130396,1223.17393624492,-0.984232770962542,1805.35173685551,28.8093856742027,925.925541548082,-130.374261093666
234.552632243567,-53.2473682544436,661.245060923253,-165.521611954821,806.850292566946,-10.0979202514853,4352.08818821989,-461.836137300617,222.817984514094,-25.6653991396956,347.050886236739,-53.7702904760104,1229.41403444119,4.86152312162197,563.497481995948,-104.234439251245,2075.70749963351,-275.586784079851,77.3014332349809,-6.62032988234151,2190.55744533533,-416.673768238823,1926.05308214147,-362.145467965768,1217.30606535986,-1.3142439509768,1803.55783657466,28.1645597727159,908.958922698728,-127.211116462516
239.599128965649,-55.7115022902748,670.895515089571,-171.746265726418,804.370030907084,-11.9003300555898,4341.21259879318,-454.868212732162,222.519836610354,-25.701099775665,346.605622859533,-54.2054049556907,1223.16082150072,6.71847725177658,561.241299170776,-103.628187194521,2070.82945694079,-273.567980707055,76.9468344766823,-6.40742530759002,2184.41839489995,-415.602738090009,1929.96593851373,-364.41568555704,1210.3155211339,0.56812559313447,1800.43806762595,30.2173964304493,909.805687896331,-126.691127144214
238.512451712213,-54.7095914880629,664.458687277194,-165.173962996697,809.249042467326,-12.5566434431967,4350.87529603864,-461.557079500407,226.443181292487,-26.2084230096711,344.828643268896,-52.099005688251,1227.97165947516,6.26225686345514,562.967860251545,-103.795265232896,2075.52225273889,-277.065729878181,77.9853099201668,-6.91886412284244,2196.82970055692,-418.209315400143,1929.34814144406,-363.416867933707,1225.53487967669,-3.10963734752052,1803.74961980789,30.1141524060603,919.185065713547,-128.187897235575
236.841175647233,-53.8248379134452,664.553662222819,-168.151747143566,816.669602705517,-13.9704505333694,4365.10672880006,-470.257070137658,229.926672702681,-27.24763426804,349.411311935239,-54.5056094552514,1236.98376477571,4.2427686303614,567.098444773759,-105.06990742485,2084.4375918984,-277.835472396219,78.7443191394863,-7.02206203629706,2219.63284647495,-424.213865062459,1939.86734647027,-369.876769381332,1236.68758365105,-6.58989491164033,1810.18762797706,28.4602677892191,936.934027369246,-131.333543685834
233.901978081779,-50.8199623314364,668.413447690983,-170.196171446136,812.959685346616,-14.4454132835568,4348.74104397791,-459.406359813229,222.700657947098,-25.7613842884285,345.57426355049,-53.2313349468995,1231.74219820431,4.8168215944028,564.130916956924,-104.65057812087,2070.67343043599,-274.600974653128,77.5835348162737,-6.67486092486001,2192.2363347724,-417.827034968733,1926.57223013715,-365.145323428691,1214.58174177086,0.267825346405995,1794.13280137597,29.575547422316,911.651060965838,-127.913969161304
237.320495141032,-54.0435824533617,657.09718327619,-164.180629817249,808.023583228359,-11.438146478733,4349.2181451383,-460.447234592607,223.407940597769,-25.8318702293588,344.816277144317,-52.6287241788622,1228.00525653487,6.24780570365302,563.496608884139,-104.123907510523,2058.14915079954,-274.708932313425,77.1693965761185,-6.34116673989694,2193.01986647206,-421.123855625242,1917.05084686487,-359.419006926046,1215.02899302605,-0.502179431004657,1783.36545841732,30.0916591396871,910.401964074773,-124.775726376259
235.929792547872,-51.6508658039379,666.91811946846,-166.008172803429,811.901078438444,-12.2520929363746,4365.05211383523,-471.615142120063,227.463586711279,-26.8439623867102,350.261454484758,-55.7181876105584,1235.38377010448,3.95860293265474,565.603944719722,-104.785444796709,2061.20562536147,-272.939204423391,78.140521353224,-6.91028504186099,2206.04712922882,-422.119447008467,1924.05399232388,-363.816041152697,1224.80705697695,-0.286008943520787,1792.68926268366,29.768880835494,921.054847869311,-127.747945584
238.608250089836,-57.409426625444,685.292723057661,-177.820868601374,815.288420968135,-11.2363650722336,4365.86240784265,-469.631412921733,229.767732254176,-27.2247275437731,349.781769753848,-54.2462574117067,1239.81392429552,4.88656098296446,567.81248264362,-105.124709494781,2071.71113503437,-275.937741084746,77.773900309717,-6.68360224055999,2209.14697353017,-422.854398309337,1926.4371899427,-366.186852727081,1220.8109679573,-3.37980359546499,1787.11301603883,30.4137168401779,911.587822366028,-126.548392821674
243.301643346176,-57.697989568809,674.219459152098,-168.451100177935,805.724170656449,-9.02432420602677,4340.30414073931,-453.877715153636,220.590855200378,-25.2128062651479,346.831211150913,-54.0138262585775,1227.38337877715,5.62118132889497,561.632628970911,-103.733390274564,2055.44344979739,-273.792466634443,77.2545421443743,-6.71126639569907,2178.71714692517,-415.257317097411,1916.84976301618,-362.734322155677,1206.00386504788,0.0309463393350588,1775.41557052744,32.3235495703555,904.449150546573,-123.980835580696
242.602596250668,-62.4887364947004,669.759323712359,-163.215596441417,808.607939518423,-11.107579866523,4344.70188703768,-457.70488657005,223.459636371814,-25.6510079658397,346.695937953754,-53.4105289611181,1226.52590973796,6.78656566349678,562.04345158604,-103.973000047303,2050.64980102267,-272.546623124669,77.0998216853815,-6.58051530110609,2179.74895206661,-416.67409609746,1908.18964501557,-357.386230029498,1204.86776306012,1.94803214048384,1776.38014988508,31.4457551406605,910.582886063419,-126.698152961847
237.570467618716,-57.2655734527684,671.723944811388,-171.297713226948,808.869019285003,-9.33127771955179,4358.34623464677,-466.212956190822,227.468156260714,-26.8687090435496,347.700492212194,-54.268631300808,1230.68984617914,6.0506346246385,563.989249052674,-103.856175508145,2057.60205486593,-273.4725186947,77.9344594026389,-6.77367659227047,2198.55059059414,-419.729673300024,1917.4492311607,-363.742839394282,1216.09790872867,-1.04369071111704,1783.89656186465,30.2491600627511,920.832707260153,-127.480314131788
231.219825982727,-48.3748182577615,668.944176227962,-166.575231495721,807.888883571413,-10.0986945888962,4354.27166806558,-463.681741487024,220.761456851414,-25.2893093418238,346.262997837402,-53.1009405386873,1228.18225166802,5.9961439363022,563.346782662149,-104.041260509624,2056.8318317944,-272.223778120563,76.944536584129,-6.67288466059122,2185.60099981345,-418.391095206089,1909.33222699861,-359.939290717674,1203.24437640538,0.995022881827238,1775.59782688277,31.7969327125424,905.395496108151,-126.837497393056
236.993091890899,-57.89565771855,675.807168787431,-175.212605742856,806.597528282238,-12.6390502116351,4337.72624717502,-452.283712882731,219.666969137891,-24.9569907436758,346.57456399053,-53.9442883754532,1220.22978547995,7.5129046768703,559.647290229919,-102.778730025564,2041.31862776373,-269.425139969278,77.0225036341853,-6.64093723621944,2163.42253971088,-408.507127851322,1898.01395068191,-356.556124055108,1193.36468436377,4.11972711458265,1767.0833782297,33.1648403299825,900.915605613916,-123.27131046827
231.917457017477,-51.3359701765011,660.133234723129,-165.108845456871,805.855924663181,-10.6436559000509,4336.00707076136,-450.235889531896,223.539707216261,-25.6300625093551,346.312006814571,-53.6908339424906,1221.37769479046,7.58108933876782,561.485317245273,-103.834314175325,2047.93512054494,-272.54111912999,76.8806103790953,-6.43545646765539,2171.28238370262,-410.400085448573,1905.90075857845,-361.063900516704,1196.90114879806,6.72197217008966,1770.50273293846,32.9475167389136,906.241519157363,-123.719080183798
239.563954286524,-57.134385466968,663.8430566749,-166.257908247438,805.290563379685,-6.66046584513593,4353.20862336674,-462.589423269649,227.423641524278,-26.6600154822318,345.805162188642,-52.6704880876738,1229.85894415213,6.07148873888678,562.986297253898,-103.917112231743,2051.5606475214,-271.663821333584,77.1327712785991,-6.45802836127625,2195.24934692826,-420.763223681392,1911.09139208938,-360.827792897871,1208.22402444649,3.57815281985753,1776.54075851879,31.8390349190652,908.612255223115,-123.2160921791
250.623512167058,-63.6467912914054,663.859141891729,-169.096594079269,805.366804183394,-12.0711653858578,4330.72498712519,-447.65323083361,217.694180345758,-24.3761184681881,345.262870960381,-53.0635211573927,1215.61075520834,9.13622363454217,558.578927764802,-102.46085795194,2038.63965476096,-268.471964101806,76.1317948170359,-6.3335103518357,2157.20801066459,-408.978420989525,1900.21634216377,-360.803701141891,1184.64822301854,7.75700339485693,1762.52903384473,33.9143148733055,895.945855605102,-121.695361890806
234.676698405498,-55.2139058637875,648.205360700006,-160.592148885699,799.295590589052,-7.05142533667153,4328.96566153517,-447.199297620702,220.755497465775,-25.1415666826007,342.864169422839,-52.2949877093904,1213.17790529679,9.62519171429231,557.880937847915,-102.394865776382,2036.48399919472,-267.613895757188,76.0867654611668,-6.39713962643496,2157.54606649555,-408.509960540817,1890.29180017426,-353.929935607609,1188.13117172672,5.50592507739961,1761.98718543983,34.3266044995814,896.780535738454,-120.066573133798
236.254502245946,-55.1353916308204,655.869523949782,-160.619427249714,803.836291333571,-10.8997617101592,4333.0198260971,-448.548248155804,223.352640082797,-25.4267041526382,344.692251881863,-53.6065708477941,1216.62470827153,9.51958400177482,559.718779610307,-102.87646430996,2039.87525961767,-268.827424919306,76.4415372080282,-6.40675291966413,2172.53194966968,-413.898175691475,1899.65665462032,-359.437401298076,1195.11629767316,6.7544689885382,1769.21934013704,32.3575156996113,904.915135412203,-121.541654911054
244.46490388843,-60.8163079609405,669.845273995632,-173.114354272224,798.376639237755,-8.74381328399074,4326.99094313699,-445.884629169644,217.316092519626,-24.2004684380799,341.482115991301,-52.1259781057891,1208.36101128845,11.076601583601,557.687030304312,-102.463390722193,2036.59038538468,-270.494374373185,75.8948582525566,-6.39552355050764,2149.72281052316,-405.353611556768,1889.30356155939,-354.362522829789,1181.65414669444,8.13846121159483,1757.54599194659,35.0224955086584,891.522150845188,-119.953821496576
242.116945255708,-56.0712788947525,649.983399647856,-159.62611716465,797.942755869027,-10.158838646894,4319.88395686506,-442.060726304308,216.979034939011,-23.8115825471983,341.063255415328,-50.9466056532184,1203.19056693981,11.4420978633476,555.182368233453,-101.76310769527,2026.67188330166,-264.663725531922,75.6772779914179,-6.18778403840017,2140.90989060056,-403.984296487265,1884.13848932263,-353.252435147731,1179.02879833118,10.7259391579051,1755.80161742292,34.8659377326901,896.261963307461,-119.948198101132
237.898397490804,-58.741674707276,666.523137895114,-170.994850402564,799.449051115774,-10.953005621882,4314.50304958453,-436.605079934708,221.594319960794,-24.9819301735337,341.256802991591,-51.7626599366032,1206.58312390343,11.4270476620721,556.790152619693,-102.087182861073,2033.52037292864,-268.868185866573,75.9093646430556,-6.21611376488033,2153.09043901506,-407.088938328528,1893.32034363785,-356.218227818378,1186.52773065355,9.66777198107692,1762.98846952116,33.0260936712102,905.156209104711,-122.634136999673
246.064585795085,-60.4003793171448,662.840731031681,-169.90734972953,799.375913807459,-9.26895885437469,4328.62620589162,-446.687486262021,217.578016071912,-23.7985238793416,342.820251761548,-52.6118455184145,1206.44837831741,11.0812055049833,556.93808507445,-102.654541938828,2038.58200842265,-271.190844681443,75.1962196421935,-5.95036702466345,2154.50747064435,-408.989784396378,1893.97130801795,-357.459235458218,1183.68142963755,9.76747982018677,1760.11723270433,33.9922793334142,892.474566516739,-119.113227134796
235.286906470098,-51.5508756616688,650.859720791102,-161.785976941586,793.946185603573,-10.4162293540229,4310.02687813292,-434.83240531163,215.021683072097,-23.5697617470094,337.999690661457,-50.4920286737675,1196.25729628671,13.5912552626928,553.526891180766,-101.232284966782,2025.51872874706,-265.869273335171,74.8693380938769,-5.98757139924251,2134.61214883573,-404.912484609597,1888.08928471797,-356.300406130828,1180.62486082699,8.16540840615826,1756.36469370972,34.1206196992397,890.793410424224,-117.369260429101
222.100553543146,-53.5585206845285,656.188908959017,-162.213095904142,793.935147250423,-10.85835879299,4311.30283601528,-435.935383396236,218.904509216101,-24.0595802638808,338.853821555654,-51.0177070958767,1197.6870315649,13.990554986524,554.338457610493,-101.612906430237,2029.17064979722,-267.396666815675,75.3945035150453,-6.2256109035043,2146.11023964237,-403.699781629346,1893.48024274861,-356.568395616675,1188.40090715563,7.69849524016994,1761.60652076446,33.7905490712621,903.796463821352,-123.278834295413
232.225377698143,-49.274201302742,654.785092142089,-158.146037268532,798.014939103914,-9.94287873036184,4325.3407968749,-443.991340643315,223.065095965686,-25.242974833547,340.493075523215,-52.0014032691558,1204.1443942076,12.9564133586117,557.444220870288,-102.551193242518,2036.52054782323,-269.467939551874,75.6315895481432,-6.09937920464193,2163.38417144196,-409.928670619108,1897.82096306567,-357.770786926029,1193.80894043853,8.52880774175222,1770.75006726807,30.0806409206711,899.974326225399,-119.189263820544
229.753943480232,-49.9279102244833,657.426760043387,-163.585843950787,787.918038031838,-8.47909186544763,4301.6720600902,-428.256007641395,214.75176742858,-23.2386387778376,337.127938637322,-51.1119965989347,1191.76243905627,14.7402416208701,553.265488797288,-101.496647940282,2029.09918923404,-266.937559511738,74.7364558022222,-6.01621768792135,2137.80894661659,-403.957959803841,1892.83776057039,-356.930022351826,1185.65210160417,7.54493524998884,1764.66418522992,32.1352470031825,898.064732417365,-123.34472209564
236.883639617406,-53.2385829126987,645.955747083642,-157.266218555817,788.466889363058,-9.20465508390603,4305.82301346414,-432.489474119565,218.556290186781,-23.9033763142619,337.374056484626,-50.3312989014959,1192.74871415119,14.2024133518385,553.850574638339,-101.681687679637,2030.90254387823,-265.511178861669,75.1431820207018,-6.14157877257148,2150.51584898631,-406.60821377497,1897.06281099563,-357.670681446147,1189.67085870152,8.03185715372336,1771.46345022615,32.2492842456586,905.7804957503,-122.306490147431
235.391102535808,-53.6846808025695,657.354011779327,-162.779864664518,789.737584387401,-6.34606967326044,4318.58488788635,-439.551205853551,222.900414196816,-25.0439619133163,340.059152094043,-52.1729714830326,1199.16127553186,14.2915819157591,556.880424145209,-102.40797597762,2046.98205244826,-272.846131259755,75.4010645924459,-5.93603311012002,2171.4339641207,-410.899648403265,1912.81731753084,-361.261618444336,1202.82797854754,6.65120082380777,1784.45986332713,30.1179749643116,912.57109999295,-123.132064268294
232.781058807697,-52.4065937362068,642.669439767687,-157.646081954923,789.338673934973,-8.10062261537292,4305.49702578139,-432.702598007355,214.506218856288,-23.217917723325,335.449370078136,-50.3248152500711,1188.22420742711,16.0701884013877,552.99766110642,-101.505062059911,2040.84521126239,-272.175173291356,75.2124970032398,-6.09517418980288,2146.29301463627,-405.599664212899,1909.12279256813,-363.091068500541,1193.93888852911,6.18071408999758,1778.37771001857,30.4043006605405,898.526155625548,-119.793585338031
232.338066140013,-55.8877316952836,655.126204665845,-165.127605610047,787.283359617893,-8.32193015093353,4301.18712084026,-429.369466681311,218.219011672472,-24.134791461403,335.582241414375,-50.1372274461976,1190.24809003431,15.9767984628245,552.932078133174,-100.997095067635,2043.17142221598,-269.985044801524,74.7615238583089,-5.95122318771588,2155.81938107289,-407.154234937856,1910.27738907647,-360.043078949406,1197.33123266265,5.41171298011449,1784.30292344279,29.5829358630024,902.471017581376,-120.46182386307
227.222900890808,-49.5056481941037,658.61527157153,-162.642796707633,795.15440944239,-10.3214796427239,4312.45912068156,-435.903953886096,222.628262904346,-25.2544223334175,337.902628490345,-50.0759321922483,1197.39638414575,14.7578428608457,556.823010472585,-102.086154102093,2054.18252713389,-275.630401896049,75.6083146028713,-6.28263654340073,2177.60117898291,-414.913009362971,1924.61807654384,-364.191730992003,1207.39892524885,5.83383965165702,1792.31378026572,28.5609761842113,919.24974276585,-127.781561682728
239.389435761555,-60.5172485193223,656.373296865385,-166.528890525561,790.862245866269,-9.98298496662249,4303.55589892845,-430.427524239552,214.718771853408,-23.3250621667226,336.976200997916,-51.1231095667865,1188.9796032239,16.7911221356684,553.459434644645,-101.274724205833,2052.41153380614,-275.25461223894,74.7759546992351,-5.76440186575379,2159.84833298479,-410.282054969236,1915.17952771839,-361.229591582792,1192.37217477411,7.9137394585092,1783.51672791783,30.4373697897352,900.242878931238,-122.441651527212
241.288971117268,-59.8921989196969,653.314371103549,-161.126293627568,788.381741834492,-11.2754703578523,4297.33092874709,-425.845952202226,216.397450559448,-23.7746581979234,335.014228607651,-49.9163172017913,1188.28281130271,16.348214810149,552.939666306308,-100.972714870395,2042.89761421039,-268.296708812288,75.1509296528407,-5.98903451100663,2158.68589278391,-410.5530974856,1919.55954797555,-362.931249030287,1202.34478260653,2.82160782674268,1788.42735534235,29.3423489781103,904.783509817694,-123.399383893452
234.000365574487,-52.207935513259,658.694000897302,-163.771127696693,792.299640053525,-8.64885282238675,4320.36260459797,-442.359191456964,222.001781219794,-25.1035522250826,339.558719571671,-51.888242652307,1195.97313919971,15.5191182346997,556.312555797675,-102.072238453193,2059.84657417199,-276.978483983121,75.744926313516,-6.12229138217661,2180.6467521819,-413.722976802913,1935.48185249756,-368.015490158573,1209.23688409849,3.80706892602611,1798.87514699071,27.4399426438727,915.308567291145,-125.455695538121
246.058032158569,-62.2668646921942,659.917986146363,-166.204703236539,790.732988897134,-6.99283244624078,4313.63376539497,-436.533719954816,216.004715681225,-24.0868198821178,339.102173691689,-51.3592652115174,1195.47948412895,15.1082371332722,555.483422385401,-102.078653950155,2060.68106238825,-273.940431577662,75.5441923201388,-6.04296269476433,2173.94204087408,-415.08563720967,1929.1104411354,-367.476938694467,1200.40358973421,6.4668771453428,1794.51142549499,26.7259660929238,897.246235751782,-120.507878548835
232.911209421577,-53.4561107661772,652.969272828417,-160.286940450896,787.809599807232,-9.08504726083022,4300.08802290169,-428.324220941782,214.781065786309,-23.3829447876616,333.519266319503,-48.7962648680716,1189.03510126714,15.947898869854,553.657484817703,-101.368671741034,2053.84708676296,-271.155060484521,75.3152250904028,-6.10039160381826,2153.75357696367,-408.301746789762,1926.00001530111,-366.667599431996,1197.3757594958,5.61278142203591,1790.25331035865,29.3236405877939,898.570081571953,-121.685454928254
230.423928829316,-53.858381430532,654.671876221755,-159.160293682462,793.679166558012,-9.21141722272329,4313.32175575285,-436.276599037812,220.51745850684,-24.9431309907719,337.560568581776,-50.7155206194418,1195.20697324255,15.516777419475,555.956516247838,-102.007424728817,2064.15903846437,-278.565565327915,75.8057682375061,-6.1499841669719,2174.15938399045,-413.291440405827,1932.12310288115,-366.336822126344,1208.15332643917,2.57895316511079,1796.10800702825,28.5765850775128,906.556007268836,-123.230898138861
233.139178910245,-49.1371551383034,651.50845505167,-159.961260095978,798.16579364193,-7.95928167697762,4325.87145448151,-443.086083326502,224.900304835826,-25.6495304029158,340.263714454401,-51.5792567337416,1207.12239540162,13.4131027279684,560.994952605439,-103.848955654175,2073.09154545626,-279.286636523239,76.7467449395931,-6.31911181606826,2191.54960693364,-417.982631974765,1934.51454702976,-365.840271290672,1211.75696405339,4.59393559188023,1798.63175974535,28.3852542818228,900.879521672472,-120.744105932628
226.965389077036,-49.8810350510085,650.280408034536,-154.763239102656,792.251150641488,-8.75999165578836,4312.01748033706,-435.749234863002,214.157881403803,-23.3516667519184,339.332513750175,-52.3803728552881,1195.59625891795,13.991999284514,556.579704992958,-102.432932039945,2059.2603647693,-274.510931968478,75.9140117488659,-6.34555389388217,2161.20663524614,-410.818436266254,1931.01828158612,-368.361358090824,1205.81826886694,1.276777197418,1788.79728682355,30.4269880721326,892.884813660143,-119.418931642394
228.001803221208,-50.3702445218113,667.775516393794,-168.317757651407,792.444543755285,-7.22472213985612,4316.08086996496,-438.400089332201,218.424954223758,-24.3312868805308,336.454254443697,-50.4192881982379,1197.48232263551,14.5095874772574,558.404014051278,-103.145772306746,2064.5758462682,-275.814712703207,76.0487689285401,-6.19623278628,2172.38865949514,-415.888585159036,1927.23022675197,-365.597760975512,1207.13338042868,5.54703914414209,1794.50545598552,28.0432108192392,901.216499833963,-122.637624893792
230.816392212367,-54.7316742675979,657.42431120385,-158.633464573942,801.368910165815,-9.51883189417369,4336.45709210823,-451.616519719935,223.458374643778,-25.5248032606532,341.324311830701,-51.8179194616252,1208.80885008588,11.7419436147663,561.49595145023,-103.81021809334,2071.58015864762,-278.136871213235,76.7512587675372,-6.38390072807579,2186.13934560472,-416.085437558062,1933.97779715137,-368.446310413509,1220.31154013698,2.90663919724006,1801.21774120956,27.0799171289218,915.009235093913,-127.551691458849
236.680734848329,-53.2829852825953,654.247830570903,-157.438714690379,802.38169685762,-10.7482383594491,4329.95093782386,-446.936185241165,215.848232180736,-23.8334744183183,341.393450765613,-52.2229382531982,1207.85688790659,11.5543326596197,560.101546869222,-103.286665116223,2068.53164674513,-274.986713107206,76.1102145238278,-6.06531209505691,2177.40763271404,-415.118778558016,1926.19528258634,-364.690946614158,1210.27208969108,4.19117221493075,1791.39726039647,29.0822145914292,895.066620827176,-122.496153642158
236.760980415447,-54.4701761956546,660.240045246079,-165.767172045337,799.470799160374,-8.71724990764958,4329.58821132648,-447.716750408948,215.449544019081,-23.745464128489,339.160015418284,-51.0904148591666,1204.72416924742,11.8142517651487,559.906639430785,-103.677598436519,2064.5163596804,-274.444840416016,76.3456744033594,-6.23888579343128,2161.83538257713,-410.864089439939,1922.23849993268,-364.772689669958,1211.6786119259,2.63895449214332,1788.76927302286,30.6588556249235,895.860018434889,-122.333383117792
230.006451034811,-54.3824900187703,668.564424371953,-168.921542537106,805.628217615296,-11.8889160003638,4342.60069488389,-455.116847714817,221.199814864575,-25.0063556328967,342.707423377047,-52.122610455547,1214.56362036814,9.65191654404428,562.345831198366,-104.032056211483,2073.0017907505,-277.010957188255,77.013914742775,-6.58231487949656,2179.77620132491,-414.579407491599,1928.98830560708,-365.073226468526,1221.38048831039,2.32129554611179,1797.50150467849,28.1673307792973,905.544239897726,-123.567644629984
237.581557322425,-53.9968246655406,677.33226593365,-174.027982051461,812.205029109107,-10.9345309782132,4358.46545035475,-465.309882267243,225.74989523357,-26.0990446350988,343.959180177898,-51.474727016834,1225.81342684562,7.66756071640998,566.833027465453,-105.331773892329,2087.51705196997,-282.185584084903,77.6061349850883,-6.49275967888539,2209.3001349027,-422.410064009703,1941.67194183713,-369.94632661621,1232.91767625954,-0.078952971818572,1805.75317390059,27.1192622548911,906.772946735218,-123.386857355194
246.853667469456,-62.1642383582072,661.767328823974,-167.25775849536,808.149257415116,-10.4019719825857,4345.19990950709,-457.500913345351,215.58799579863,-23.9695113654382,342.694221448331,-51.8295145608525,1215.48719675046,9.24019918399209,562.283614249247,-103.685616376238,2080.61841759687,-279.796315880678,76.9349285260369,-6.55068728928419,2174.10420615805,-414.23660160543,1931.17980219446,-368.803146867969,1224.3737214944,-1.56454073260194,1793.68669822787,29.4560113100587,896.24612025432,-123.001906970298
234.344226778225,-54.5605710804908,655.625415349705,-162.101454865041,811.606892962475,-13.2260324142404,4350.42628600323,-460.900437689057,218.266434942035,-24.6227490506206,345.386290101382,-52.9392732293507,1219.55812693409,7.98900031786078,563.933999678448,-104.468138226962,2078.6837003092,-277.451183757155,77.4589941866781,-6.65596044381909,2180.69716852514,-417.767048482098,1923.97370357141,-365.682242543827,1226.74031835978,-1.9998294672266,1796.88569324201,28.2597813125397,898.529994657491,-122.928151305166
247.380114339126,-56.3911980842973,670.366073655529,-170.811669358667,814.157061681414,-11.5900330904525,4371.08258792055,-474.763650533504,223.213632996983,-25.5128562414477,346.40645501689,-53.3513815971016,1227.74593468759,6.73441306375095,567.038467547186,-105.658583599295,2086.70552361523,-283.365124160976,77.8288725270578,-6.70766233097708,2195.49308871982,-420.629997547828,1933.51129253557,-366.750374106131,1245.2256381936,-7.3789004213069,1803.70352977666,26.32222377134,912.989123765002,-126.063874116408
242.88173429083,-59.2882173255576,672.996731573156,-174.581277046839,815.089074131029,-12.2798519241232,4360.6394077734,-467.103686861283,216.10944056421,-24.0330779274571,347.193894219449,-52.8804213445187,1224.97690918516,6.88862166266355,565.950171092251,-105.201252107649,2086.09219621057,-282.090280502415,77.0131417311507,-6.2073378209295,2183.75068362017,-418.247820981557,1927.03895515556,-365.99574665926,1231.74261291207,-4.03856064033466,1793.76872249114,28.8148848170434,893.465695172188,-121.929618938813
237.859426645751,-56.2741355810336,661.860184678924,-162.992257879358,817.692325725796,-13.5835222646025,4360.8215556413,-468.569969671016,216.705483263716,-24.301522126616,347.671738645277,-53.2701735690237,1224.39363170226,5.85077372125726,566.220095291944,-105.764398263327,2079.08301637817,-281.688649031189,77.3881344787694,-6.56356736261883,2174.76580910265,-414.030131258661,1922.2785443091,-364.573862029008,1233.66593767587,-3.78935405717293,1792.88358044314,28.5445431977029,898.454918540707,-122.807956710236
245.790100654833,-57.5342064422942,674.001676742894,-171.663745037213,820.299859422308,-12.5648783414031,4370.67332352747,-474.211018319148,222.275674765903,-25.4699466580441,350.354194436818,-54.9661161161076,1231.15886386564,5.43863809556106,567.580636742851,-105.436737846577,2084.6421591036,-281.918871359821,78.2003454902091,-6.94128414295367,2196.19029276078,-421.35631219373,1927.10659601056,-367.211071972236,1243.21830420655,-4.66873416553348,1800.31128196193,26.3480358014098,906.268185332366,-125.978194093324
238.977658794525,-51.400096735423,674.993024773535,-168.845769303731,824.478760237051,-12.3189157395207,4393.02469529395,-488.946033342289,226.950417950413,-26.4739867927517,350.702631765417,-53.8107187419382,1240.87373375173,3.80160198793975,571.218570059116,-106.444061393857,2098.69562766496,-287.14937717599,77.9410842560069,-6.65175924626754,2205.35744199554,-421.126056113785,1927.63509509944,-366.350839356523,1246.44710840606,-7.13201464806778,1797.98160328789,27.6128124410439,903.022938223101,-126.145514322908
235.52789986079,-53.2787720894019,674.03192109372,-173.486475765718,820.284929970415,-14.0832223417146,4361.23661979682,-467.929312791215,215.542709168491,-24.3537671592518,351.649471118125,-55.4968069940784,1227.70868018112,5.5039417960536,566.828083707325,-105.258787900753,2078.50868684224,-280.913241950552,77.1924556592358,-6.65856519720759,2172.80371032888,-414.547858860422,1919.65620531075,-366.133295406535,1230.23690368131,-1.94824081931034,1789.17928168584,27.97288847198,892.695638680762,-122.859598925622
242.069273953694,-55.8960479476401,655.997679644408,-161.185339848374,823.366297692868,-14.5309237468089,4375.11884160166,-478.949390656665,219.519669785718,-25.1094913790979,352.026560533005,-55.5792311477723,1228.79569337852,5.66824057646892,567.421248166607,-105.437221824098,2077.50543574108,-281.178830913988,77.485067656305,-6.53608289265541,2176.83114880787,-415.618835127175,1915.47862392667,-363.846403990383,1238.24148869968,-5.00556576412303,1794.09980548677,27.1812860545526,902.353304106369,-122.886709375364
240.587395407875,-56.777055605547,675.395658078658,-169.827773157032,829.742690378345,-17.4846991782616,4382.20686157939,-482.375229521623,224.42528754038,-26.0466185539704,351.144494403843,-54.460821909228,1235.82261241691,4.52170818882416,569.71479393648,-106.231980807877,2083.27263527659,-282.40997957257,78.0871235815637,-6.82102568103067,2201.68337742817,-426.109244384338,1926.81082855449,-367.470569038326,1252.75912948306,-9.34891187606853,1802.16227682368,24.951479340008,913.649144562035,-125.852449662153
235.598255527952,-53.1689598498554,676.581929662932,-168.837122543426,828.219251586855,-18.4112495238442,4372.30735644211,-476.004697702668,215.929093956246,-24.3251830378264,352.36920023502,-55.2458406155801,1229.41731192606,5.70259016532861,567.289653157001,-105.368856931698,2078.75154964211,-282.118469900791,77.5357059053819,-6.80789448471154,2174.86094093017,-414.164317680128,1913.89815066316,-362.721621890884,1238.63000074204,-8.67755989963155,1788.7582048449,27.3147995303198,891.592235618266,-120.639749867632
239.936144047706,-54.7131644988783,657.107161486218,-160.591638861512,821.312505813329,-13.2202413131185,4367.34949354564,-473.338985196603,215.614872627317,-24.0510145434056,350.944029399029,-54.7799062886045,1224.14937960623,6.61928749019162,565.641575725258,-105.176215609623,2069.71795504346,-279.296982357,77.2678669971414,-6.63802791782152,2164.95673766998,-411.050975027715,1908.99426349097,-363.154965760604,1232.15802439487,-4.7254224308065,1784.56549899125,28.897839710369,896.735180714928,-123.769521008356
240.158025259193,-53.7078026037693,678.025447519419,-173.829833620179,825.575415837587,-16.4752784135696,4375.71024428542,-478.639158219285,222.071565859572,-25.5291825074001,351.734280079613,-54.6080708178678,1228.88986277992,6.63310225363571,567.827652206022,-105.660827891678,2072.21876451459,-277.317231839427,77.4672269415249,-6.62867556345897,2187.08151695273,-419.162370321563,1915.05276241914,-362.608924550783,1241.82100682245,-7.30118879169704,1792.59984797545,27.7697849942093,901.677217239312,-121.15904425707
229.956797048315,-52.4136121745884,674.507913762587,-171.889775625464,831.976449457785,-17.2415862377608,4388.44247711469,-486.243207324942,225.345741239736,-26.2144941327684,352.854261074994,-55.8106388140303,1237.20262787449,3.9819944524335,570.494653703611,-106.681056051998,2085.56338583312,-283.113993793668,77.2361974113133,-6.3108566591971,2199.28350586091,-424.891148403478,1917.65493971233,-364.26832797074,1242.6181676285,-6.86027737276692,1793.90754618542,27.9952572232765,900.673668912049,-123.673696211756
241.633631812485,-59.3852012167024,674.513553038533,-172.241137214646,823.859735956919,-15.0928543099379,4368.62402227512,-474.535820252703,216.314117973714,-24.1206304154504,351.827187415713,-56.094881878687,1224.33202771681,6.81910340411321,566.371976299807,-104.944280493393,2073.74700288169,-279.422639690819,77.0553052638863,-6.65563024845077,2172.21422201489,-414.485515490281,1909.57449987225,-362.316921403939,1233.4729617075,-5.47422142114259,1788.88251490344,28.2076231482541,898.560587345061,-123.069717589807
239.007004056763,-53.081197077699,666.620288999586,-170.368725177537,828.599229568903,-17.774773405265,4374.20523685003,-477.055845309646,220.649367559235,-25.2498233199763,349.560610272108,-54.3246637326693,1228.98538256314,5.54987957909422,567.666779768329,-105.731756910621,2068.17273480345,-276.510531118533,77.1506066437234,-6.65434573120874,2179.62594128215,-417.489583041509,1912.80592211306,-364.115393965795,1239.1135297792,-8.60034667907834,1790.38894788141,27.9458007084898,907.581258361618,-126.426337544428
245.386421190407,-60.33432246672,663.867464234359,-164.308611942268,830.596725650223,-18.809506414649,4383.82063503668,-483.183914746365,225.409236511185,-26.3950842782219,352.36283358651,-55.2807208428988,1234.99095061335,5.55518206408806,570.077273326668,-106.526257136841,2077.54312321308,-281.923218453004,77.5824562635051,-6.65642969751757,2199.29208790321,-422.245553860672,1921.82000286391,-366.405761973966,1245.73012676313,-5.27943982841237,1797.64113427476,24.5171453569784,914.444712518032,-125.71296884944
241.784804547204,-56.4232067499695,664.807751926677,-165.272376239913,831.040068942962,-18.6558587915102,4383.17615632556,-484.299156227603,216.883217227414,-24.5504234497812,352.198345374602,-54.9540420925871,1228.89296903764,5.54077071314115,567.379441190336,-105.643432239901,2071.30395631134,-279.605150041962,77.2578689158794,-6.61470129193025,2177.73091518913,-416.477170638014,1910.5266472514,-364.115307132912,1236.37726148268,-6.41045829037103,1785.26307863229,28.3151686770456,896.561484104092,-122.248347080398
241.996459410603,-58.4671960028397,663.422577687464,-169.22189280371,828.773277182513,-18.4472030726442,4372.66981575693,-478.123661497615,217.6996631376,-24.8120499734741,351.222141805122,-54.9097554928222,1225.88719635726,6.50332211338354,566.535603706604,-105.566545253168,2068.30627832276,-279.531544723234,77.19780585487,-6.69739600892287,2173.9668846363,-414.056175472089,1905.58049803464,-362.109600524054,1235.07085129831,-4.48565319915984,1784.10930564919,26.8896690136711,901.79182311214,-124.721492455425
249.751635218525,-61.7915935213992,678.07530610386,-180.605899777416,828.757899806907,-17.0854093843492,4377.95203613412,-479.31599871357,223.696113858392,-26.17804530845,351.014020883324,-54.6700051364209,1233.67831170336,4.34971512013602,569.701497816982,-106.784361667493,2074.51159078887,-282.203992951228,77.9096576787007,-6.77438824372488,2197.62630446449,-422.141746647026,1915.98626293371,-366.024686311461,1246.1752989425,-6.71786868590527,1793.15758124384,26.3387689852532,914.871428022626,-127.554939486002
244.70090348946,-60.5913247587707,676.55871316716,-173.883494119126,835.531445441366,-18.9014508807597,4393.9936780322,-491.783018815251,218.555704325856,-24.925366970751,353.603487494024,-55.6404761574319,1234.62954608953,3.99951498404486,569.647954868425,-106.784619879726,2077.73133685982,-281.822043130398,77.5673401813007,-6.70260715168022,2186.93160960914,-419.277103492794,1913.48813934058,-365.946130677796,1239.66679542618,-5.29565513213343,1789.10331324611,24.9427239640687,899.823667653228,-124.260048038433
245.252008049634,-59.2146131214697,670.054448070248,-169.777352271621,828.01963737333,-18.3402221388075,4380.74491755348,-484.332286653103,216.770545875237,-24.620701348543,350.022589300182,-55.4218510660818,1227.79983299835,4.85883411524524,566.238608400103,-105.555127200944,2067.50244589656,-278.050775377895,77.2822245461476,-6.5532372373308,2178.91604910279,-419.290576747605,1913.19678458416,-366.357780525946,1240.09643201032,-8.02989776456896,1785.69715916161,27.0692511565051,898.796821650728,-122.907596076916
240.661661290872,-54.8470412506662,653.444472742177,-156.066301929683,833.170234149628,-20.4102571833989,4387.33589100824,-488.090658505649,222.181425408687,-25.4828122802189,353.375920073659,-55.6150606714578,1231.79699824017,4.91583957805061,567.643531255047,-105.734359210039,2073.64088776716,-279.651938165937,77.7083872310053,-6.82264666489905,2192.22863342323,-419.094721166692,1921.40507995675,-366.157519596314,1246.11535591768,-7.72904773817576,1791.73503117334,26.9997466220873,906.895222973344,-124.577289690169
246.251572444063,-58.904825582876,672.947174150624,-172.147512856475,837.315810799827,-19.707633115876,4404.15833555672,-498.007149485118,227.997507408513,-27.1654417970163,352.413485470706,-54.6919332410797,1243.46523640828,2.25122921298853,572.342729630136,-107.482799853903,2094.32116706754,-288.490582209539,78.5924047848908,-6.95664790713055,2214.18037405424,-425.976856390787,1931.79978388662,-371.752980037072,1247.9940220519,-7.5658547315405,1803.14622147604,25.0876614250894,904.175606168068,-124.187328598591
244.955934527401,-58.8817640607956,672.070469317823,-170.036701101154,835.510250836132,-21.9938447192486,4377.03420488746,-479.540372627511,218.363122340788,-24.9249069876078,351.771314281769,-55.4967719299784,1231.91167876709,3.34851450199789,567.663290974783,-106.197733740453,2083.35419262435,-284.390114940021,77.3107644961034,-6.66501014181597,2192.22256608864,-421.837635157795,1920.93093171535,-363.796196289243,1238.88570104497,-5.99574839308694,1796.07873044262,26.5180892641425,902.554911637277,-125.610180143729
242.391628931812,-58.3855540540564,669.10653791759,-165.382800232753,835.438047029296,-20.7569090293686,4388.84806154274,-489.6720287045,223.499459820063,-26.329674784333,351.384956283528,-55.2073654627856,1233.39555436661,4.02926692278044,568.850335885602,-106.358464447714,2090.803478914,-285.571698355143,77.6943288700864,-6.79116058698738,2200.41248348048,-424.523075484105,1921.15221956064,-364.619521653126,1246.57379997451,-7.39351273373759,1804.1153032934,26.1119240866857,913.574347787466,-126.412416351101
245.653839283739,-59.1641871452761,676.167923553004,-168.923980525064,839.234890137191,-20.876830258543,4410.41649383277,-502.770797931303,228.045799956237,-27.2125972947678,354.251170554234,-55.6375752445702,1243.15991893515,1.63553182368464,571.545217296873,-106.926940354726,2102.80382578601,-287.495521205543,78.4933409065408,-6.9480399238295,2224.46504511224,-430.720606028097,1939.82246438274,-370.915992147144,1258.39035647861,-13.6738271270386,1816.00322328626,24.4425021181004,922.162568409251,-130.266793611465
242.176701569403,-57.1804223981008,674.197530883376,-173.472143891287,835.433784692758,-18.721469667096,4394.6962997177,-492.12148010362,219.743916590457,-25.2060780232747,352.542002517069,-55.793868980576,1235.76779438526,2.37110649148884,570.116875852129,-106.912019668562,2101.66785056224,-286.630424005507,77.6544810675432,-6.75936094617434,2200.72922245883,-425.128776964801,1933.73201706483,-371.195405345185,1241.72312021981,-7.97999521417179,1810.28420033071,25.5345375715311,902.005237452481,-124.864110271153
238.924385196469,-55.0107575262778,684.06706033265,-175.565149875843,833.355097355582,-18.1955320834693,4388.42751292157,-487.582048362612,223.554455208339,-26.0149966896893,351.776622772709,-55.6107345312128,1237.32693635847,1.87608801105921,569.763086304247,-106.635906266162,2102.67467795787,-287.198136586564,77.5737894121776,-6.65629854642578,2203.59957324837,-423.047036263665,1933.59500442595,-367.760626637092,1242.08759059833,-7.0345095806387,1814.62536110347,26.2231277919825,909.373311330326,-127.552500153188
239.611056825586,-55.7101507689643,679.866925329123,-175.925600914083,840.320626696443,-21.0829558406834,4395.80700073713,-491.13901575385,227.83866530424,-26.7929680610557,353.430095587752,-55.5993793217431,1244.76730769772,0.935836113708736,572.862598695784,-107.550764476443,2108.02503611781,-289.122815727944,78.466931630133,-7.05378451337002,2217.01697676518,-425.719606083633,1937.88048270617,-369.42889902569,1248.99424553886,-8.25210578255908,1813.40910612161,25.3774290347948,909.322713130195,-125.584605756343
242.337653698402,-57.9045645249867,669.584668825995,-165.430561090217,833.627732765334,-18.4227786985917,4389.36139636287,-488.595573825347,220.070279102193,-25.4098172907509,352.533278487733,-55.0446066764325,1235.88010048846,2.42078521627454,569.528693580154,-106.659253069144,2093.41016931852,-285.910423334262,77.1566399756745,-6.54903331314531,2190.05883623009,-419.470938496449,1927.42571545014,-368.680962079732,1235.40405139217,-6.12090112186189,1803.89000643399,25.0874795675428,899.473393081037,-125.46468301064
236.725358297562,-52.5807822624559,673.047988786936,-169.899951735483,837.49460642292,-20.7465027231812,4394.56766943068,-491.673717543412,223.173129940682,-25.8803563244658,351.756754132309,-55.2797843748611,1236.72750340597,1.65311206857914,569.995843887788,-107.024951392465,2097.61014067439,-288.939619702601,77.7370248708013,-6.73587699350559,2196.43480870969,-423.403019053314,1922.93208135091,-364.432031164547,1239.69584423114,-6.27359899908026,1807.79467181128,24.9443017011625,909.634929879694,-125.994572895043
234.212778939564,-53.050450421111,680.391380167926,-170.104657302605,839.255586877689,-20.2293695168108,4407.02572143734,-500.567595837053,227.444993761825,-27.020522839886,351.981219833699,-54.8362893614662,1245.53174646862,0.0536369792541406,572.564084316084,-107.364838035735,2101.22780527046,-289.532027672749,77.767185122967,-6.81243405753318,2204.85628691729,-424.911669477424,1930.464400492,-366.447188358524,1241.51140290651,-7.50976807316849,1808.35375043778,23.8139598396414,904.507921845748,-126.052521327167
238.156461248294,-58.694774832959,680.382901623781,-177.950426431234,838.468617161583,-23.6400738175166,4384.86004352296,-486.319775784244,217.512979826941,-24.5747450243917,350.758006882238,-55.7740500670567,1231.77458100123,2.9931394873807,567.877973794741,-106.298409790191,2087.07020679135,-285.901749031807,77.318768039196,-6.85673831418939,2174.43107247052,-416.257014932901,1919.58738352308,-366.417894275249,1226.90892776006,-2.90076285628716,1795.58475579659,26.6096654612521,899.146204653401,-125.181768377629
249.44376653653,-60.9062783991947,673.817672704158,-169.545392826097,835.805280577823,-19.267573335549,4392.85146468561,-491.763267551243,221.294266418057,-25.475086635656,351.291240946556,-55.1053248693697,1232.78001240635,2.73436829473402,568.866326306601,-106.665044984928,2085.04224742516,-285.33140642944,77.2330126265432,-6.52875124669463,2184.55655216441,-419.265267932973,1917.8876644422,-364.980074718797,1233.1028110137,-4.66439049521584,1799.59026904214,23.9993952833315,907.973948495045,-126.470240737737
247.281629130793,-62.4169674045582,678.019507749354,-173.27128145241,838.690313366028,-20.5010146494049,4405.54746340995,-500.157647967044,226.265020855978,-26.4844180761583,353.594900077843,-56.2116384900391,1239.47608693032,1.7755739233769,572.52112318294,-107.908055769382,2092.48448789607,-288.302604852067,78.1754963773733,-7.02047595334292,2199.38654460222,-422.245933546546,1924.18798612747,-367.319264924816,1245.62630960413,-8.75166873725143,1803.86943328295,24.4277689262287,919.841837939729,-129.579959913948
242.873993414,-58.2796993879785,680.06770867947,-172.569801475393,835.194775736002,-19.0239094982833,4391.95106345015,-491.575541087203,216.880272953569,-24.1833105487804,351.803741193739,-55.5847289420917,1231.72522849092,2.34029334682999,567.501704660703,-105.836381671609,2080.87679186943,-284.631990309168,77.1565804641624,-6.58809697939779,2168.06087475506,-414.221110969755,1910.35307003929,-363.025489194702,1226.09315453332,-4.22285121329648,1790.37354054962,26.679050395662,897.532112938276,-123.161449113756
238.933560095423,-55.2133801210912,670.359680423043,-170.463124727953,835.068921505033,-19.8376746653401,4390.45055320937,-490.739916401589,219.877015971252,-24.91900218918,350.278813095765,-55.1734163583673,1229.47084889238,2.88614800814622,567.265852293124,-106.190431542139,2078.57194126857,-282.800719150818,77.2859016028598,-6.80716892742412,2168.51216251629,-413.57221799492,1911.10138184663,-364.685088125175,1226.74496463266,-4.12622538236633,1793.20400272547,26.5081094899463,906.224125083305,-126.762468833896
251.240267881053,-65.1174116783046,663.278068163271,-166.223147580958,839.208033863249,-21.0798945225439,4394.25032759002,-491.218581474769,225.381954930052,-26.0639277714527,353.119434238069,-55.9143926308218,1237.62842789522,1.55646761976322,570.266242352733,-106.821536321762,2092.65991903632,-288.751678478255,77.5509643778631,-6.71986183648405,2188.92068738615,-419.937181561393,1922.19651422421,-367.310770047525,1231.75208186678,-3.68303744639363,1802.48541257898,24.2433569090926,918.016230429009,-129.422249668769
241.453846088992,-56.5224703702197,676.149869687332,-172.66192692451,846.643717874179,-24.0161996601682,4419.32741989495,-508.372682954561,228.149654917575,-26.8374765425929,354.734677549995,-55.3933347591146,1244.36127650368,0.446303893399461,572.289865248057,-107.482880562267,2101.73460966675,-287.312510977169,77.7735105373974,-6.79463322795419,2197.3946234552,-421.317586061171,1920.54250923187,-364.903195123603,1235.44421720771,-6.29783519541245,1802.70604126986,24.4441953593117,905.66073063146,-125.103556441173
240.103081421914,-55.7864383003222,677.610551685791,-173.119180998669,837.59225476672,-20.3251473723394,4391.38478030626,-489.577215124629,221.031776674783,-25.4768349533287,352.666858559232,-56.1117648152444,1233.79900494342,1.87700661402862,569.108238858021,-106.593623263234,2090.76001314344,-285.583174364714,77.2337865706762,-6.58343907066381,2175.07259132012,-415.062901720039,1920.58628744956,-367.818514952453,1227.2904607788,-5.05941403385968,1799.74663218684,25.0406840164079,905.358514474869,-126.267432533317
237.088705297738,-55.4258998221615,678.598556690136,-173.659371739209,839.162874795515,-20.4224011598425,4406.03343626995,-500.662638134808,224.968989938661,-26.1359796182461,352.572474011083,-56.0977569210846,1236.85571783122,1.5383630431649,570.68541729106,-107.530409608866,2094.48224659138,-284.788275920565,77.8685302995762,-6.84763708281133,2189.51594585235,-417.387504163438,1926.18003392936,-366.695166687756,1230.75811161666,-4.98105696109669,1807.19525435205,24.7768802577874,911.106951292573,-126.674153929311
245.823241457547,-63.0754095968584,681.822952779366,-170.235682321521,841.717821699756,-21.6788260408273,4411.08680384715,-502.14751387211,228.141392469685,-26.8873333165739,354.934722354332,-56.772552911799,1243.23049935395,1.01047799006752,572.527697064613,-107.325444992104,2103.97293386471,-287.848378941227,77.8616463723591,-6.65470401090647,2196.59771415051,-420.790368824032,1926.24107797012,-367.479054085479,1229.08757636014,-2.5311679970277,1806.1460152057,25.0321550066941,908.425814622053,-127.687065063782
242.670971077979,-61.5859939085683,672.961934445373,-172.113766116967,837.040001490482,-20.9981258969643,4401.9767212977,-497.643033674064,221.575660797762,-25.2381579620552,351.309477853404,-55.4370197102362,1234.57683366276,2.1156397064958,569.418621233622,-106.989351914614,2095.59851523503,-286.730036409995,77.5699182300365,-6.86025321798204,2174.73310590221,-414.478593700373,1917.03163616544,-363.900889985877,1222.18469473463,-1.21426807144897,1799.95535315139,25.6270200527206,904.276719524103,-126.394111074985
242.42554101719,-58.0289615920895,672.632325602023,-164.813028089357,839.177036821702,-21.495521544129,4400.89132085586,-496.141507998225,225.202040439032,-26.104741936685,351.854690793524,-55.5280683497065,1239.04541755585,0.850000041771213,570.640672421269,-106.947813010084,2092.16437402616,-286.229128636508,77.7840939669771,-6.68485403819493,2182.60178148782,-415.876780878208,1925.23432354826,-369.659760900787,1229.40345615708,-3.56829034802049,1802.54178354706,24.5207071435224,918.393036540017,-131.146272235863
238.140647139137,-55.4509467027598,675.946294787905,-175.525291749948,843.023488384962,-21.2252669103211,4410.50565242139,-502.407668222659,223.60350443515,-25.8281385581692,354.506058343464,-55.9689213686857,1240.84182983899,0.137293652695573,570.203022596736,-106.83908711901,2093.98276190722,-284.73879577169,77.748276598356,-6.85913066279514,2184.00684587044,-417.913467957736,1918.02641583582,-364.490995606922,1219.99973400645,-1.48847022268936,1795.54712133848,26.7152408666218,905.5910519463,-128.332831480852
251.678296966619,-61.2996202756293,673.858533988919,-167.598445192048,835.659463525031,-20.3101118110664,4385.85368003463,-485.715806978203,219.69390597979,-25.0237507393477,351.336053246979,-55.0242064257913,1233.0985388503,1.54818819585005,567.074063911221,-105.735677810206,2083.93599099746,-284.680179072895,77.2636574997161,-6.70624720797002,2159.92244848461,-409.532250256548,1909.53162252661,-361.711594087792,1211.79478207231,2.23797721416352,1791.2989519859,26.672221453644,902.614435789762,-126.665251209786
248.141681196974,-61.6713335054441,675.253874187162,-172.704549698699,831.638853597742,-18.3362566338758,4404.46493327738,-499.236779959015,225.10940932269,-26.347959864097,350.525812232187,-55.127689992446,1234.358439605,2.84798494907927,568.839341143295,-106.997054382789,2087.43084479756,-286.227310648443,77.7045177066577,-6.92421786855406,2175.90715277832,-414.343221873582,1918.25160479855,-366.654703656687,1219.21836685873,-1.05468379296301,1796.67929641145,26.2799465337549,910.049442218682,-125.136627699223
245.165353602,-59.4688611563091,677.809779003262,-173.403977336161,840.780137982095,-21.8870541405261,4412.13101237611,-504.30099459039,224.531359413244,-26.2318120754793,351.551712497017,-55.1379988378572,1237.65083898288,1.2189027052802,568.7841058385,-106.463580002808,2091.931442906,-286.279412480212,77.5996973205925,-6.91701437438776,2172.7370770198,-415.18876290658,1907.13628880551,-362.342477304311,1212.73102808323,2.23551096834105,1792.61228218211,25.8371804770913,903.472571312023,-127.515406668799
