782.582819900292,375.15471657697,539.66860489432,234.086038534963,409.401860485758,96.8082767681191,312.548887732307,3.86398080525586,241.02083068949,57.0041362979829,437.214325830873,20.5777145414286,353.229272790421,53.1273362003635,1967.41901505127,-172.482407590041,247.46501148605,10.527023435352,560.134471857295,282.893356793733,842.81484968318,26.25077829654,702.921436111611,-6.40737137646381,317.678681614731,48.5854080024935,865.327282788683,127.921338459076,836.157264173618,-17.0116843100479
789.894730379489,367.137867661046,542.286056062558,225.092433122378,410.372666858945,95.0888944260931,311.920629649012,3.60270679440703,241.376464412587,57.6065470728339,433.85967414571,21.7521897792957,354.928604963171,52.3827494621107,1970.47368816604,-175.548060816003,246.611139843836,11.6686472461764,564.889901996454,283.293354263186,849.482287249376,26.385308330297,705.929534789379,-5.51234608075406,313.412325204114,52.1009900516521,864.066291849745,129.384280024546,838.623728792205,-17.9686182619603
780.735061824535,378.53170558776,551.633035091657,224.44439911695,415.890882525971,95.1174121149396,315.033710713948,3.56494413613538,244.72203887793,57.9112170576561,443.93526327289,20.4270830161625,360.747489119229,52.1054022578601,1995.09296415579,-179.805141547836,252.219986914568,10.9582639733945,574.739343111241,286.982132229262,858.98999047462,24.575425225841,713.410007485307,-6.42329729170463,326.208439306337,47.8522717964478,871.893257237784,130.371007943858,844.835562562272,-18.6374818117775
783.143024567988,374.03097736863,537.861739151249,237.650154890435,419.340270376008,95.5437912545026,316.266820331889,3.21895992144432,242.740935166564,57.3309018334793,443.028146914499,19.9943454120928,356.907356162053,52.4214169484539,1987.67653809386,-178.830522065843,247.565589957808,12.1858910417825,563.746390119338,284.599556424831,842.706168540383,27.0424840736886,707.576017864145,-7.29807223078297,317.667257878236,54.5430802724512,871.309460216804,127.545196706497,840.046573246419,-17.4424940604665
778.004155420709,373.35439637347,533.632938879638,233.989648415515,411.79204686702,96.3545868817785,313.951382125801,3.85364732011481,242.881866536098,57.5189269643192,441.296254009419,19.3415399572397,355.593705687234,53.1039784908455,1982.4864464337,-179.064838078816,248.617883667742,11.5209450699021,567.580863533354,284.698585587678,844.115597940664,29.4745209523015,707.035968713033,-5.34564469496221,319.353131124377,44.2994127225103,869.72210077257,129.036831624608,842.118587765974,-18.3216565173603
773.17956893927,370.860192348159,527.188722605908,241.414327329031,419.186190932293,93.6037352141235,317.713478573965,2.64270020360841,245.656073171955,58.0287428870596,445.410976139817,21.2896387103629,361.847224474231,51.9542600314594,2007.72118142861,-184.219072441529,252.23361491486,11.2190713908962,581.758639500935,286.751472632382,856.236650793462,27.9980088939514,714.291996827945,-7.96745190471954,323.511208950547,53.736729990624,878.381237490611,128.066597584046,844.700598828302,-17.297431657696
801.496400326765,376.296773386009,536.131480026083,240.418022208315,422.444192568905,93.9319038051215,320.311371157709,0.00751819614704563,244.273512276181,57.1452712325522,445.100087083013,19.9758969917519,359.586140573658,51.6608873089784,2000.61860127629,-179.756759610146,250.767617591668,11.267113697864,566.420936938282,285.132754596795,842.976310724051,28.4919589818324,704.411267133927,-4.56289185895995,311.495409857493,50.1006457367744,874.569749863762,128.607370386203,841.619715083412,-18.3748375364396
771.593620981876,372.959895823584,544.213990918684,223.96476435785,413.999884307064,96.5001285496394,315.512136629469,2.83002849819255,244.435470819418,57.0143868055603,441.128668807912,20.6243602709485,358.077120430513,52.247248298557,1993.29581984779,-180.887082704433,249.140275788321,10.5692947045866,573.874229135853,282.833928171359,846.858561343444,29.4350105617909,707.792864737227,-7.51376238064457,315.962242409201,54.6991900713108,872.6266468197,130.09934580936,840.644113372994,-17.6978185098051
792.123189999745,376.253623734054,561.487935995475,215.371491760275,421.965523269257,93.6158449719692,317.243084334589,3.42066739221242,246.978447653802,57.6820611993851,449.217437271985,19.3390409986955,363.982530960419,51.9145741473453,2015.5908900017,-186.907610109936,254.04207606795,9.99911288394762,579.355074793834,287.002767122143,865.276975745514,23.9056143676507,717.860644759027,-8.66727769945286,323.251255764001,50.7907890816995,875.887078031563,126.861177773115,845.507986587668,-18.2691969267344
801.861948203706,370.95327441269,553.376510165011,227.200560364138,416.636219081333,96.0937870052004,316.013491145603,2.82167528699591,243.432430595903,57.0367588369145,445.39731561971,18.8795022352836,357.862197056004,52.3132721030692,1996.43825326914,-180.776645032581,249.198825283776,11.0632319915526,564.595832335435,286.764638456952,845.07505198231,28.9995247923445,705.295303160377,-7.41073762293724,310.867620531264,54.2033851620022,866.882499364826,130.816526985184,838.982148259654,-17.1847775663728
785.77933317296,376.260164924971,531.151794327105,232.950101702392,415.828320373361,96.3076566412886,317.184993881859,1.76886210184846,244.45723092868,56.9840033784079,443.293874641973,19.8043093215758,358.35481628399,51.9513987018186,1992.07697367109,-178.950010526345,249.534228884436,11.0930418217224,570.537096563632,285.393361086736,851.351472131904,26.0239754630367,704.956520862344,-5.15794122006748,317.38890463938,48.2253194455212,865.844858644985,128.476801582782,838.988548819496,-17.1045123686951
795.601696933885,377.761469196594,550.635827737319,223.879895275769,418.373361673348,96.6538697640428,318.319266054471,2.54053704442468,247.945398227032,57.344045299651,450.798031091199,19.213067232754,364.277199390248,52.1289993658367,2009.34361117642,-178.490982250408,253.86058079257,9.50530238363607,582.910290511195,285.442298985085,866.650784948704,24.0647589137302,716.770161577172,-10.118032624823,323.124077558354,46.7924682945124,871.661792895395,128.364995781554,845.276830964695,-19.1903434127716
790.932813860964,368.198008092679,538.35367469206,235.475989394154,413.061280322136,97.4644127175659,312.872137600768,4.38903303736528,242.236294002378,57.5068880575505,441.120903897168,19.7317540015988,356.786697152153,52.3210470997062,1993.31921851135,-180.487812428248,249.184011608045,10.5300126498802,565.385093519978,282.321740077104,848.193217636195,25.3519686825802,703.120439384353,-6.73384663159369,310.910024698914,50.1872556689839,863.925450077351,127.375723221886,837.869154287888,-17.3274849324345
777.515351986429,370.83473235164,530.988932813774,225.030132819265,413.931697863332,94.970716759119,312.471265401094,3.54623267593914,242.760956855835,57.3260394272009,440.275657728511,20.889354427517,356.828239846704,51.8153374876568,1988.93645130928,-178.68301253382,246.468669945397,11.7779850208991,563.500348009946,284.239699642032,850.05097231638,28.0482756048826,703.08622177287,-5.90552837696046,315.301719516798,49.8790199190109,859.019663848169,130.606334612867,837.763742561525,-17.2790436845877
781.96245596885,378.391355175798,548.214490763467,226.850673476643,416.895653418306,94.7061396932042,316.695031653287,2.08811748758745,246.706650365667,57.4890555990179,447.477922496309,19.0276202632322,362.278276379085,51.8799513497664,2008.91191553511,-181.201755073146,250.957315176784,10.7954438248663,574.234580011986,287.03840886282,857.613698687471,27.0879724047998,711.393858610659,-8.35271711728129,322.506626660639,44.1441844432878,866.056828775853,127.848694014855,841.192745223888,-17.2171015817153
790.654015618277,368.57394947216,525.394903748998,236.505846482457,411.505317609938,96.4762670828532,311.205560730014,3.11269597858856,241.028719359495,57.4468421252553,437.200970663488,20.9909952046703,354.241965287123,52.1186196158112,1983.94269017779,-180.992403575062,247.681566619568,10.5470662032172,561.724605133424,280.595268740764,844.77582097027,26.1835435312418,701.442716072042,-7.16581564733884,306.266017257376,51.9169396648229,855.831688664094,129.986836880229,833.766338496267,-16.5629955613767
762.805305051634,375.867829664509,523.195175951754,231.548991803361,411.277559293075,95.7418516717467,309.984232275688,4.87262639663538,241.804945848748,57.6879272796113,439.395822625408,19.6106838645255,354.420305054346,51.9249697118475,1981.0549572755,-177.22720133203,246.928929438557,10.4940642503434,564.375227408377,281.185509730417,847.320197177168,28.3741862687916,698.414602595047,-6.13928522759697,308.394384132615,49.651810915232,856.787410603503,127.67128132879,836.553294315185,-16.9755285912698
797.926553517017,360.931860827557,549.342941498303,223.750031375748,414.97434929648,96.4950163817581,315.053918924013,3.012847544562,246.014873640413,57.3478197789933,444.136216040717,20.4589896367535,359.765018534792,52.2414831037862,2007.94155244865,-183.200018915104,250.961064469822,11.4634487118642,573.840759284522,285.270914773752,859.580010389931,25.9811262113054,707.79623770321,-8.3241018596231,317.687838784099,47.3756176215712,859.630768784033,129.718344965125,840.501333005135,-17.9167731876548
771.319711484553,373.893088656198,524.923914809733,236.647407549312,408.369269859732,97.245146287378,307.7514466027,4.41516864669545,240.559705435747,57.8764350246559,437.00299786524,20.5168716998919,353.052771952369,52.0781094702616,1980.27495576703,-179.227147779783,246.580468843645,10.7531238079804,558.547142302485,281.038453637617,840.771214822498,28.6210300322889,698.751217735471,-4.7255241138809,310.647930631995,54.1596069013604,856.572415744739,129.431656099922,835.544289357131,-16.3331707979978
775.862547804969,370.408136116601,518.10913902984,235.482735180512,412.12063119812,96.8708265521787,309.476464610247,3.95715579678087,241.458391751181,58.0915898903857,437.210499426748,21.64157366156,353.685493369607,52.6263665687293,1976.64316828909,-175.16202725687,245.620140451383,11.3173725263263,563.555420861892,282.992203817434,844.941431482295,26.2037849207648,701.061713911662,-6.34891946654358,310.882558405496,50.5033901636772,863.498629618048,127.516258146534,838.246483231209,-16.6834272819356
773.04944182065,382.921364770363,546.254310052431,225.936063212187,416.747916652317,96.6573614207082,314.42268199896,2.62583991139764,245.736010209569,57.9572350037341,442.856416370943,20.74935929767,359.537462627135,52.1159878687469,2002.16202192,-180.014677366374,250.976354812061,10.384524215629,573.939947890015,287.987869693588,853.705420567221,25.4211021055584,710.379720324584,-7.27023928824647,322.846608478444,48.723639916436,873.527875691376,128.7113322837,843.491708689234,-17.0415351827566
780.758024973811,363.479793037066,530.434441284401,232.784478234183,410.89526353356,95.9802773441746,308.036538225554,5.48603635417444,241.652999837932,57.2776962077117,437.136213560874,20.0607016557495,352.296332781842,52.5942141014864,1982.14766221215,-180.135167864844,247.924927590492,10.4130001133589,559.675779371779,285.350982651621,841.377459023396,26.3997069409975,703.401702827287,-7.24149924245191,304.35163729,57.8455254397769,869.159589352786,128.570352818383,836.431828292841,-16.9367489563371
775.61361042854,372.206805895939,536.033043833171,223.762927781123,411.151452497127,96.0840134031545,311.594422463872,3.77335092624598,242.21148365137,58.1071297951141,434.300256341554,22.4143453757518,355.59293102327,51.7315864726817,1980.11512042637,-178.586123505941,248.409315289544,11.9568476366112,565.031845187117,284.139381599328,844.927699406378,27.1515678478976,706.434478012235,-7.49726413294466,318.646082438323,47.2739138630965,869.079772436003,129.453112832891,837.003779964404,-16.6502438575236
788.645108459429,373.565332048054,528.036103691279,245.918358995168,416.393297991593,95.8866729361458,314.62433019785,2.66021576421027,246.47169893247,58.0514530210204,443.957651794839,20.1758029850133,361.283040485335,51.8648438891784,2012.08589694532,-186.854245521411,252.557322158014,11.2101435151322,577.843662602013,284.578116902279,857.666867129993,25.0577648713219,715.959504120547,-8.99795533843082,316.180837187561,50.599748410817,876.853900468239,127.421037972007,839.511651076446,-16.0262265208563
777.257049156512,375.086760027829,515.581568569896,232.026025244335,411.024329041708,96.1960974403432,309.815414319814,4.10055912776136,242.582469501371,57.3642690161358,437.074700122701,20.5217488168795,353.910222134159,52.3750985273173,1982.50614950489,-181.533529707826,248.448441467221,10.2529446835966,562.215354763061,285.886942631088,849.261117785265,25.6854251180527,703.304128504088,-6.25557548301214,309.917781971572,56.5000945067046,868.500464139859,129.744208876477,833.955025188747,-15.9401533443942
780.568711532692,374.839220197857,524.933006707352,232.84955208945,414.658956919244,95.1511040636928,309.927620264265,6.14703660462311,244.452625316785,57.4776893528384,439.303915518418,20.7586160062746,356.881828886281,52.5052323119896,1989.13148524172,-178.941609221895,249.152416365214,11.2852907990406,566.274802136912,285.544391521146,855.889135149473,25.3536700771246,708.003255405266,-5.32961228656345,311.229230534965,53.4870628984988,871.189184353921,130.207635971079,839.320096086779,-17.8541813879737
791.598928760302,380.416260195407,548.893659132796,234.437872028685,418.420670743177,97.3311439690771,315.492668853209,3.48100689857357,248.064087331173,58.0921455783796,446.988190763293,21.0403047367657,362.480842217838,52.1803683309925,2015.94852571213,-184.487689236616,254.983765714502,9.61423264509852,576.169072183615,288.961493408873,859.761829191877,25.751132463933,709.217336217353,-7.06587318390555,322.807172723719,44.7266620711048,875.07584972246,128.934167032222,838.382708021203,-17.6042413808923
797.821696520222,367.614255355231,525.367503730441,233.03956211514,413.123773271598,95.5280339300884,309.271921432822,4.20740126497656,242.694853422705,58.2102993515759,436.885224544651,20.9787764348344,353.959478001649,52.2304058808027,1981.16466799948,-178.007230494019,248.76660015008,10.8183150255328,566.728478613954,279.900533868551,851.633709408839,25.8494393694781,704.754381770228,-7.0985045989152,314.295573496443,52.5856906902871,869.41749382189,129.581914122949,835.557667477941,-17.5022236761407
790.318069312201,373.632831744922,532.399663438449,229.879387976619,412.510199714982,98.2679712246921,311.322493082241,4.30292965779736,245.068599203128,57.7539036406931,438.93926564037,21.3944837903653,357.276857954288,51.9831214515549,1990.27039638216,-179.259469843656,251.020858484261,10.2370843786884,569.786130123667,285.778518851053,857.165627374721,26.6011420549048,710.372197768053,-7.532477324386,323.274521822972,45.0569180035281,870.849852157988,130.567426381904,838.181135926641,-16.4454758257754
784.310941803657,388.946070368117,558.932576384935,228.804001282329,418.633551493512,98.7403786840851,317.171222299464,2.47961962194962,248.141408168989,58.2002298924911,445.053938635126,22.3311079059814,362.924082541706,52.0796241154069,2016.90007254873,-183.902544871094,257.391681836692,9.25018347494905,576.872444203205,289.320155380687,858.218444072106,27.7451595638821,712.018813080015,-7.49299594178618,322.035877717546,48.8696162349605,875.12403383515,128.575715431533,839.710085222231,-18.0265968487885
787.534531346394,372.907194197324,527.449673690477,236.356700718758,410.850166870578,97.5615819783338,310.033729190931,3.88011348521927,243.320868002146,57.8595064452695,433.863157118357,21.5737038888535,353.883690322822,52.3614699929702,1980.29311050279,-176.99611665292,248.776617758208,11.1292715892815,561.575332859835,287.084583590348,849.686465713582,29.6239130738021,704.232840938825,-9.44043031379625,313.183685796024,52.5348009109566,871.456174901179,130.357006005004,836.744156870604,-17.7150763668402
786.069891967036,377.009435966445,521.226957448735,239.65274552334,413.887392420446,96.7749655295942,313.113181598227,3.00261589731099,245.478552272886,57.8174323025005,435.794053663463,23.0272498090107,356.509664552378,52.4456436362037,1990.25285512813,-181.6247118909,251.867828968523,10.7540508685765,567.427548839561,288.13734185671,860.182832185018,24.4003987142092,708.450409864749,-7.49229062940937,317.981192783943,53.8308898040456,870.63526526632,131.035385716084,839.554775693569,-17.5034465407739
784.437044751713,386.056551344968,554.96492947688,229.488455132757,418.041308405826,97.5309214347735,316.941214847002,2.2136657983325,248.741924762159,57.7926395655479,446.613445704209,20.6833917523905,363.670878316966,51.9367504063836,2017.11165536587,-182.483115145765,254.989557440054,10.7222984017424,579.575545592317,288.667356410903,862.853192744627,26.9476559857324,710.04703203471,-6.33049423880367,320.736721213746,48.055557622134,874.967689171106,130.115788626005,840.728273489333,-17.5236307747846
787.374502960909,368.341359770274,533.718153448152,233.087656032588,412.354127325737,98.315212151922,311.092935452747,4.05043346093272,244.234480162536,57.4744686528463,435.609841236762,22.2723340601525,354.511081039858,52.368989231345,1985.97062403949,-178.097993320796,248.877778375272,11.6514395390826,563.591555310772,287.166831684704,850.765924413888,28.482022536319,701.331636439466,-4.84892237799967,312.650542509448,52.9674752240933,865.899671984063,132.887149638651,837.192017529978,-16.7626850383596
777.260850167432,380.378197104039,539.971559779044,229.112786564337,415.977066828198,97.8101918759823,311.246067913858,5.44113586149265,245.424988798229,58.2639586892286,438.528659589709,21.6565430389996,357.414913646633,52.502404519946,1997.59305287083,-179.747919044971,250.241895553239,11.7127843959052,570.811458452744,290.101045068343,858.67159576449,24.3426259583182,708.578185614774,-7.51248309745233,312.287408839809,55.9306533693719,878.53267822665,127.065943363328,842.845022581099,-17.2352645367658
798.720973387839,378.186531033444,540.879548193297,239.512802176412,423.105112260209,96.7553188422939,318.538216661137,3.20510718593799,248.782206742982,58.2776990155666,447.848987702101,20.6524077024804,363.273786544941,52.6709244023405,2025.30555151297,-186.301563096083,257.61512164376,9.98701940412768,585.941728953078,289.561227992527,867.541144768854,24.1109312730292,713.819615837775,-6.54090041661565,315.655720254863,53.8366889749295,881.799807623316,129.463021611649,846.375711027161,-18.0382214872567
780.251575760949,378.725497518182,538.976494175702,227.106576234404,411.75859628402,98.2311576786799,313.44819832848,4.14300549423968,243.986049041938,58.3422793400789,438.590598158715,22.081599894717,354.313499586078,53.3155982756915,1991.80712680419,-178.29797256009,250.137937462408,12.3871536308655,566.885698278336,289.647545042688,850.779677713858,27.2704928607592,702.448106491311,-4.74799526244449,312.161129765927,55.6298800564202,876.995114961225,131.858926250757,841.963558849679,-17.7746885619239
780.92795384209,377.778692708613,535.752488058812,228.649038516088,415.608023972441,96.8483379083467,316.827037404473,3.79903661243882,245.425961759372,58.4300325083291,439.979319456486,22.9651564191744,357.991986510437,52.783676986395,2004.83781249846,-181.477842572523,252.646315994185,11.9999856732944,575.303969670996,290.471010573756,857.472154446939,25.6950190928446,709.376677227502,-5.80020445927913,326.322128224976,49.292131496615,882.884113317297,129.868170462095,845.959239628419,-18.0913842307578
789.038989140547,384.484790300425,538.358908692158,239.851762080898,422.584839771683,97.1084919372161,318.78261931673,3.67313353855211,249.122746944044,58.4712908422277,450.683724220368,20.2974510383207,363.196813789212,52.6846355536955,2033.54885574463,-187.044276636829,259.028896270941,9.97866131998925,580.575958611339,292.099243198424,859.03457269213,25.1521253725865,709.910927640484,-6.6611762467316,324.024360431129,51.0420680693538,882.67741893393,130.599750058993,844.396936520632,-18.635140710197
778.671296742016,385.785126480434,543.765281833719,228.308346254488,420.073782892018,96.3462443422873,314.551261745447,3.8821318788111,245.445495332091,57.9645721029628,441.815290033805,21.0158148147493,356.854843024956,52.5725537215866,2006.1547164256,-182.347294693378,253.563645293399,10.5829414812771,570.895603760798,290.33998272582,852.361957306529,26.7444477867431,703.614826776024,-5.78731223374281,315.082235241516,54.5575505736894,877.348737332033,129.638460897579,841.438155066913,-16.9109068317289
791.352904673717,380.266447094753,534.685555428619,230.232987495172,422.745362994352,95.153063135076,315.731290155087,4.28770711919586,246.921844751229,58.3569805322119,445.397284023535,21.5575496013992,360.866549645443,52.7576008228538,2022.77772797389,-185.620309792649,253.723718567367,11.4768243831959,580.232167095639,290.34419428458,863.265185310255,26.8852968619393,713.153016913178,-7.26504132990137,316.475475703755,55.0775396237805,879.987284021068,130.634843650426,846.574018422672,-18.9468709044063
804.850106772396,376.638354534319,552.585546213409,235.531228658643,428.148839546525,96.2527876860852,321.961192579195,3.60438238941805,250.124347379421,58.2521869925845,453.666163898414,20.7866565960309,363.271224577892,52.2317400227821,2033.07631971878,-189.303674845057,254.587934469734,12.1504703141901,579.386008259395,288.734413609672,851.989966115703,26.3381042208712,706.165030574983,-7.32114410998113,311.834018125692,52.7103536859304,877.539744415828,129.499092209541,843.17427165786,-18.5012008243811
794.949648316643,377.16117709247,524.891181724516,237.896937592122,417.136713922772,98.6859076617157,314.745950559961,4.85558524478374,245.632548543362,58.4361071760505,442.341440042403,21.8918024111246,357.853414900781,52.6032275352521,2009.54896823761,-182.285899622617,251.520821575304,10.9271691722415,569.492553258105,290.580066932862,853.544859041682,27.3179424075354,703.543222726267,-4.61463169627657,317.341599213416,52.0383857188224,874.069870330493,129.811753663729,841.870570527917,-18.5474519726131
787.721718398516,381.091316083522,536.496903424516,242.310507996084,420.297648088747,97.9250263179575,317.865819114705,3.63306561547368,247.968137356018,58.2825202496727,449.661355799843,20.339541214307,362.758062240976,52.4730544870512,2024.98566420603,-186.396894943328,257.133117837415,9.38310677447375,579.640274185728,291.016804431136,867.059912952229,25.4510011694272,708.137182675217,-4.50947188728216,320.769398016541,53.7622582148315,878.634289634471,129.495236611105,846.161838079458,-18.324421840802
811.996052691729,373.721006726546,551.505824113192,234.974129489404,424.598359624721,97.5508119579105,320.671163399403,2.23075453018194,247.423489252026,57.9810516057418,449.60760230785,19.6410803769545,359.450597490834,52.6942207625952,2020.07343155566,-184.054178982255,253.674372568608,10.7784834907221,566.672211256405,292.269804784301,853.198087294329,28.0921977032276,702.605562665404,-4.5340150104163,310.978728800595,58.325065044639,874.151073979334,129.237154538719,842.005646049031,-18.4165467465741
788.691165849205,375.229267797751,544.277371310007,229.891497225188,418.776815802642,95.9484975578658,317.667322937636,2.22939363094598,245.315771169633,58.1667506451803,443.478392451328,20.9451157540195,357.520744114235,52.5065446408977,2009.26565576364,-183.472982509994,253.406949585971,10.1779930317098,570.029023390778,288.015812783378,856.957153734051,26.0667345308114,705.682197264976,-7.06590431267482,314.591287516824,51.7521171824948,871.67464285134,130.619116249354,841.066849068866,-17.0833152107571
799.132913738476,374.666738975692,540.477947017972,235.031862947464,422.311738775982,97.2750055265529,318.386308280336,3.08443401637328,248.255619703965,58.1691694421351,449.422358547616,21.8792526703932,362.111031328929,52.9827166276381,2031.719777171,-186.115960306822,256.280502443554,10.3853133716854,583.287493021105,289.075498608552,866.15352967589,26.488484712874,708.786510430234,-5.29156146205202,320.965741408183,52.8811945204041,873.318652630704,131.967284404261,845.597218076469,-18.1934423702262
789.994526454719,379.635850456456,529.958048804429,238.82030174144,422.013770486137,96.8103450670797,317.434082738739,4.07565058153293,244.317543335024,58.2710111278755,444.391402708639,21.4020150886815,357.292171701092,52.49836692043,2007.6978913996,-182.209154693512,252.50168830662,11.3860590359972,566.466439365137,288.944787322815,850.607133082979,26.280742429846,702.564741800942,-5.70731703102993,321.603917688743,52.3759534011494,872.146724115152,130.911271217213,840.472580193135,-17.8550428530459
786.700860237435,373.23124930495,532.094992379375,237.110194537253,416.995800938932,97.457793118471,313.677894012311,4.23025329796578,245.026226995645,58.4496037413155,441.86625022979,21.7052015333839,357.219427169309,52.7689897000949,2011.6717628442,-186.721195329092,249.881684537965,12.1177865106501,570.205047078799,288.438321069851,857.009377181131,26.9999222690495,701.991903865238,-5.39105201221245,321.806038346842,47.947185958712,872.289684986705,129.386809646637,841.052622380972,-17.8030147945127
786.4002017766,379.543057777021,539.814215792512,239.424573278696,421.73195699578,96.3312695133603,318.093832904045,2.45123300570495,247.920858232684,58.7272113391059,447.760958688851,21.2400401132476,363.410760107174,52.1028266794546,2024.77839478742,-182.36825678233,254.433105262837,12.2594621516331,573.897932517113,296.604684834579,867.880199331198,26.509188437871,709.217757695428,-5.16999160353731,330.758197640919,44.9350192032349,877.79545577576,129.029813998559,845.855684659692,-18.4818248278208
777.671906282306,383.726501865257,537.244328995823,235.742010274961,421.210553942908,95.9007206903442,315.577871318039,3.5387300615457,244.077587923262,58.353456357864,441.058787591659,23.1938149744673,356.4647197876,52.8500394388406,2013.11433208289,-185.843712180674,250.554226518531,11.6251540785777,566.568499448802,288.610087282597,852.369782178032,28.4511972033054,703.364015909011,-5.14189679705606,320.244645911053,51.0965318731338,869.751333226344,129.574423011936,839.758065898091,-17.5857437543141
799.12794843863,369.163237011166,525.809053578344,230.371702109525,417.943301192781,96.5839876822762,313.962098988861,4.27105801539641,245.086346656121,58.5297798665517,442.55359329722,22.3560474609392,358.144856381172,52.8162681690364,2015.32168397011,-186.802044114918,251.330270564202,11.642906134444,575.87562509492,286.375485901272,857.989938350886,27.9722745023696,705.408513278687,-4.84502773207213,327.985637676376,46.7978083263157,874.751925393513,129.070665866183,840.21448754652,-17.779751354003
806.159347388468,377.74738813025,534.505010210868,237.555759235457,422.287632521584,97.2666221966801,318.63379491557,3.24372489294241,248.968695311993,58.5261136345762,450.445359045582,20.7160238150024,364.741549722957,52.2624923635046,2032.52260957059,-185.432846621061,255.701248719222,11.4173105565728,584.987027962713,291.659241101351,875.213937152146,23.6269078131675,713.68804213761,-6.52122785363087,316.522945383244,55.2378563329829,882.031857836448,129.422070623469,845.250844417329,-17.8768876517901
780.893173297762,383.069750887501,530.7652643526,240.099206728871,420.103955827356,95.7029945276161,315.935300981898,3.92188176716725,244.466648242369,57.8847419875717,444.251911732133,20.6900261366843,357.467276186284,52.3417703355259,2012.73258630285,-185.243678485279,252.177178270896,11.0474253518219,568.829148015002,288.259896962388,856.325261900821,28.1244831030837,708.143322109535,-7.4755690191371,314.862661896449,52.2301745740743,873.899506628616,130.683547067445,838.77777290155,-16.2497261065849
779.634478708509,380.339541645684,527.258385749519,237.615598456227,421.139443463332,96.0813024290703,315.048311351371,4.99765577933399,245.955043046759,58.9710405778439,448.454472965193,20.07932732084,359.32227904995,52.5515831800699,2018.7417035361,-184.775896351126,253.272035996815,11.4045194294454,574.715572480281,291.456615936497,860.243051802888,27.9177636659439,706.918467925316,-3.97510314674909,327.299183709172,50.0454371733321,877.527786916237,129.552219734623,843.772710426603,-18.223445615569
797.231881520791,381.294152147999,558.994974864227,228.621396485073,425.077475529193,98.0883210929592,320.790883305103,2.9357568182658,249.337066407312,59.1720191284711,456.526725216158,19.1129624342268,366.615671012967,52.0293678895559,2042.2239429735,-186.386940548195,259.151509775758,10.6096876926088,589.209504159962,289.923676713535,875.858461620687,24.3386809239205,719.578390652166,-8.26100111376947,319.364738406914,54.5398283987938,887.569858359243,128.519881888002,849.966675382483,-19.132699497471
786.044958950522,384.120705325197,535.481336701966,239.203989626336,418.254978241561,96.8364592959967,316.978444614863,4.5304936575575,246.380433238052,58.3205074408516,449.819775198563,19.5833496881017,359.31967334224,52.7708004576845,2016.64205888588,-179.580774749391,256.400629822433,9.44362826636188,575.850980157886,289.739167031815,860.650141671824,25.1206865603536,707.705957587906,-6.07216313626386,323.061336406188,47.2228651773513,883.152653274469,130.126228232196,843.29546155906,-17.5566334994161
794.079787713721,374.831554778701,532.363113719532,235.064379563168,421.82421727009,97.3144872167486,320.010065801948,2.78362436628132,247.729517520445,58.6793210135116,450.10520417812,19.2952735186555,361.683164754171,52.7002441695988,2027.49714445951,-185.93053829339,257.925356289002,9.49221107360347,578.246672898341,294.266097815259,869.118642177996,24.4955535192337,713.026617579028,-5.70455093951725,319.285604651651,59.2585235630609,885.042724844815,130.450221650627,845.79792138659,-18.4235796459941
807.945324438358,374.298399337049,539.100966777823,244.88924482262,427.841107267567,98.5755989125798,321.127451377011,3.09546200253524,251.048728440484,58.8543430998269,459.720596696611,17.7819785858385,368.258584445453,52.5350663224062,2055.44368299931,-190.525175759805,260.678744052419,10.17672922747,595.136756974424,291.607727079271,879.323511936805,24.3896572341865,720.017259933039,-6.11014405757417,330.520384885143,55.7791166962132,890.237005964858,130.471293642931,850.394659947803,-19.4123688446653
794.961678850504,377.045544065469,539.376937893845,232.682502612535,420.659174065788,97.9979237153774,316.434312352869,3.55577010041492,247.603697761436,58.2060024491736,448.779932848903,20.3718835704827,361.040030469213,52.9113767049625,2026.32328209298,-185.194149180033,256.961302006851,9.54364882552679,579.209370816984,290.835042378422,865.801512267966,27.3815483530686,712.044205980321,-5.12217016831426,332.470274166723,43.5735487680785,891.353432048681,125.932166687874,843.694090446741,-18.1002725582648
794.139915881599,380.301368193672,541.82286110535,240.156311908363,421.104396716441,97.7216080840895,319.355375382649,3.9903115426318,249.195702293708,58.7631036574403,453.313517107501,20.9220653843541,364.671787850573,52.8636761530894,2035.14088869933,-185.672022041015,258.333297822977,11.1463777387685,583.600354512256,293.500764392135,874.321700523948,26.4201143146635,714.906538374473,-5.4305377637624,325.108192217705,52.4475423392006,888.078850211672,128.475465776298,846.574239918113,-19.2726100147181
797.301679769259,384.427979496444,546.770621794421,240.099003887828,430.506507794781,96.5201160632393,325.374588133916,2.01529004039433,252.836779620659,59.0365086943621,462.569336217168,18.5679076759586,370.460520327002,51.6990825423258,2059.4460623232,-188.294671418616,262.195063396424,8.93893977042993,588.062330549818,292.568446454179,870.587725315793,25.4358612237716,713.130574386699,-4.60156908168755,320.14253168087,54.8971559568094,882.963519296098,129.872806191178,844.240981411735,-18.8168170918715
797.835061982771,371.285587533072,533.916205845747,242.949849052436,422.271173548219,96.6860468033457,319.113275521042,3.03878838197122,248.315996262436,58.5882124495534,449.123924280527,21.0960472483852,362.045224329986,52.472030363349,2023.61570346735,-180.585219516573,257.015914222929,10.3144056367992,578.716508673181,293.104196482833,868.188447999166,26.1561652801969,710.61451566919,-4.9553885030648,333.502120011948,46.916597264144,879.495811882326,130.019703672424,840.731195608099,-17.3964756974132
782.406311325911,380.453478246037,555.845090860182,226.910994062303,423.451435825188,96.998830168855,319.664808270164,4.25656670623514,248.99360959138,59.283968991498,455.13358363531,20.1389745620876,366.602522911517,51.9770170635238,2038.80750954189,-187.548903502547,257.885902330408,10.7496150461162,587.898006629837,293.14678568675,880.202547368933,23.4351623375403,716.416310682971,-4.68917226482772,326.845977618738,51.1882569480395,883.139122013528,130.519081491851,845.95230310983,-19.1378605207833
801.372041865492,379.82657766954,546.227807542886,245.165351549983,426.749959904985,96.1929196430029,320.992411569009,1.88404938113789,247.801348253587,58.4813534847277,451.260984152934,19.4767494788479,361.544665100384,52.1383514475359,2024.34635940752,-184.326057649506,255.087170502386,10.8278766207634,573.733149890055,289.814365686821,861.365237323926,26.2465910211852,709.056116837196,-6.76848366774457,320.803117190621,53.3153882619752,873.14901206652,130.726389537945,840.668482038239,-18.0564374414843
782.65816198312,379.440653070774,532.702471181333,234.090366367046,419.370522539864,96.679511730986,315.691896270848,3.00486662597994,246.548660356309,59.1353080019691,447.287732162237,20.8879582776802,360.431473147117,52.3893700019438,2024.11886685048,-186.608808659311,253.78001683642,10.4749241692486,573.833172671023,289.739599748619,864.943334572201,25.9585927794004,705.884668167928,-3.82407209261897,321.206683419399,49.7924312199861,876.133334388275,129.03306012846,838.941819193779,-16.7941937344649
808.321045472731,375.797787820415,540.450174545419,239.363842002528,420.484103610699,97.8286592680278,319.780416551743,4.54819564271221,249.250045645654,59.0707541258059,454.067694137018,19.9846944461682,365.269169332789,52.3886542605385,2035.23599711529,-187.646905542395,256.815249267223,11.0902448183279,584.986657167766,291.72474221014,872.932539773859,26.9078070058352,716.257510701754,-5.82804859725012,323.197499130297,52.1069154800753,878.928986757846,128.38372192073,843.710297978878,-18.3227210697964
785.962208328231,374.605245209289,538.632878254012,230.309523677985,418.207684273238,96.0346538688267,314.739000379949,4.41603037332265,245.683608989889,57.9827107624851,446.59936780158,20.1641116733164,358.560496903915,52.3910215241121,2009.04024949054,-182.907682858842,253.880195722825,11.1557313012592,572.541258976387,287.3195038254,856.34938420509,28.6261949473965,704.319386721363,-3.43005341553357,318.764406775805,51.0921226767515,867.035749599838,130.493339638041,838.94258998457,-17.5657790556878
781.737476179475,378.899789833291,525.429671861329,240.853047797878,414.540127499021,97.8162512871699,311.952684215636,5.03402080995031,244.956646542575,59.0281357469054,445.927264896241,20.7235799147552,357.581240197432,52.9793944968639,2005.21589769612,-178.967619128232,252.370631464864,11.080892966281,574.204763168457,288.925286436983,857.881244888275,28.4430619254733,704.492149107897,-3.8189041708055,313.885876279181,55.6863130668487,870.387652061169,130.400921325806,839.358614554559,-17.7468644508489
786.539727126046,381.209882845414,539.592276432978,238.741744939071,419.601909809285,97.3766399744273,316.970795988308,4.56751312182804,248.562133525899,59.0867891872551,452.271704048516,19.943157171174,363.280710182855,52.7459338289523,2027.09474104645,-185.016294939059,254.754140796888,11.7927478622372,579.824240618359,292.732882656944,866.338464016182,25.8034740908088,712.812510305238,-5.42705134160692,321.771602783374,49.9159384911014,874.078222785473,128.642350384934,845.956305511736,-19.1680291601097
765.81846172469,383.437049691573,526.013980167077,236.897566761371,413.450358244014,97.2792765061203,309.756211942011,7.1176554826553,243.927436108462,58.3205966017809,440.560915838998,22.7225042946895,356.096080909563,52.5756626295878,2000.78296791171,-182.771270181567,250.693815691621,11.1594207287608,568.785402887352,288.989557015882,847.472516099118,28.494188922857,703.332881334523,-3.88014975123577,319.160966418924,53.6320800706893,865.479808995828,128.838930474132,838.04041491034,-17.1252206549136
779.568158365816,377.503981272389,532.807926637075,232.171145350676,413.051900659999,96.2019528996227,311.075349824338,4.46847215653648,244.535292249378,58.8422172134359,444.144670953085,22.0080732564079,357.234596382703,52.4325367069265,2004.36148755301,-182.994797994753,251.227248753259,11.6392391565187,568.656935152353,290.784456502529,850.799804663365,26.3477456849364,703.057888006665,-2.24179019846633,328.095699286688,44.7330703832453,862.565086489831,130.252579633503,840.843953984441,-18.0598926680071
782.189387242597,376.690436826619,542.887433511665,234.38030969167,417.883727230221,96.7513605889856,316.358881489577,4.04843760523459,248.050411200704,59.3312501870735,449.923052720869,20.3745974035423,363.570993885402,52.0665103695449,2026.08200602517,-184.504608272783,256.595309977679,10.9007000528223,577.512650917679,294.697066846802,861.611929980209,25.4912983293421,714.684423235717,-6.04703375464227,324.542997306354,54.6638772302765,869.704058368619,132.889889243404,847.077590396061,-18.4096232721791
775.015411365011,373.269034795111,525.174675588783,228.771453224871,414.138278190243,96.9713052725742,312.814936960776,5.10569965930124,244.274807149178,58.1535305605952,442.627109309396,21.2761174374938,356.085145509717,52.5325717250282,1998.15407127592,-179.893450676744,249.54492562004,12.8742089467825,563.75358147453,291.433334845392,844.80941366763,29.5724333315754,705.24620574598,-5.78686195882634,307.923513534788,57.2141391115963,870.139056459366,129.256991756509,840.950412252657,-17.3955630607217
768.892314539962,381.245406055688,523.664578774228,235.192806602904,412.572686473369,98.4543035007716,311.761745005456,4.49335621715197,245.416269737315,58.0538041974538,440.425384886495,22.7806035842036,357.186004575998,52.7323456487874,2000.44887409492,-181.684080254664,252.144787787105,10.9457708911174,571.042676431533,291.978278538314,848.581413057521,28.7653108924282,705.238352498157,-4.1104201797168,316.959436144438,52.2986474851875,867.683161745008,130.151354610165,843.982251153038,-17.8421846130421
783.239796915681,379.554059169553,531.388517420797,236.073701013113,416.394297859024,99.6646511134683,316.501074274115,4.82005495097132,249.116992972098,58.5297089740696,450.546541145821,20.4833685937217,362.960920887493,52.4680541130963,2021.31338289326,-181.867067929328,257.736986200781,9.95307714148506,580.144865343448,294.361416847324,857.271252281402,27.3682967909712,716.412571063775,-5.5042138263185,314.910492887115,51.2489413900046,877.622782422968,131.691096856669,849.693328096953,-18.6351057581536
790.223034752603,366.796521284044,532.736820317003,236.928801777836,410.863916120764,99.1836024383454,312.509007958904,4.50251884480279,244.978885268796,58.456878945954,443.142537130985,21.7480209998899,356.485131041966,52.4180130186619,1996.30869183765,-179.691180246963,252.24592879393,10.8422824069365,569.168272536824,291.473975324044,849.062171981441,26.6307491054052,709.268292865758,-4.56685121996041,323.878304887711,44.6206036832495,875.050710707303,129.629008127985,842.864186905343,-17.6333941265098
778.633239964092,370.977383341125,516.425109465295,243.28582783355,412.03397441637,98.5523193885711,312.904377117243,5.43315744712096,246.478043226114,58.4332911085327,444.998089075375,20.9266418908255,359.128142501817,52.8022401828193,2005.92831571094,-179.4448076041,255.064230918173,9.41938507587867,573.735086901701,292.223187524087,852.506482932776,27.6056134756243,712.216912116623,-5.16338848162602,320.035976418227,51.0279459466825,874.268200981528,130.97927146751,845.763929149047,-17.3130394584553
788.298789005215,383.906216581761,540.695535100448,240.578157003793,420.617209533048,97.0464756007026,318.248875142794,3.01556433461309,249.843074945692,59.0481732342931,452.938798598783,20.5677815660653,366.049227211687,52.0214764656504,2029.29441888248,-184.942670369818,259.243609320515,10.4506215408397,581.785806116275,294.003622763089,855.871626128355,26.6841715698781,713.829215529698,-4.48322186996782,317.23433452039,51.6490497056072,873.557078638353,131.594358745052,845.670973819272,-18.307133600618
781.95370625977,369.069871453483,530.112286011876,230.668431009628,412.266697937902,98.5676611043194,310.909370290798,5.40745423145523,245.709909817159,58.594228221982,443.295170752222,21.8882014990951,358.09762682259,52.6857221173146,1997.10370420752,-180.036982595197,251.492730860989,11.8920027839494,571.735448105507,288.113020827426,850.969396603009,26.631310072447,710.480084752137,-5.5182995944019,319.951948126208,48.1787103218955,874.076838734859,127.655167002577,843.605118955454,-18.6839840207664
774.056124879961,378.211434014641,540.72075625561,228.449907321343,417.019999166576,97.4122708259861,314.03148113224,5.14268907304689,247.32502990659,58.8374925021707,445.389059088902,21.6136166697496,361.96304487046,52.3302813908197,2009.73466963831,-181.707234557292,253.875651051991,11.3570097119483,575.282709860886,293.843616522461,860.455343215836,27.3144953255667,715.82023766594,-5.1992728530217,305.205615395163,60.2464762510001,875.524966457639,129.55957267759,848.866527524874,-19.7649305643612
788.227059051178,378.727833900595,543.532109604657,238.04898128376,423.770254612608,97.6440127677747,315.773324935107,5.48113338843392,249.125547224351,58.3227893607834,451.446267347452,19.9125111477405,362.465359828726,51.799382589245,2013.12821272727,-180.549638034506,254.114269098803,11.2904633952128,569.695468874911,287.996116670558,850.082081671779,26.9535469387697,708.988533095292,-5.21057041178271,319.87601722106,47.750788360804,874.263970570865,129.249231682008,843.011555964798,-17.54025241325
784.295929243628,375.205037857851,528.41981081964,235.184202970667,411.920169047739,98.7089030127325,309.687980555661,6.03529901429856,246.462538625842,58.2152814570836,442.768557619556,21.1080819316959,357.996845579316,52.4301710793332,1986.92263817752,-177.687936480804,250.610798129348,12.7056600940078,566.311635509319,289.828847657586,850.071027529687,28.4607044188478,706.241091286944,-2.35854875071711,319.458847667091,52.2541173871551,869.819407754253,130.578882588164,841.603309973998,-17.1487865562443
785.13731207789,374.829968712696,539.324695562643,236.593301022665,415.249102107749,97.9678244927908,311.730250619571,6.49073057976986,247.686477505781,58.6705281644304,446.003489097012,20.9124272467587,362.053704968577,52.5441705530816,2007.57921137515,-181.387187993113,254.633265381025,10.8789233224491,574.20593598096,294.023092837957,865.162351571298,26.1811788850668,716.265965521234,-6.1032916324495,326.768212846805,45.0911465822581,873.609464190107,129.61205933231,847.56850098027,-18.6820863304046
788.148018776385,381.177058825336,532.478543562206,240.462753249425,415.831119685815,98.2136422888185,312.933860894848,5.04728950793951,245.026093286971,58.169645239755,444.305459577455,20.1801455882808,356.453645258531,52.6070101944961,1980.51194897461,-175.514831873686,250.534887333213,12.2272320433387,560.057155289387,289.339915842067,849.42308034026,28.404800411527,702.012508483647,-0.76638975269488,320.881274968255,46.0229507387814,868.535241124403,130.715602327164,840.696292963485,-17.626690415944
774.666414412018,378.988419401057,519.126482500807,244.771083097853,412.015722361282,98.1683246280813,312.738706848124,2.75598845666896,245.300224028418,58.1834913594893,440.364262964655,22.6046859252838,356.276651881327,52.7735502679977,1981.68701007848,-177.709806538853,252.287183738777,10.5520220006245,561.234748269173,289.95655991867,853.135483326802,29.0644752779303,705.050437899211,-3.81260551010219,317.403699648525,50.5327300870149,865.385776088944,130.182324458851,841.479445679496,-17.9804546686921
789.885404537995,374.657593998749,528.150889946313,234.214909098188,414.849374166219,97.2637460215505,311.399773911497,4.76439803983445,247.680619698162,58.828329648866,445.711294281271,22.1744645980027,362.002353333906,52.3107374241726,1999.09193893367,-179.017909164344,253.660357717217,11.2150856289882,572.295724320834,292.513493601392,865.082063255908,24.7413164451339,714.995748664974,-6.51593787427484,324.985312375783,48.6509674010221,871.785124418341,130.025282821663,845.924770457678,-18.2055095061342
770.478067909107,389.489875498566,524.690558677024,244.300170225371,414.422360178753,97.7492859443014,311.052530874751,5.88598352078168,243.270751352685,58.6135093411188,438.790783322078,23.2127314150215,354.641574685676,52.693857302293,1980.06405942906,-175.913065756316,251.317187853426,10.8856351043296,557.396577855844,291.078201683204,853.73995940616,25.025924226776,704.75466279748,-4.43351960173987,314.424203188899,48.5017478847651,866.646160781448,131.571067599172,840.064286489745,-17.0099264278599
778.636855786679,373.702943159278,530.809880066474,232.547672306776,411.960381987106,97.8457388806457,311.376809717706,4.8308127606544,244.904850237537,58.238218446987,437.924235913625,22.7854146352955,355.581889137462,52.6473417455237,1974.88028018274,-176.047603600104,252.520079786283,10.582908127621,562.574614805667,291.618911731631,851.993793952054,26.7018533332285,708.199246281474,-3.29147441522021,310.732495370153,50.5909065017296,870.843362197345,128.930227604556,842.679498036737,-17.7582595023648
785.499706178494,372.612892500493,529.628991076578,238.986374019804,416.036841180307,97.9529740745276,313.583350759171,3.25169774240206,247.420116133198,58.8519957406809,448.073124835768,20.6875449239957,361.667910295295,52.417647649716,2004.99379568889,-181.783439340216,255.090632744452,11.7976266896688,574.65310457723,293.186258893418,863.022927996853,27.0169750278415,715.734613644487,-5.01562649438537,330.388327416935,47.2979932078383,878.824585977469,129.769529945783,848.43231678528,-18.5262244315261
789.453112773698,375.978098529717,523.434347022421,241.137803233266,417.595326337978,96.8020260953645,310.932938811775,5.69724006906932,243.385581315501,58.573963333325,439.141418186244,22.5914470894644,354.082633501211,53.3855923318618,1975.27639807202,-172.151758782509,252.125348412536,10.6726895419638,561.657807106662,290.845384773562,849.028788670681,26.2515470291529,711.559383694873,-5.99469072915665,320.196081380066,49.9934067381852,874.873744697232,129.734467210059,843.796756952798,-18.1239330357132
774.464574262837,377.608574382609,528.307856921185,233.973693256246,412.271265522463,97.986437823757,311.10911906835,4.83372738332798,245.191810118798,58.5984425073764,439.8520949712,22.3106747292951,356.056166320849,52.9210456215237,1978.31416701623,-172.830340530024,253.344181930596,11.1098907632073,569.288047222996,290.218171991203,853.573509945892,27.5720207508672,716.213722872377,-7.9371578779971,308.944515263799,55.2496062751233,876.793411666418,131.120104026881,844.909023574823,-17.6312803274344
786.543338806143,379.427891573275,534.631306863158,237.408138535898,420.060811573328,96.6545260359601,314.019026118992,4.87783682376531,248.733007502225,58.601298111086,448.670951440891,20.2329773519862,362.151438953043,53.0422319569714,2007.44312087694,-181.960306812372,256.964988680538,10.8111194018329,580.397757193521,292.347887127347,863.584880212762,26.6760394884394,721.326375064517,-7.58901372276008,325.446118617564,46.9485201016631,886.533627521433,130.673451243012,849.219309757698,-18.0930468514938
772.773297422852,386.331565989695,526.878073684947,231.655459700243,410.828006625576,99.0562430830851,311.236450577245,4.49913537829095,244.371262964006,58.6610871944653,442.658505400967,21.0038055742917,356.098502940306,52.4885393137743,1985.53857017847,-178.611661159282,250.41985679067,11.4213615291547,569.985347083368,288.516032590683,852.393236687225,27.2009948206196,707.62303966682,-3.10473729746904,311.122780872027,57.5057006470814,878.936057701469,129.125958206025,844.426643751864,-17.4992209986258
767.514427206024,390.135579987757,534.898344219666,231.217207852933,415.71152205127,98.6293193919277,311.38949041596,5.53111687176029,245.086206785254,59.2795275774977,442.768515286069,22.8736466012664,357.631428993626,53.1139236154233,1989.43721985167,-177.713936571259,252.745796839881,11.2676304657286,569.918974711428,293.848293790296,858.6063809737,28.5413042182089,713.80618043706,-4.75557293328068,315.612674178359,53.7748844253914,877.174717468829,130.224807037089,846.008813144288,-18.3100855634032
785.374206511118,382.102035115415,537.388573435432,240.371859871831,419.535851431487,97.9416096475992,317.356894804559,3.21373196484148,250.439523150195,58.4935949803972,450.850201781163,21.8377312170051,365.419147657326,52.2425432190561,2015.69874179937,-181.637696939641,257.365128661783,10.3396701760988,580.731901949287,296.466740879692,870.743680765382,24.9410065565583,721.336391357675,-5.77820215366985,314.492251468281,57.8267660352227,884.536760565561,129.773479203586,853.36608374755,-19.5568647045084
773.440204113352,383.708694824167,528.917744267152,234.108964581282,416.935558145549,95.7219835833196,309.861481919236,6.35720441114434,245.277467438069,57.9087281862094,440.353594524069,21.8879624645595,356.66676323056,53.2551010854819,1983.92549220152,-175.693082839895,250.582839833324,12.1235239809216,565.110390065435,291.430609574784,847.265691655888,28.9620189971236,713.0490186824,-6.17698080185585,323.103095199179,46.3358429489975,875.065469512145,129.391609757466,846.027803686058,-18.5518712358912
799.108034941444,371.555526494649,541.937375642425,229.6894430604,415.461910881189,96.9427932490584,311.418134270263,4.46107193652429,245.714476258231,58.9029096306346,441.894824734611,22.3653443649756,358.896728036334,52.4090532995845,1987.70388445982,-176.819789054282,253.945087475859,9.57105890289888,569.079270395731,293.855867288686,851.491102276176,29.9215799489961,716.054910101059,-6.62589806715803,322.120402295303,45.5644879236888,868.984658667255,131.766030084608,848.550810444725,-19.1656138139924
