724.982798635036,380.790988967489,477.903399441519,231.059781778383,376.517375524436,100.91265550001,278.321350487544,10.3939698916501,228.953548795755,59.4494135034885,397.621589057051,30.8401836181009,329.721517370966,56.8331758055621,1876.62885806681,-151.013518100191,229.821366466365,13.0699752381844,523.825812097111,287.285813536623,732.590203248358,34.8758346948012,705.337678961475,-2.18738093265728,288.480620202581,52.7026812001999,848.055145743858,132.321443784566,837.655475239502,-11.3959257738706
720.204245028353,379.630286195178,469.748484908731,228.629191535593,374.731468797164,99.2819695766531,276.757430405929,10.0872458530569,224.458733915393,59.0936742105789,391.645379823162,30.6863445829033,323.160351185794,56.6443326845447,1850.55732580059,-146.789793099151,225.50441062953,13.7159611531911,511.860500051818,284.998794526736,720.169733093146,35.6809835893374,698.016363927245,-2.65251464837986,277.152145066521,55.51987800405,838.715736150372,131.458877057279,828.513611475323,-9.61144074041235
720.087195886205,377.251747375948,468.994613616687,224.290534864343,374.663876592243,100.08213296435,277.496479393409,10.1251106274642,225.681024528764,59.2245864492369,391.667805765348,30.9138547889199,324.298804289909,56.7834109191444,1860.7451337329,-150.305073167276,226.041358982652,14.1701855673923,515.850775444173,285.353073707179,723.138200534332,34.6347330237343,695.565714809172,-2.75523767547301,288.48999570845,50.7022284362604,837.520513823881,132.789504423776,831.151910267974,-9.99737275230838
727.99775394184,379.692823742123,476.544536963362,233.165699193577,377.608842334625,100.719791777383,280.813590311589,9.35866002429799,228.845023415886,59.6028551002781,400.34510621395,29.4967449586178,330.18688549068,56.9699751195274,1879.97627545857,-151.414508337055,229.765373451684,13.6041934790969,523.265574812663,291.414692031257,736.281871701236,32.7056874600497,704.254707954434,-3.42166940035023,289.56440788806,53.4915999506171,845.448042011651,131.219219120395,837.012760268327,-11.1759928956923
725.727910453523,379.447935740183,466.449184024037,233.764329023021,378.146504814315,98.6460074168821,277.050889152259,10.2320203783606,225.462268319493,58.6896991275567,391.904377171955,30.7545186008194,323.68855448615,56.8012169293279,1859.02008919502,-147.814135204737,224.7232495258,14.7064520648801,512.584981458578,283.977108707919,722.158134778157,33.6711937036472,695.255768651991,-3.62967620539599,286.484455646967,49.5410933273678,834.451318033528,133.969995278669,829.930351653371,-10.5138885685099
715.028041333115,379.712008818272,464.815254939529,230.711218226968,373.662533959257,100.920096798681,277.161936643408,9.31903339874325,225.750976180323,58.7437380126518,394.014976053828,29.9116278801869,324.223228099716,56.8961547779703,1861.88366540225,-147.761138439128,224.735232433974,13.7512046360339,514.389969567093,286.214878437865,725.117951879244,35.8915400684408,694.358354911351,-3.25701759825971,283.49605617691,50.4773361327554,833.672798032956,134.259823234498,830.082063616168,-10.5743021477022
739.976989573318,372.770215563628,477.286870100369,230.837390364351,382.475410625797,97.5563814312923,279.923982835148,10.3389217818889,228.890508425004,59.3250678173121,400.639754725614,30.2331109433337,331.408001312012,56.4849644762559,1881.97639449134,-148.837461911849,228.264376747374,13.7736882073506,521.289104219476,290.103774701565,734.33957255716,34.7375781229667,704.876626429464,-3.99473611612384,288.733403947224,55.0690372173349,841.351877595864,132.107254095994,836.206438715338,-11.0571566331191
735.834577962134,384.494761282595,480.467967217385,240.26917722811,379.115680351787,100.041823682635,279.357121986608,10.6904906640437,225.784197302654,59.0440729221967,399.538057255229,28.8441186727637,326.189429186141,56.2200599932585,1868.49920675373,-148.258640337736,226.567221072227,13.5271168144644,509.263151557574,286.492207373668,720.106477088763,36.279764421694,688.759288617727,-0.517552924774877,280.715658491363,55.2348530930692,835.946162333209,129.608202368576,828.557344125505,-9.48235507663807
712.897873556655,384.628634181958,474.153282106456,228.005110024507,373.373992920326,100.474157084846,278.386918929932,9.83722771151743,225.361983803481,59.0255729836794,396.994804315919,29.0264509239357,326.404003251578,56.2744669739334,1866.08410691274,-150.592874831322,226.260868890909,13.5363730954581,514.695627253241,285.871858346888,727.639509988007,33.5773491916032,689.136907725311,-1.13321362701333,281.849578470298,56.8740200223941,828.299766279579,135.023037306611,829.656412522375,-10.2637690038717
725.261385252691,387.788030301272,477.14920211241,228.539514091277,378.047957069795,99.9044625258047,282.445171114521,8.75973052434181,228.268865730399,59.1820460520667,406.126829034573,27.9727665931745,331.226209549895,56.4389977908957,1891.46933396819,-153.933350943846,230.045397488369,12.3737499510149,527.072670111799,287.569862534398,737.598991296668,33.7431401811315,699.673123608136,-2.25251651700566,291.401604443534,50.927367090371,838.393871655776,132.765405568252,834.550820285434,-10.4550064827794
735.781604644739,382.123466835137,489.710230868393,233.264543717474,385.089052881374,100.601667364518,286.026667736453,8.38084070659538,230.601239465382,58.9998182902779,406.611485478571,27.3796008963768,331.817853376343,56.1451836263822,1894.82636320261,-152.812531532104,232.053071558573,12.2703921019872,521.233241221738,286.160706765697,728.904533001214,32.4284208807934,694.545343664243,-2.41335613710125,287.40826136326,53.2064937599183,834.572078735184,134.707264067736,831.289440779504,-10.5206174079959
726.772667676526,381.564468647219,482.844415379306,229.182993494457,377.8710376139,98.8454501748361,280.79117919771,10.2141728707563,226.364431502177,59.0352369922996,398.484524102053,29.4070300377819,327.814995260989,56.6569736320841,1873.82381519716,-149.379296151443,226.591010546084,13.5732823368582,517.914205515195,287.543094351167,728.464353323493,36.532803480543,695.534898212332,-2.99887490669162,285.002501587298,53.2508578738077,833.822196650737,133.792503405384,830.554330346327,-10.4158122206639
725.057687989951,387.430538638004,501.411727180746,218.873660071565,380.946213682749,101.006735569211,282.051626952386,9.06122326738495,228.062337634478,59.6204459790448,405.086384792532,27.7026928458211,332.597926649816,56.4937115178871,1895.63212272552,-153.127114739887,232.62486195763,12.4920361268284,527.077241646223,289.824599834595,741.993021431534,34.2296006626474,705.917563658663,-6.0795204481809,302.031422618016,45.9706376511324,840.828883558828,132.49653410061,835.684350008253,-11.2013408943522
748.121704864414,381.667127840125,487.328502946103,240.88781653348,390.000703749249,100.640632149933,285.185746039243,9.64570430800246,232.120112049364,59.4195639512586,413.836248018647,28.4251730193108,338.828742752016,56.4765293615457,1926.80304198422,-158.82479123822,235.345508544942,12.4493686760244,536.113067211357,290.340863155914,743.700427601916,31.7243024472934,699.936845863993,-2.70677700824285,294.897896975426,49.1048943055654,843.379585063118,134.104714311596,833.921407490905,-10.3255237820665
735.437523648828,382.220739884765,487.198070022697,229.322146902123,379.451304450106,102.248765751141,284.432579554437,7.69243048196267,227.634091125096,59.1155431779739,404.021228694101,28.2505916446912,330.706223969726,56.307232661146,1895.28030963277,-153.633473018147,230.151971942614,13.6937211063253,522.490051674991,287.96208473455,743.093622365482,31.6091000911743,699.136724725729,-3.02321023163803,287.401517146703,51.6005216043721,839.053345833128,135.904535786787,834.951848788529,-10.3464237334124
744.518002790289,374.430480632206,485.194371315639,231.978879866142,387.193566816357,100.072182603984,285.280263148426,9.09429414832751,230.310576749812,58.8638953164562,410.189904785929,26.9569065913022,334.967922708733,56.1588162506801,1909.4130183988,-155.474755819818,234.904762655341,11.5544282921619,536.003649284233,289.902269637927,752.886202965319,29.7228679339523,705.19083873532,-1.8416113017831,306.299470980117,42.1498566540453,849.138111366168,133.084714106912,841.468076889986,-11.32587114179
751.538110554596,380.551855808554,489.567994054271,243.205763774759,389.495144972288,100.667899840197,288.855007706779,7.99634813542115,233.693468957719,59.1610662399946,416.559858578611,28.2858614256091,341.885349606474,55.0645757937747,1937.80700388057,-161.607061037747,238.037711638884,12.7038622036589,540.701967016551,290.27415360297,748.817818006492,32.08894038533,705.970822831134,-2.27932302933516,297.737215154975,49.7852263209475,856.542255970391,132.852202953164,840.389073469841,-11.1194000545888
732.382868708819,381.777630343573,478.58915492487,237.291784851047,385.394375894572,99.6398029726737,282.53024811841,10.4235933095925,229.909473330373,58.7107023886805,407.211271268904,27.8181339120053,333.619139773922,55.9943424203668,1911.27661349128,-157.495564289058,233.299485112264,13.1407995889302,533.565189252493,286.765728292532,744.508438044812,33.3796155012537,705.728660622993,-2.70415208842927,298.516360781883,51.150540419168,849.521345683212,136.797117474111,839.175007033646,-11.650030785247
747.446329741708,383.204417613013,483.261697964747,238.464973761212,388.000873279713,100.317837691712,287.766940108333,8.99542819951914,231.117194835212,59.1440744027012,411.250685226763,27.3016961630891,336.75270903926,56.349383149665,1922.12646319704,-155.459902208848,236.099146763248,12.2676126306427,540.311594204937,291.867961111018,756.259508914014,33.2568032173894,711.356634751939,-3.8107697318949,287.335726479979,56.7834604895106,858.333418934727,135.154681417867,844.211928857407,-12.9520325559726
765.536751986935,378.83975001738,501.147776313655,239.739732332692,394.936898348365,98.1623832823873,291.220653979349,8.07402206449769,231.555243435409,58.5271857470355,410.910120776404,28.2534983303011,334.441363552274,55.7951301831963,1915.35172386647,-157.806150796834,237.370898875698,11.0295755868475,530.605723246917,288.006399625079,748.011867159683,33.117509872524,703.078235102773,-2.15358983446362,299.94043576905,47.8311493439154,858.502633204069,131.072948583485,835.325046377464,-9.85171388035111
748.447105447309,382.206228933122,497.750460778135,223.636558367608,387.33723644138,98.7438642221933,288.857520348033,7.2241495346233,230.745354687177,59.0854487740176,409.035392925673,26.4906819164738,334.41562046888,55.7411398321851,1913.21971497135,-156.803586861733,234.527414715418,12.5619520180555,533.366284972264,287.328164705399,756.492795079011,32.5094021925384,706.854308768541,-4.08271366367306,288.445171966888,52.1932548604149,852.030036936456,135.043811118073,836.682479489483,-11.1890912311059
769.906696389494,369.36548728044,495.600873561684,232.733867863517,392.208535474107,99.0887489381865,289.72740796883,7.55242230380924,233.734480574874,58.9981046008561,414.927860908472,28.1642163655784,340.929355264574,55.3495878386517,1935.85335257395,-160.748318862285,239.172860491615,11.4878069296999,545.70556628496,291.724594153918,770.990799349223,31.1751627460167,714.805623306298,-3.91513739562976,301.414177599999,55.3773444295318,860.841583385432,131.120845110037,842.225041497278,-11.9254282160134
749.801738714969,381.662559543998,482.098103881126,235.081199788013,388.366838047952,98.0031285680704,285.75714032667,8.65434834179657,229.261055385102,58.6592426266151,406.810989077076,27.301975179251,331.943567074746,55.3637671530515,1905.51882383277,-155.41818334648,232.994196668839,14.174774902193,527.527606550018,289.378069630579,759.394441569121,28.900780665845,708.574545110672,-3.79861394750466,291.495213285493,55.4554138268888,853.320337512131,133.305128184036,835.405086726133,-11.6134341681424
751.326293676333,376.324603303699,492.478848275199,229.224239787657,386.018407547563,100.713697694371,287.194753477602,8.48802035572499,230.39636698158,59.040975466058,407.879803584108,27.8154435975493,334.244643022249,55.3945685731847,1907.03270399911,-154.211350358931,232.905609982459,13.2798060822006,531.247886517549,288.814046862094,762.840976388333,31.0232169345028,707.494728179754,-4.19991621047455,286.27167736851,58.4434514652126,851.06661614792,131.734176069651,836.491768328955,-11.6641676303976
747.397659782378,381.365600807033,513.716491865924,221.317772772332,393.234746040288,98.2434498601767,288.870962565544,8.49310056391355,233.736119827189,59.0284274967354,415.100431121769,27.2587901053605,339.475864095604,55.7862765301786,1932.65794152251,-158.658459206886,238.793377562782,12.5296821419403,544.997185613354,292.57450503476,773.918615470105,29.3576251926217,720.2050427153,-4.59330685098744,303.221639395358,50.1650667626247,850.420456384132,136.70097053605,841.961821746824,-12.112268362337
735.688636693566,377.171221270714,475.075138837969,232.818552190518,384.427130607812,98.9921237757866,287.437386379873,7.28381457364692,228.459475415723,59.0316334729044,402.687041770107,29.6185052598065,330.517471951001,56.3166662691995,1897.6539421979,-153.353051261482,232.936691805618,13.4822458843007,531.637601021573,287.517217777229,758.705954805305,33.2151341197642,703.308194860676,-1.69717790837656,294.458607557194,51.3690419906962,841.840801495327,134.730956883963,831.380909276761,-10.6373729959795
752.835549883284,375.675678413881,485.031945685171,234.259026607748,387.284301979089,99.1973891341015,284.698866070755,9.36660532744314,229.991990407166,59.1160467872599,407.377512690091,27.6220712861969,333.812989158424,55.7754973282831,1907.23925870152,-156.67051621966,233.356598519016,12.8911072773351,533.464928360037,289.611360701861,758.709307169005,33.2155019333191,710.685877619041,-3.17659888044943,297.261254802949,55.8765076067352,847.720216155293,133.567352021088,834.709984330023,-11.8011218444098
750.278132976405,384.274989731515,485.10604579992,235.615818660386,388.61077713418,100.349981645483,290.578257591523,7.27896725702664,233.257088746648,59.4923200875948,409.977206870184,28.5349377635931,338.199128579533,55.5190800387038,1930.96888165405,-163.372345735345,239.335880052246,11.2795120643099,539.103931568125,288.032657109776,759.084155816807,32.0586054703894,707.85420009412,-2.83720955503294,290.421532034294,54.2649260090849,845.112832078483,134.342355431904,832.228119777104,-10.880931856452
740.17853202523,372.633578889298,469.392744635301,233.067997980856,381.131183143114,98.9819585860773,282.195370822593,8.86456539778924,227.713471155025,59.1818077442617,402.061294759568,29.80362660357,329.417884003283,56.2664588500958,1893.6393550959,-154.070426193165,231.092641168265,13.7667474397924,525.948620936733,289.287681715967,749.117315830622,34.9778238455437,704.48298598877,-2.88231213801596,295.473184590265,52.9674585571849,838.789767102742,134.159560472412,829.143869355438,-10.5924952574569
750.467172727661,371.146591815006,472.025335369302,240.222874655843,386.775868119274,96.8908915675037,284.808748742343,8.60008766708704,229.574282108867,59.6337113257531,405.428538925179,29.0767131732858,333.200027051928,56.2456666304378,1902.00660959728,-152.163750257408,235.772725896564,12.4176159953848,534.122761710354,290.473335847167,757.626323810262,34.599009446148,710.209564098684,-4.01123927889254,308.71732692242,40.5824855150872,844.415647832879,133.32697457274,835.080923409285,-11.9089292523673
748.271813636416,383.350702119045,486.624818996808,230.620111991489,390.070127764094,98.8296751745899,289.215990455668,7.70895020155745,230.251024572748,59.4173521058187,404.371391137937,30.46859865972,332.432003973488,55.8096290590921,1909.4541928669,-157.31870227017,236.005740178505,11.4458116833504,528.072801453177,288.026419934673,744.725835933663,33.5898137559825,700.657732739577,-1.38548253827243,292.666236679383,49.1349223667394,842.705075307936,133.273096953542,830.608799254547,-9.70451894603748
725.035816568045,387.98609593062,483.236013697607,223.064252519767,384.573813400195,97.2527235539877,283.256296709004,8.28846984485816,228.624513222997,58.9342184773411,399.258464562564,28.7965939888824,329.814431419204,55.7877453678739,1890.47801950299,-149.784114855002,232.281238557945,12.4126377484013,527.327745166749,289.371187061226,744.30867948034,35.1627379435325,708.002722622727,-5.30712093160579,290.322082573362,56.2026427031237,840.939079855234,133.835709317918,832.672080569704,-10.1224578919924
737.885254965762,378.956984973312,490.051042280324,228.384991509577,386.224770851515,96.5276162813504,285.323087211048,8.57806814493696,229.929187384445,59.5472865735511,404.122518325673,28.9670760708799,333.480634808652,56.2381700231245,1908.25467126096,-153.573606771027,235.72503193005,12.3123026813635,539.720407209643,289.570296776961,755.861185026124,31.4660913956085,710.35347408095,-3.41266362896011,288.888897038507,57.7066752520251,849.645539565906,131.608910079377,837.042252286349,-10.1719821962983
743.218584208043,380.174573785197,485.713766124625,229.466368275171,383.410874920665,98.428141683076,282.985729729135,10.8423214977963,227.965248329884,58.9377840965248,398.660423596058,30.0415593995175,328.89003295131,56.2121511188958,1888.4412731659,-152.380740965759,231.748632397584,13.8343576526365,523.209953454677,288.001910494985,742.270098190685,32.6478653883748,701.997396263512,-0.782960634189715,296.879884357341,48.0119350715135,845.809722790714,133.665023449663,833.812709660222,-11.5921958901532
728.413180741571,373.930794605115,466.853459929808,240.245445104284,379.886204260757,99.6516999406954,282.513630038995,8.88228992083768,228.770615446546,58.6398524421212,397.12072045273,31.1995714010001,328.914784303413,56.4617305559181,1892.71572691844,-152.79260447339,233.324021964585,12.6383218417445,529.360088006417,287.232450856742,743.739329659401,32.9776359256288,704.171591901463,-1.28128089464013,290.725949884134,52.0094517374466,843.035868243507,134.536730020495,832.147387387112,-10.4808801327602
728.696778072363,377.698924398025,484.925243917297,232.815631446441,385.264118201408,98.7416191649124,286.22338881232,8.55801303673202,231.372704690115,58.8736664817895,405.605999139382,27.8523902549099,333.864084953033,55.9842726886186,1906.91865551684,-153.678094109665,235.51984481295,12.7714448355951,537.912086963608,287.678832186545,754.14358860746,32.7741028360817,711.3611233184,-3.4313681964451,297.03336206779,49.3418244549308,845.431768098614,134.80945845187,837.460657657045,-10.932325067084
732.94515791458,371.188893027023,488.145342569994,221.895362225897,378.17141909898,100.340683704609,282.611005526285,8.14211043260945,227.388090455086,58.7570821590804,398.104916563105,29.897782478198,328.520655520849,56.1042786642402,1885.14836803015,-150.90531490484,232.829581828492,13.0450814376011,524.973338310102,287.102145839459,740.644376383343,34.1056625633646,700.546380812188,-0.875803280700645,289.353485700455,54.7440146941637,836.206810262665,136.167782504274,830.946321603365,-10.1120549759336
726.903874439498,373.818598847603,478.53448121126,230.203168192326,380.502246165735,99.5214426554353,283.149484850475,8.63856374708042,229.220276742456,58.8588136888102,399.008003611687,30.6263597427902,330.555628569759,56.2135228884234,1895.40981893102,-152.739962715518,231.642630937771,13.1109724405158,529.861868669859,286.652027930525,746.371334566712,32.8796561937797,704.190719503461,-0.823696724637567,289.270963891477,55.6836461331836,835.182130688547,135.084425150978,833.542913520587,-10.5319619732268
737.523980021794,382.207018906846,497.354110887525,229.593563243385,387.979893825613,98.6426070853489,288.944689864576,6.66288920241672,232.927271998724,58.834104659519,406.730740599476,28.5979738218261,336.601343179798,55.9586927724518,1928.10798183979,-163.233421555562,236.70023178539,12.4892384820174,537.464648119743,292.661618534692,757.449707115745,30.7005828021432,710.419477660992,-1.75840847054101,288.059060598625,57.9293392127023,845.659523715746,131.940640908381,840.569832636791,-12.4981571981793
728.698431379046,376.683957274501,477.522688890291,227.81927034389,380.094232424134,99.3583957953085,282.097479250926,9.63308225279067,227.987970979094,58.6649192057834,397.232286636532,30.1352100517773,329.160731525945,55.9389268578031,1890.89852191395,-156.181942138512,230.790505876864,13.1282263295951,527.78076640094,284.241235009595,740.645487915449,32.7096359191546,700.211120701629,-2.457739481679,298.428699702005,43.532108897523,828.977564456098,134.018366928542,831.99422908591,-10.4321085538357
733.349849025792,373.702668730655,479.041720983581,220.343639930601,378.952436542101,99.9201498267304,281.648614821441,9.7584043498619,228.541690588701,58.9041085315714,399.277636496401,29.9970769539255,331.154982880686,56.045558148696,1896.85256682422,-154.309559622957,232.446712139482,11.7509168185024,524.616260927047,289.962883255405,747.538157598299,31.5531527042289,705.266412986535,-3.49431684822441,290.159910275597,52.3271147931268,832.319829232023,130.781850082364,835.864092536765,-11.5271553914244
735.321713446538,382.81455311661,494.027012499303,227.779376602558,387.260849136749,99.1057415313236,287.676603861906,8.28218705918075,232.853728846772,58.8936385299629,409.227549778483,28.1772133873908,337.873442627473,55.8202787458762,1921.12510993102,-158.268008500795,236.644854141388,12.1390022154227,539.738777038643,288.867068167408,756.757298756227,30.9330612887569,709.759383409478,-2.29060092782075,294.351535090701,49.6184832628133,836.836942123534,135.127437464412,842.00618629797,-12.1463404367439
737.523125943719,374.551279307812,476.982186509114,231.029693412041,380.989668727758,99.2662444313176,283.351744260348,8.50895249406518,228.473462436992,58.4379847361712,398.921264512604,30.3023794315431,329.78636042847,55.8268142147309,1893.7388657114,-154.901967468591,231.322343124272,12.0093704513864,524.777277036535,285.993114756828,739.31067926889,33.1605778488895,700.633991209557,-2.91688200155946,289.963208431267,54.3641824717837,828.916177693046,133.297881188108,832.350385200657,-10.7815650243332
737.361633364825,377.324972909326,483.512876724339,228.04333373574,384.094275333403,97.7390099407221,283.929802351849,8.59887674223021,229.228090839023,59.0788650437424,404.446702004424,27.7870936312518,332.43677391961,55.9387627144408,1905.45242717742,-159.508072611967,233.051193051295,12.4330347919602,527.912517526698,288.11801874741,743.009901511713,32.3721775991446,703.197626657395,-2.57693508889028,288.373179593761,57.3215381581693,828.221699209216,136.180766750821,836.185205376323,-11.1077939201435
737.763912350418,384.527866303079,497.973782244784,227.066814659733,387.582723731075,99.3992013600004,288.176525880647,9.08805838615675,233.081102053596,58.9211617181281,410.076264291214,29.6997412964033,339.071925380425,55.6515281902516,1928.86136601877,-159.477227020365,237.445307902085,12.0854529204995,541.668932788038,291.02685371313,753.392447405065,33.774385154936,710.365668530548,-1.95833353713626,292.060247185376,53.240139910108,837.740075027339,132.030439761991,842.767167045834,-12.217181375581
726.516202317333,381.949283974219,476.595466921361,225.551391729092,385.92239518813,98.5982665808643,284.997110546824,8.76325005295264,227.552447116487,59.150022281945,402.688936022589,30.2201250394067,331.048984272476,56.1513572709151,1899.76661298723,-154.593780126005,231.727556919279,13.4857839375167,529.042231976307,284.61083978134,739.866431760159,33.2810083630428,700.095659771238,-1.51093120527069,286.831531946683,53.5902048056899,828.720414575666,135.591912014793,836.435049112227,-11.2319958925061
733.543564841362,376.149830115314,474.911960336118,233.737860631952,387.07009489777,96.0145288009954,286.275824323878,9.2691990550592,229.164887830012,59.5287135612446,404.085963265892,29.5565985221614,334.398731480218,55.7475310621051,1915.47304210556,-158.595675461467,234.211630812875,12.948353910563,536.581246817844,289.23767497712,746.130226041664,31.0334501879748,703.902951239992,-2.33096674975028,297.74159527331,49.8493898088153,831.662963072108,134.449127110415,841.175190873008,-12.6440072783746
756.317964295772,376.858188630651,488.752684909179,240.78274459478,390.189302991576,99.9053057536377,291.480655639842,6.33497036163565,233.242785692147,59.6897979129258,415.426110215969,27.3856740412645,342.030274442227,55.3765997829559,1941.22099860534,-161.194304284843,239.692698175402,12.5614850668696,548.784623801441,293.539069508829,757.017707396869,29.8570189667775,712.052681464935,-0.908811790713195,288.634472375083,55.9260564990342,846.048473597034,132.554130242435,848.873632749895,-12.5043238351877
750.281661530237,368.752362069038,471.861080702503,237.550488150786,386.87862641921,98.3853833921713,286.603339246649,8.55106246161155,230.139864631929,58.6302478741206,405.557395473277,29.2860826250587,334.661376308976,55.3584673946916,1917.94809354276,-158.085241410816,234.949073128627,12.6044982411478,531.892376784824,291.034756316234,741.345793193177,34.2108807563832,702.450590801928,-1.09537578881782,295.685608936647,54.1833097566223,837.500928492445,134.206497195246,841.925801788179,-12.0742588145849
748.030769488892,374.325298780812,490.726276184507,230.514117946867,391.439357153714,98.0407255160225,290.683820043828,6.14059271474259,230.964081650573,59.2105936365974,410.322326172794,27.8913917968159,337.430247603902,55.5525099339406,1923.62122398817,-157.601817395826,236.022072856707,14.0053721102992,543.253043387901,289.751628566842,747.47530294677,31.3646565908071,706.863179299081,-1.26745180237329,293.037741881423,50.2997554744827,839.854146070069,134.0469734483,844.145749392656,-12.4890822313288
756.615562712035,381.127784724197,496.460026539526,234.43907043249,394.789259443034,98.7111220094919,294.960840400573,6.55238590957955,234.725777077008,59.7400773151651,421.695229616001,26.8515319151058,345.235731236491,55.1561440682127,1957.71034543256,-164.578184864828,243.317722341222,11.1595440945274,550.576833152885,296.094798837347,761.158551749297,31.2459628598394,717.763349562587,-4.19219163369229,301.609844575436,48.8776565342458,846.605231104116,136.880433078877,850.690327768225,-13.4617928046549
762.929705363838,372.739378714974,480.868020078366,237.565057646961,391.708441642909,97.2576161336481,287.586429014623,8.32340246711898,230.578498744042,59.235015278673,410.566037737681,28.3876244995015,337.658914963892,55.1612126080157,1929.77785034445,-160.023279362641,235.289818475533,13.6309309244036,541.154678248824,289.572566699703,746.550010839051,34.4131099457366,704.019300727448,0.86560505900145,293.89026089236,53.8066700463081,841.647691947151,133.753698663926,843.95871603235,-12.7230372754039
758.798627065586,373.797093931807,484.264267807436,237.92259517551,392.682156719288,97.305395267302,290.607861543403,8.71353535487714,231.87810765946,59.4141892104658,417.066456998968,26.4470268981206,342.77400118378,54.3388366398647,1940.36872082629,-158.393824660648,239.327209615394,12.0101944577373,549.04359715218,291.854276680676,758.202284950853,32.5906095349595,711.040997174424,-2.57368431697929,299.23483221355,52.5189052465755,848.031521318083,130.42064276642,845.12716056218,-12.6038608586295
765.94976788929,377.555415450847,496.122534948208,242.682780855186,401.690948142887,97.7813412922993,295.579298707179,8.37504290300108,235.944733938692,59.5645559821781,423.753528357238,26.2200738692059,349.968821883945,54.7987232601615,1972.92766998675,-166.265118918603,242.406326580465,12.6853601181405,558.955984508862,297.306450059704,768.879699254146,32.2229774895618,720.391246826604,-3.41380638246266,303.039024166334,44.4731958371092,850.220005629081,134.905901932417,850.608341605028,-12.9153584961049
749.686066424959,386.050829360881,488.634400094123,229.067446443605,393.093931293283,97.4172087282926,291.185582501403,7.98946155678896,231.910950046885,59.0684424855643,414.426616844609,27.2358100777006,340.926036869288,54.6642295878432,1943.88189940676,-164.17120175926,236.240655969487,13.8764258066575,541.371885490081,292.279386448577,758.823591699024,31.9492915558557,713.74844563022,-3.70567846080469,304.795693119842,46.8660141102661,844.595693575927,132.717036922033,843.404429680978,-12.3973913705414
762.794063458141,379.202689915951,496.177560798321,237.176913658761,396.55074865357,96.5887535851404,295.128544472525,6.68015545495981,233.907053745836,58.9266098053736,419.415405789915,25.7822868209251,344.6618939601,55.1885081222482,1955.56266730847,-163.853934725704,241.623060848205,11.3786588004452,553.848158518939,292.486484656385,765.894848867537,31.4275294206825,713.78671051144,-0.697453181785958,292.585699383212,57.1632922552629,848.511488831675,133.109928683059,848.0752731719,-13.5849654050696
768.974798021512,376.675688610923,513.449369583294,238.898627878206,403.769985969151,96.5165099668922,298.553482433875,7.44918845555165,237.086498152527,59.8284341601663,431.406805697607,24.3807531480377,351.974921461038,55.1058562134082,1987.25450832619,-170.211912799729,246.963788819841,11.5706122985789,563.539141832145,294.73095181724,774.431617149427,30.8642931678818,718.653922783491,-0.921097278308537,296.775417001699,55.7067094814515,848.537803946346,135.43038947319,848.932697911232,-14.4289391497223
755.396448525701,378.883947755528,495.273333479945,235.04458906653,395.435603049521,97.4670763294847,294.201601033006,7.32121912982967,232.553876311488,59.2557420591168,418.135263586645,26.3413047880062,343.286055133099,54.8312419143406,1950.35119747502,-162.287733295492,240.035771141411,12.5269244787556,548.37918297818,291.294452655772,763.42955048815,33.1972256407961,710.42477312338,-0.963527156086453,300.477190674228,49.980402211635,844.831955276707,134.774402815691,844.505273102528,-13.0240175460113
766.866934375859,374.033928099513,503.835101975298,232.366992690835,398.98429567277,98.5154099851621,294.890000912467,8.445433475218,234.790967671272,59.4301869170302,425.092926148587,24.4551576716806,347.967037019627,54.3935449135883,1962.47342235112,-164.25360772572,242.340275219158,11.4442994371334,556.825241137253,292.333668549418,777.992315204661,27.8069405970975,718.059982824413,-2.16365207259233,301.207494994444,53.560112588334,851.616684459313,133.832731878446,850.052387497482,-14.576033568355
781.004879797308,380.162850176297,517.022854212176,237.336038979198,400.358999616553,100.414410279842,301.144917026251,6.62341477720589,238.77372517221,60.008039445446,429.049006766295,26.4627796588683,353.051464291459,54.2482134167451,1986.56740381359,-169.87220229701,245.633382977485,12.208842419507,554.631698789247,294.540355470609,769.329023274566,31.6621974367756,716.765348239346,-1.15921652558943,313.304797772117,44.2492478395403,851.463066713682,134.402223973884,846.183893207264,-13.5558233963543
767.399903686467,373.920850363306,495.529038349435,230.119575701064,398.853009645022,97.9531123085986,295.870874047988,6.38937795002266,234.174760085135,59.3352689728154,423.719250809105,25.8848394784849,345.405761417777,54.8219969893547,1960.1843773159,-164.899140761421,242.149127318723,11.4320947784597,551.274694290851,292.40317726475,774.176368569941,30.3092211887675,715.162547707722,-0.762090159707734,306.076560116315,49.2019687731407,845.329115657371,136.543303319824,844.430357180326,-13.3201401679061
759.118060301185,386.879615585964,514.222698234082,223.883025817029,400.108743006667,97.3615060630119,296.995835037623,5.92399882605931,235.492887054826,59.8494393299338,426.452323899666,26.0243428557094,349.988630999382,54.316546952855,1974.73132748701,-166.592745252429,245.264940771629,11.253592852606,559.244978486297,293.724496702866,782.08764363197,29.9642323942194,723.865153037802,-2.99906495601962,301.468200735286,52.7719703331994,853.312804459197,133.917739086066,850.04963507203,-13.8957550923305
776.979511445392,383.767444077728,507.67228004957,239.387551031969,402.749441758041,99.1055484568507,299.070990804463,8.361416102923,236.670512394303,58.8974121913151,426.144723547565,25.2082530806137,347.084766970878,54.4271065052436,1964.98302113994,-163.954609684788,243.973997812109,11.3481951530929,551.603714741697,289.813740469662,768.942241636305,32.5528706313342,713.752020398007,0.525409116178353,307.277696947046,46.6066073791356,852.758137380039,133.121665594362,843.854448215553,-13.4665168132012
766.58188862847,376.384880157051,504.651418319382,230.722104864365,398.488114631734,97.4683900063856,295.939728960472,6.89724517730455,235.09873979659,59.2911348581161,421.981817746287,25.6856063310944,345.510904582766,54.7012128324109,1957.67295500339,-162.326351157098,242.758453221111,10.2514784055597,553.700928990407,292.05590280686,773.682763267884,31.4664199391874,721.129544852928,-2.79671512213578,298.951853195261,53.7610410738873,852.6120084408,132.47826287836,844.81129489701,-13.2227843347346
753.182155595332,390.643863267612,507.233211200831,229.762925775984,401.177088097237,97.4287893442436,296.074520662436,6.89520814125749,236.553795082751,59.9685706013923,426.855787790827,25.6336216647326,350.694686004941,54.182033376109,1980.56514154525,-168.215204229761,243.006377451118,12.3109150837461,569.176478368887,292.258130973815,779.187334366738,29.6523596051844,724.982577404872,-0.661370569280827,305.955956471796,53.3506045262659,852.885650643543,131.733852494286,851.57810777252,-13.0432866304385
766.815198099301,374.575160036723,520.102699791636,215.534211735635,397.010940572061,97.2676047916503,293.605043521152,7.00274422300236,231.047983884665,58.6232761438379,419.352353657785,25.0282605028972,339.451544920432,54.5058525109861,1944.96108898073,-161.20667420497,235.024377136234,12.4049632004081,548.387382882541,289.624758017651,746.178202842664,33.0833842633242,716.303525368598,-2.59203008443981,301.162504022146,55.2006633276876,825.34997736794,130.828050090993,846.136688791161,-12.8898332243355
768.803984989986,368.330074431363,497.382436929702,219.872833626185,392.704669701381,98.1524021026216,291.415923481303,7.37933962752046,229.493508872614,59.1228257445241,415.937694075726,25.473608996068,339.678396598531,53.6822541928464,1938.25930863716,-159.234256943976,234.167097810837,11.0784241543107,555.060487762448,289.764617705534,740.947467935404,30.3442611947936,714.799256298832,1.84726608847029,300.20397385235,50.8288268481077,815.082350674893,127.256635746189,845.686485129547,-12.4924154683663
748.403994469169,392.176462599842,498.218612391354,229.936283358927,397.998543721892,96.9161584895494,296.182482966358,5.97651935277832,233.466926294495,59.0763366361038,422.728849892422,25.6114079159418,345.852487459547,54.0570971010244,1960.39749614409,-166.12002136695,237.740084376333,10.6310530612231,567.164689724642,291.787034616126,750.860933202101,31.6506054877946,724.544531785772,-0.281295123282887,313.121691787116,51.941779751194,819.756739302859,130.863466984731,850.95533577031,-13.1489149041282
757.399252672975,378.73548798909,484.062196441506,230.801453553716,391.352929070037,98.3563216049568,292.885966207151,6.68986121802432,229.20692350543,59.065052188942,415.991488665409,24.7530088142346,340.338322138685,53.816543094957,1931.47122365507,-158.818033276037,232.046460744197,12.464534754513,552.122914882243,290.009209311117,740.393169730071,33.0234927552363,715.817071291222,-0.311729502526384,305.926973375552,48.0827979716351,818.279932415604,130.150074234735,843.678405957087,-11.9983975743884
753.455713026338,384.146949856722,501.876328352268,217.696805275603,393.369825677768,97.4693624037605,293.535647014735,6.6408888792131,230.831786365029,59.4174366314704,416.68654752391,25.0951266726429,342.36843897623,53.9580254026884,1938.80960027352,-159.119931910138,236.173926998723,11.3781640545459,557.601404733967,291.054867695401,747.003201038844,33.122471588337,721.005266130685,-2.28040434447735,293.102605023276,53.813272196877,824.14920665508,128.80057218476,846.451103462223,-12.9755226136533
763.535491121088,380.876713806858,504.098718146321,230.336510440609,397.218134327393,97.9336432860716,297.37961424829,6.42813951000302,235.170415973215,59.6410838712228,424.360835405581,24.6027931406428,349.460198961706,53.7349041306201,1963.87378793194,-164.272164650886,238.581398833109,11.1999644496522,569.286747191207,294.394154450207,764.554144199374,29.4002312901407,727.063401207235,-2.39748101090495,310.375232854176,46.832298552677,831.353688204105,129.949144855743,851.938188142801,-13.6155463871314
751.979769172849,384.000472276216,492.374971134241,226.057902230821,391.154296948401,98.5105357611735,293.491714939174,6.97416756501203,232.414448576952,58.7278580966729,419.987692337435,24.1638707852205,342.698695813775,54.115553951068,1937.52334998296,-162.324980478224,235.419463858979,12.285079469988,554.806527349992,291.860524216988,756.856922443431,30.3429735048808,714.77907331141,-0.705915018892457,293.95718842489,56.7111973407657,826.687764591656,131.612209455858,843.864366495258,-11.9687991331051
756.216015231685,380.181083930101,505.130116225543,223.702209304253,392.912108643164,98.1720784762551,293.203297168402,6.76211603576997,234.365985815222,59.2918931350107,418.673294650758,26.1840138632042,345.735303462786,54.3597371068895,1950.98940623757,-165.502838234821,238.360199194423,12.2084184432242,561.830977328655,291.436174907288,760.843946587291,33.5390210100231,722.172424446332,-2.40926980348937,299.459699818066,53.5957690416588,829.82888335966,131.550845913776,846.585215545107,-12.073959780435
776.450139529182,377.17138647176,498.107701713567,236.152336280743,397.654176508938,97.8262041402816,297.85056325931,6.54375000085203,237.258473547174,59.3125602021715,425.059693809963,24.4665417448913,348.73157444015,54.2116026303714,1960.73136062915,-164.861953291972,240.332873622668,11.8092619843278,559.634415064526,292.559905818736,760.659665370629,30.566262132154,718.53878637325,-0.881767170604869,298.463297623992,57.5643528677851,830.4116555451,130.983133619372,844.461097813271,-12.9780096914154
751.459040185566,381.877926187091,501.689892018478,226.762847478557,392.505760499748,95.6388072363483,292.036175653996,7.46747837366191,233.418937379271,59.3898147391571,415.657647469733,25.5053473517399,342.942026318449,54.528443218381,1935.55367488134,-160.455550907209,236.602572387132,11.9071720695203,556.051840013339,290.728057715772,759.144460435911,30.996375905863,719.231973439129,-2.10482907497556,305.482144794775,48.7792464308567,834.855363560246,129.547141649346,844.810090655192,-12.4152856745909
751.280165991133,375.03066124262,496.952997276402,232.620942442721,388.484232829664,98.814680856925,295.269880911705,6.4447438162606,234.842798059234,60.0298718759464,417.510740668114,26.6561357210037,346.543354508832,54.8021244633196,1947.17389347596,-161.685983729368,238.58397291435,12.6646051641946,562.462536850831,293.1190225548,767.093514612194,29.8753301913141,723.701111474274,-1.6883272347139,301.523790980065,56.8313833308239,837.981015070849,134.418206685476,847.196632487335,-12.5630400700451
753.179742798937,377.595225050388,494.724525222712,233.228259378082,389.181549574523,97.1158672914369,291.627296191446,6.89007200570306,231.442349835302,59.1795435474503,410.545000688774,27.3225323631205,339.417642679493,54.8772977606302,1918.93399312021,-158.876879216741,233.21961981686,13.0574513679171,546.349028442195,289.142760304866,753.264156726659,29.8404881333651,713.003236798677,-1.11510787874727,299.050182900224,45.6608443443182,833.004483208681,130.151010009228,839.329259708459,-11.77362600841
759.820840423644,370.792158297292,493.682808310762,228.542164102383,385.398849393851,96.9366284627185,285.823858312936,9.25110669132586,232.659387413912,59.3907246168979,406.702105433762,27.7258655122257,339.348967512513,55.0648424585726,1911.61888948386,-158.844796551327,233.361058621228,12.9203237972756,548.011770905451,288.018118152361,756.754671736383,31.27207008788,717.578816896894,-3.12628031720228,288.226383555583,56.0388496877845,826.492474981084,133.462984630412,838.456371166219,-11.2387217622106
760.129819193212,374.872734935064,504.670203664916,224.736136290966,387.587065948777,97.896033194552,290.298212726171,7.72541816747039,235.741373226163,59.6024267460885,413.047740960302,26.5559188884007,344.982879718787,54.8490247481357,1928.36411578302,-160.314524220007,236.73877735716,12.2773067852758,556.8846365056,290.792584870923,763.818918328311,33.4871704861619,722.791876092007,-1.4429762828305,297.943635122017,52.5514169054218,833.662896129833,134.224318688699,843.318490254336,-12.3655064259678
748.000981170594,374.245974632157,485.777001805976,227.30253320333,383.038479566896,96.7084019719845,287.791271383978,6.06420984525607,231.121249514363,58.8591651519232,405.028818763838,27.3958526791336,337.326362044278,55.0159530943081,1897.98642571377,-153.498306139912,231.826221301681,13.0685703223225,540.144891749479,286.039020092925,752.201862380371,32.4349465462345,710.13393830478,0.689090738294109,293.148780113208,53.6849753585648,825.181986743211,132.692089124898,835.249828455899,-10.2066676448019
738.531568382835,380.847113359993,480.581120020486,227.932151801882,380.4399476187,98.2611420083584,285.080746911852,9.39814585757852,231.771084158636,59.3128936695006,405.272525565138,27.836408294679,338.14675981225,55.4333650293125,1896.92663316815,-155.060574128024,232.652819522439,12.8230215610856,543.469206502871,289.528790864702,756.905581327385,32.0749993155134,712.535472052072,1.63903482861477,293.367694024051,55.6914051498496,829.914364756737,131.143595052227,836.401500528054,-9.88638767817355
743.66718613786,382.091786532037,507.059988055033,223.413637730443,385.260419606072,97.9022009268639,291.500707837598,5.69972535878019,234.393567446058,59.7662328237535,410.514964489906,27.5899025400776,343.348294178859,55.2411114345818,1917.97382845716,-156.904262911471,237.634369826381,12.6220328568328,553.504652629049,288.03296930936,760.040228357344,32.6896641682465,724.507631322198,-2.44868073676931,297.698162885266,53.5182569583226,839.933343961238,130.962004284598,844.417638428674,-11.9615834779021
739.798045124252,371.454977750765,486.440979351138,222.531473685555,376.188823739529,98.9705864542989,284.07915014968,7.8995239528351,229.353897221166,59.652401310655,401.363250812984,28.1456708775459,334.580569851416,55.7270335915744,1879.97056829748,-149.23937375098,231.639796830572,13.7905781994892,534.27555595517,288.32407783503,748.915905945391,32.1891000574783,715.299127831461,-2.08048501212899,298.84560827502,50.3029132828487,826.838853785589,133.561000932983,837.036926348787,-10.7475955216095
753.597810712425,369.105539016385,475.931646178725,236.521402359289,379.189377376655,97.3487280227476,284.350103000549,7.89980665036604,231.717624814129,59.0975212183836,403.046361032623,28.8794267248639,337.320752398519,55.3878746868989,1890.47750892988,-151.714562130642,234.350836307741,11.8798331893758,541.70629873749,288.134232948709,750.993180892247,31.0635362408577,717.954592291165,-0.564684065886933,295.671858956361,50.0311508930282,830.102157751419,133.263447308135,842.322186553636,-11.1618788950146
753.709952667424,372.580225296771,483.632521180961,233.71122918896,384.973494958529,98.8383338395386,287.941041452898,8.20582728407919,235.24128652222,59.3886504664712,412.326647122977,25.8274307806971,342.434198749872,55.4787817526101,1914.83718392503,-156.755556659819,237.090739726773,12.361296850364,551.902702994012,291.144395902337,754.056290204076,30.9869689200852,724.792863284544,-1.1586728643651,295.096179897487,53.0554881446919,838.254791919172,133.003096112307,847.363155897137,-11.6189814914912
740.737115524532,375.371465787386,483.609972775137,232.084198330445,378.901225391852,99.1546578101714,284.752660940068,8.14688624011016,231.368321227992,58.8322219187938,401.402370341311,28.3403865287797,334.824772284539,55.7212621255455,1879.87357952933,-150.957966205931,233.250629553361,12.1688165355078,536.931712991607,289.614038529038,744.007949684002,32.6223357942845,716.524957951746,-0.915045463284166,288.245450220302,55.405061726591,834.008908952852,132.115354675541,842.271783098067,-11.4382597803384
727.622219790867,386.448683786588,493.891245852577,230.285761781879,383.256873205288,96.6690693932951,286.760164472082,7.90826642962797,232.228694584933,59.6021333602782,405.889707544931,27.7145490015493,337.473871658099,55.3923597270421,1888.59781148809,-150.174717434602,236.087354637988,12.4290657068803,545.67401648016,286.245249867828,748.629141575386,32.0791550835617,721.721285690065,-3.47557323324816,290.859772647357,52.6513852505937,839.225746497902,132.187148812855,844.656361018291,-12.0771196279234
753.552956280859,381.119282422377,508.174642504831,226.510468423091,385.993117801032,97.7789616267591,288.010427775526,9.43432919381718,234.803468404389,59.4319706809439,409.486977731528,26.0001903187531,339.762161088531,55.3863079630456,1905.35245775123,-155.806345861381,236.441482630561,13.2864622746542,540.772259088356,289.372782687399,740.127715655507,33.9995308867749,715.694470125659,-1.50649180588131,290.587563068401,53.6397984474964,834.812422826598,132.676234751215,839.195727276662,-10.4585871254582
756.505886376975,361.40970791095,490.613261669469,227.942000026694,379.506567558234,99.178421606655,285.650470935454,7.31985294392728,232.478877349697,58.4332390298248,402.660692317619,29.0003437772077,335.304103289359,56.0689458511872,1884.44815217112,-154.044416286827,232.597608454293,13.42564857834,538.118517996814,287.011489078742,742.550176815301,33.0610807434303,718.972336413724,-3.68048054127891,300.183550250138,50.2178015458888,831.769491695004,131.302603263065,839.705073633753,-11.027205016285
743.139123864836,380.81220177883,490.878312764187,235.236524551781,383.237631734171,97.7719948561941,286.448685115994,9.12700275349716,234.284807897415,58.6617306800716,408.730861759906,26.9260354306898,340.237601584829,55.5531703246771,1903.05386013946,-155.364273703833,236.467181395978,12.488719148487,544.639862217026,290.182803459246,752.150804415953,33.6113184058401,726.181338728372,-4.26243233619695,292.548247748594,55.5303934533965,836.284947547516,131.606329395183,845.875988013922,-12.6984838075107
754.539437300888,371.829224289891,503.807005307665,223.322527321279,382.08804622627,97.7564800079372,285.900819059582,8.25850474131732,230.98082638394,58.5217687434168,404.325219513534,26.9256871415497,334.57577773776,55.2105207832511,1877.89651393009,-147.730643492648,232.142819841618,12.7421363792947,535.378918027769,286.704311136036,741.448415106523,31.8135799981095,711.110290453723,-0.987543274618417,292.943173998155,51.711329376193,828.004580412682,132.009069861904,838.724018714646,-11.1868211758361
763.892451444313,361.54060968424,493.160073725389,221.011880688087,379.414039467876,99.179146995608,283.535534817929,9.09331667153012,232.102880513682,58.3048541081519,403.788482421615,28.1241263399327,336.029015684237,55.3532720664111,1885.17802464031,-150.50710992453,232.087381357126,13.6216263233696,537.528104225822,287.435233621037,742.953508177659,32.9663613328498,712.532274821643,-0.945255933836541,289.674488284032,54.6478128419867,827.49281832916,132.744537551304,840.209410421819,-11.5842848491957
754.838955385025,379.790094752232,496.026913331981,223.486522774475,387.006956336278,96.1372303479028,289.419623013148,6.4718610760721,234.985265101714,58.6904574044513,409.315875006407,28.2766008685056,341.935908346906,55.3575896912312,1911.06907113662,-153.759317807655,236.568969891343,12.9530976129261,547.104252144758,293.089238169121,753.471788103969,29.8884659983076,718.815844685358,-1.59974404146128,299.977036432419,50.1648551157189,831.056640672972,131.897685937417,844.13193607093,-11.6586189363804
742.098143912752,373.442962716144,502.580366307877,217.517242815751,383.174496893668,96.8030213806756,287.485003718255,7.33205067459709,230.601866798409,58.5596441426048,403.599688498223,29.0690653509786,335.442293546542,54.9992159246233,1883.87823322037,-151.159266226698,234.452424039753,11.329041816058,536.830943058411,286.434510709163,738.99164515679,32.8599266838285,709.549673522161,-0.507870512242708,284.081763335595,60.7952376362865,824.948168727274,131.681416082493,838.123386378498,-11.6937062191622
729.710677833972,379.620133469197,480.384771426442,228.720310848616,383.124478667194,97.4434942768124,285.362386258057,8.49062529104436,232.466997051224,58.3256877726456,403.057901474616,29.0248136015083,336.416089808675,55.5909235706653,1891.42091932725,-152.536264347551,232.828695976765,12.4249461027367,538.897643972223,288.142859200457,742.944429758291,32.347951676934,711.87731113742,-0.924647323299313,296.898228089199,51.8186133526036,823.040669720926,132.302034996942,840.315655861788,-12.0861390827047
750.238410949281,374.858206987429,505.58138767425,227.738343167243,387.326603961591,99.2826256219572,291.248978713772,6.80865456030664,235.854578584141,58.6397586459142,412.562050317778,27.5583837626419,342.97354825705,55.3279871720349,1920.35648077639,-156.3703713565,235.414810711792,13.159313219945,553.261426052754,288.978177136533,757.103443645171,29.7889362439731,719.002602872371,-4.40313983437232,291.306169776002,50.5928295889877,832.963600397967,130.150497749832,846.488832488986,-13.6422933813103
731.074329877666,380.366762880235,485.585666735779,230.659583912489,381.28248711862,99.0752146895698,285.314173078979,8.79372573717188,230.498558532626,58.3638958211724,404.255403046135,29.2223418639371,335.530615828731,55.7864938429024,1894.62967579573,-153.905039758476,231.153721693087,13.370056585784,537.216028915937,286.199754617473,739.214084767181,33.8091582621131,708.166137891802,-0.781190117174057,286.924155792618,55.3695959153012,823.061658583033,131.842969752866,836.55649736614,-11.1749824846569
742.931472799472,370.875051377725,488.995128860427,224.494683940263,380.432943361774,98.7979889795456,285.616233749119,8.19247177346238,231.480870214291,58.438180508487,403.773061709343,29.2177435493059,337.084844822057,55.8826674020396,1894.86654163678,-151.145618605913,233.769949618338,11.9676950580469,538.457507070369,289.298950348652,742.451176575497,31.7380314135765,711.61174912215,-2.97516570690209,291.503225981638,53.2599228454917,819.990585897192,131.76985673875,839.641342379178,-11.9614964404604
