799.647516953154,369.218016000916,541.020227371847,246.149400230208,414.856604737246,94.8690372152117,327.050568242423,0.252714063170365,249.471849735405,56.7745395430063,451.40926467733,17.6963785654253,369.908307738872,50.9558711182247,2047.52249684833,-193.84337909045,259.574322234021,10.7383804229417,601.384037130295,289.522735283418,863.53378953554,23.470324491457,726.307820723057,-8.9149209848259,338.284115331925,47.7462629526902,880.889435057957,127.185713487473,849.232457551395,-24.1733127915861
771.57929314732,376.754863648072,538.70116859504,235.061073727179,409.550911681004,95.6888031006291,321.347593086317,1.77999749081248,244.549149090236,57.0665863034096,440.077534120424,19.5578841716434,362.449600991653,51.2962485556012,2016.98226256578,-190.851468496979,258.105874896637,8.89614061544528,585.574504401871,290.717847562377,847.968001939871,25.3879212589223,715.27710054638,-6.18639971208698,332.734661805726,47.0101965671514,873.550203336314,129.420721164017,842.438064936706,-21.9034156055276
790.900325985356,369.730506128794,550.64835177217,236.463855882274,411.689429756192,95.306167792913,323.677983815911,1.18496704646729,246.712447173032,56.6333716161665,444.190703535502,17.9613406511706,365.197048027723,50.9561863171064,2026.04724340035,-190.122035572091,258.775176723449,9.27805857925759,596.935252438597,288.22833726536,855.142679964827,22.6069256651579,724.539626831063,-9.94078923557279,325.337518229363,53.6189958626179,877.986617722452,128.886798602509,845.308500444769,-22.9946656917242
794.297797750301,369.694040434092,562.642467024416,229.173919348907,417.39550109768,94.9521920339261,328.050663992004,0.478752442298591,249.968666141885,56.8953122480875,452.540399122493,17.0568504313794,371.222737534746,50.6889568333612,2048.2896467168,-193.109304616631,262.786754797479,9.26704973467848,602.823082679982,291.443090196249,857.788149496687,24.2736546381483,723.09938759715,-7.17744743078006,342.006373721707,42.4227670057241,882.962591434866,128.54979936584,845.98220940323,-23.2115001740461
775.133162409916,374.732496696651,547.481252334359,231.212516632095,409.182308903609,96.9354861054203,324.434275471837,-1.0321779348639,245.813663347715,56.5764441350914,439.15330991493,22.0438649365221,364.602745825903,50.7328973570518,2026.59901034743,-191.350227919154,257.415482616583,10.0379636929846,595.72863245569,285.932091598934,852.256169826713,21.9224513522425,718.642662257043,-7.01965706477361,328.138043138394,49.7617198155658,883.022536755682,127.771003160244,842.061762491497,-22.0879418351935
782.940845500591,376.322416939245,554.681727792754,237.131384609266,413.253454909396,93.5189456075596,325.099302909996,0.553924108682649,247.474157308665,56.8125264615218,444.525331702142,17.750339008302,367.662288490734,50.6433345218656,2031.88172744708,-193.338704508639,259.971237408472,9.10783413287324,599.210060272984,288.437475540671,857.891707898504,22.8448597103649,723.292415516955,-7.18449482030157,325.776227483927,54.0771858427023,884.927950096262,126.683523975618,844.694533182139,-22.2828472226664
785.369260215057,380.081901437388,550.522291305877,239.148715859392,415.62222562875,95.3729309967793,324.94069719096,0.977575574555805,246.651582105373,56.5037512566622,442.436497047298,18.5126280532207,363.962451810065,51.2327357082706,2023.38087149344,-189.65142373725,257.412318543375,10.2336966307305,590.329863833958,284.677119616777,849.941929862405,22.9424985696891,712.075542231005,-5.5456819889624,320.816366017519,53.758394003524,877.715200653285,126.997459797929,839.472581618255,-22.0361554711833
784.821762313232,372.154505148485,549.55004104606,229.745692634668,411.235104391964,94.7159640566139,321.506283948507,1.70465498162923,246.669414863835,56.6165414682648,441.958462574047,18.6574310270772,362.74414050623,51.1810957157027,2014.0338583668,-184.913349239243,258.02080274487,8.87205927571652,588.523240623065,287.324764865558,853.256900594995,24.1892273860038,716.106559998077,-6.43776861963163,330.527030931326,46.841759420515,875.646248975768,129.707868768977,840.550087985265,-21.6331392202461
788.659006331637,365.704498410308,566.725496217407,223.698545366175,412.9760191561,94.5232251978767,323.106136038238,1.78117613917959,248.915518523106,57.0403331813267,448.016228924786,17.2722239688674,367.905027599416,51.0335387402499,2030.81820363926,-189.643662646446,260.237634693488,9.99213021051377,600.922038748383,287.034169492393,862.427453212455,25.3131434618264,724.719813347144,-7.49219342027025,328.32684726085,56.1293690374367,880.567694548702,127.606259610203,845.192214283289,-23.1076658768114
766.534040051458,376.34451444864,544.241437426515,233.942374209609,408.144053952968,94.4670090270142,320.698939945472,0.12565348758226,244.777221433265,56.0971471532095,436.598571639854,20.2692674126929,360.661257352723,51.2198349125181,2006.70298599569,-188.194042266982,252.873996795601,11.6370485054882,581.156094608414,286.799803309355,849.338046759686,23.637589246657,714.221594883877,-6.68725696723087,324.723980507136,50.41102512515,871.38320148594,128.915564315886,838.205521382574,-21.2926862133988
753.500636366457,384.89235261034,536.101368810212,237.651772888606,405.400516218283,95.1396891020137,318.547089251138,1.08699510077589,244.56779871005,56.8716979623172,435.050025129518,19.7935474223353,360.722982629759,51.1333957091563,1998.94135926093,-186.270151455277,254.147000546758,9.90985764491096,584.952709217537,285.540148333432,853.956456154085,22.2480610985442,715.291768930338,-6.9818771151665,325.584806277844,49.4031458924379,873.439122535044,126.486914122947,838.6961609628,-21.7485234545229
771.135247462338,381.94461868763,549.854499575578,234.122904407662,408.404803226811,94.4940333346675,320.73442120128,1.41894905926701,247.635377730286,57.1927561076819,442.844508089437,17.9436993465471,366.156075597173,50.3778571730805,2021.44545654164,-189.056248630846,257.871098968653,10.289608690102,590.939338204843,288.258359140854,862.156456459312,22.4435666743796,723.454825408701,-7.9104065236623,330.023438137353,50.7448566802195,875.436634517244,128.328682433873,842.029729734046,-21.8025604560008
785.666137756502,354.7465528466,541.316355734469,221.128505940644,402.624312562507,95.495911277961,318.037303258885,1.0382662268658,242.785355446947,56.5841575098016,430.887082374099,20.9159043654107,358.104551469358,51.0671049671829,1985.96362960726,-183.513017675914,252.575458229918,10.3211871192689,577.845867423644,282.59365855321,845.280336357536,26.5239176469746,712.627633480965,-6.1619117469475,316.309660357709,54.887368371903,870.063699437809,124.954558678773,835.401376829427,-21.1694672387042
762.287583095024,376.517455015826,541.432057962893,234.022870383819,401.405853469702,95.9730696837449,316.470551699947,1.48114835922726,244.608183484971,56.2113846620994,430.950062038997,20.0241105569156,358.769667451665,51.5969144785046,1989.32460459726,-181.965589120275,252.372156975573,10.9288588770135,581.925094830654,282.447738921429,853.102786231475,24.1884547720561,714.516117074491,-6.63920425071347,331.896428193802,44.9598485588567,864.426610488479,125.937519743947,835.528757623897,-20.6985332276793
770.298760452838,378.281043027464,557.399886762123,223.81553762468,405.64916205679,95.7786713363161,319.830890142437,2.27285475913228,247.450382734993,56.9094672954455,438.351170079878,20.4319423872947,363.748415049656,51.0819299484962,2006.10476218536,-184.532091652093,257.113059051243,9.47387532875473,588.429023930922,286.093917867706,863.934287833968,22.532185996469,721.97307692763,-6.99053801256057,318.092044442245,56.7730701561344,870.505015773077,126.158643775457,841.059029643382,-21.7223085081173
758.564008780974,375.110380378137,524.058662577012,223.464211650935,400.212996129056,95.4994697855295,314.527131390951,1.1762187265168,242.492899396978,56.7600826572729,429.650418927938,19.5671744477097,355.768569247053,51.2859844148542,1973.70373047308,-180.271971814087,250.887806961309,11.476017053673,571.371796164573,284.210535838234,850.814511214605,23.6088799260744,707.240204103849,-2.90462736967392,326.203552938649,46.7743467987555,863.944736654519,124.885130600981,832.558138630361,-20.3716838759856
757.599585422668,376.639295659068,543.730069390986,227.03821602034,400.678913965639,96.7053875627839,312.423509440754,3.31778468990368,243.821244492743,57.0005829486519,428.729914082713,21.3062124841846,358.327180965732,51.5211598628412,1977.11620660999,-178.977246872621,252.30245051965,10.9018573819291,580.132596063379,282.591454615008,852.361724641053,24.4041615541831,715.723960538628,-6.15326450252238,326.63569280111,46.0270613006946,858.1353070261,130.52086375042,835.070609061247,-21.0010877109127
763.491134848855,379.829076986866,522.077549410436,242.358790842295,406.490489470521,94.1412232741416,319.068726168744,1.77872841262494,247.352418546278,57.1542391315313,436.56812023928,20.4588953485333,362.227333663157,51.3776459401723,2001.58731853925,-183.683664605433,255.723933472951,9.98934004889485,589.060741276124,285.425780218777,859.364010927759,23.6273057641459,724.38957645331,-8.07571066461002,325.008009746139,54.4175378119951,873.28312203504,123.971103649182,842.796963425337,-22.9052204426207
779.440571264258,361.817382847641,547.39488941286,223.443752251871,400.627772426443,95.9068428733968,314.285285945992,2.2511605060901,243.942845631009,56.3859704869868,427.335031222934,22.4830633148294,355.138435252719,51.5876327439607,1970.28675041136,-180.337251792864,250.175088333943,11.2881226527297,571.524366498211,284.326515666202,846.026013078835,24.6203003060468,718.330712177149,-8.29727077194945,320.415471046669,47.9118427519405,865.466056409338,128.980047834436,835.978328507319,-20.4309380981794
753.754357928905,376.11330051568,526.879573857236,237.630981820786,400.362035585737,96.6197452106313,314.270637823175,3.12035496700995,244.735190883919,57.0433038489879,429.243940024478,21.2390551113642,357.054545592706,51.6890913376347,1984.18268077404,-185.704403818171,253.659220378924,10.8922549498503,582.185016346528,283.2275142338,850.196398024178,24.1447121283693,719.741820595452,-6.27654070909869,322.221042152499,51.7206719774753,868.701615750958,128.493581900821,840.633645715699,-22.1141275406737
781.343059952373,375.411819485295,543.773625729253,234.102897714192,406.038747773596,96.3420300160277,319.124369596099,1.5813957974461,247.827430268484,57.4560025245896,434.183111981121,22.7660164909767,361.823397789131,51.6534100607661,2002.17516160706,-184.671340301313,258.630984938237,10.031164678465,589.439398058051,287.274362219465,859.822602461614,24.0057868253726,729.043347694611,-9.02362319314844,328.238190098029,46.6057772301067,880.729889138589,127.983716962871,843.622909796886,-21.7068485110976
780.135367381083,372.953230222004,527.381539333932,240.08161520722,400.160221139028,97.1834809747596,315.306600988939,1.39866245072183,244.330737380255,57.1926680374061,428.153957837662,22.5538029986019,355.785362410892,51.7216290782511,1979.18663712275,-180.983606090703,256.077177726196,9.12111059845846,574.894208698051,284.93306301738,849.036871956891,23.5415524653677,720.500660534829,-6.59665067703665,324.905371069992,52.2716477784467,880.385306955577,127.906331934766,837.813371575757,-20.8005292301815
761.27533588321,378.32633258816,526.668160667923,245.863654240479,404.390004238367,94.69607376009,317.325632286299,2.17655033932947,246.213284743457,57.11834544988,430.490552737981,22.3425745081104,357.190892558103,52.2564673205206,1975.30071589478,-179.029381476583,255.902761409413,10.1001118170258,582.786765787227,285.555707597262,852.706267662012,27.4615522533744,727.227877879962,-9.61059682311199,321.672026969011,53.6941464961725,879.172697349197,127.136887193734,840.56067013449,-21.6951795543519
792.349732817623,373.486895996652,540.979465209299,244.059599634978,412.507317339714,94.9207696166828,318.229968370881,3.13905446264532,249.274886807625,57.5251578681645,442.919022474892,19.3375264006182,364.959524162656,51.2211993201341,2005.18801846955,-184.935084056249,259.552645650139,9.29305788946547,589.349114535345,287.628491707706,867.367319594284,23.3758582808965,731.32182133998,-9.5315040816478,334.653137179544,48.6735722951509,881.175463512668,131.225647211244,843.404871917991,-21.5864958324148
781.85889908842,371.714829024358,531.313576102817,229.805550219648,407.850661025049,94.8667010594119,317.556933174569,1.09640286280149,245.735379593675,56.7290816475364,432.367645418522,20.8106725112804,356.64184864579,52.146555889016,1978.3778729147,-182.124823450838,255.242133414684,9.82601382277655,576.088058392811,284.212779039964,855.605505473344,25.5433700892893,723.692552105818,-8.42376471025185,332.138691895425,50.0273026636877,875.82116991308,128.997881342501,837.238118055462,-20.1078183351277
773.93838405078,379.746055190118,540.284052321969,236.217070954622,407.284275168747,96.2695328175739,319.301610714114,1.13518083927228,247.747860153998,56.9187127657582,434.088692535639,22.6088292618364,361.038479728888,51.6970345675848,1993.79447629046,-183.890318371911,257.091890819841,9.60924926678332,580.798145651372,288.234550446085,863.07313961566,24.939975263059,724.13910920422,-6.70138779011183,356.115993723104,33.363797006942,876.00889654341,130.674573517061,840.57361204466,-21.4696623447788
781.772125215613,387.274102312443,557.851134448656,232.733331962489,416.295919834217,95.5815293824978,324.400086444251,0.303215639806332,251.546691222024,57.1308996904606,443.686435898569,20.0187735443232,366.919975230755,51.6910943229159,2023.7729551206,-190.846330973338,263.362455882785,8.9247208502534,596.110012545049,288.256820228667,873.788961914476,22.8439160893703,732.574639786452,-8.66626164550241,335.470077916372,45.88604053351,882.698348624069,127.884768435579,842.727947563421,-21.9784569575926
786.892081476428,369.02427845767,545.495434607851,227.339173975337,410.190769929541,96.2549971650888,315.947271424865,2.87387944846625,246.346877274169,56.8910341594593,434.087964125998,22.8111324422297,358.200876291239,51.7112956810025,1991.0655291002,-184.160052814244,255.673952112699,8.99505173793276,581.35147123511,285.279461680453,862.277566371449,24.3575478642811,721.265288497486,-8.58687563826479,320.526631143235,51.9695002446466,879.44897194812,128.722878326496,838.603002906605,-21.489404766684
770.900101549608,384.685907050317,543.823993352891,233.60763807335,412.242798005786,94.3291223541013,320.912478814316,0.181788146416543,248.217896085581,56.8360573122941,435.871357581949,22.4630870404709,361.631541328631,51.3879179881578,2005.35697936862,-190.817110728218,259.88458439603,8.76636838120334,587.173283370648,286.338622628597,866.234793347895,24.258273364791,726.645878163122,-7.87356371384506,321.165985906645,56.3101143534897,881.007232049566,130.123611504164,842.337469058239,-21.9685020216468
798.656853468684,376.823509328049,563.512090217288,240.642229731386,417.337502323689,96.2207488808532,324.195686897206,-0.255068299203129,251.405572314609,57.444877312849,445.059740529267,21.2266576001403,367.607434347549,51.157012994224,2033.39472185003,-192.13902784449,263.502666969003,8.26047060143104,600.546035101236,286.139480738582,876.935518409438,21.3457098806967,735.271918790084,-12.0540430115794,335.918729137077,46.8764005623075,887.514556374944,128.214835786844,843.985471095196,-22.2001797002208
773.395037807592,387.906595476871,547.229094306069,231.666917297613,411.678226550981,95.5650530143013,320.115927880247,1.66663077249236,246.85622485936,56.9996817961397,434.365452031917,22.1454186948417,359.819351830911,51.2091326016993,1997.91344450144,-183.998076307942,257.632807372888,9.86403100421569,580.512005712559,287.051794726747,860.388237845109,25.0737004906206,719.826076441962,-6.20382663473596,329.357461051672,45.8998402770755,883.739936712143,126.825065670197,839.126733377421,-21.1610915411685
780.886771487579,379.766743165216,545.333698275211,235.180885170117,415.229460854634,94.6050375598098,321.606554826135,0.846379712841206,248.658784229613,56.7257802391801,435.767482037141,23.2916061838084,362.669007552195,51.554354994897,2010.98728621775,-185.300117626218,258.436491841412,10.6835198589604,591.203458802399,287.052812851855,867.774421691707,23.8115531857968,723.714663919161,-6.76833949239225,332.897758957089,49.0517494706908,886.066660534189,128.612600292495,842.119752427459,-21.1913204899033
794.785820420419,375.888494978284,548.416919302146,246.309095675881,423.06378973635,94.6026785160737,326.392171686318,1.15733475404775,251.96845067121,57.230349572922,449.531240660083,18.5203021736029,368.585693204174,51.2435800767168,2040.30695080738,-193.082556610491,262.714673514202,9.29364606836307,604.735569759744,288.276903250841,876.942751623955,22.506386763764,733.100904725337,-8.76146762094157,339.897201344093,53.4655587052688,893.638381302693,129.221311087411,848.539168024119,-23.131655543114
782.511406511342,381.058081893496,546.240269144989,230.937701520813,414.690506679527,95.5044396403017,321.300155021576,2.17919673324341,247.992520399864,56.6495877261083,440.094351461458,20.9774615310829,360.103357824216,51.8542836359871,2008.89826607658,-189.113714076794,257.228535117385,9.74739262729846,588.422368419283,287.092699961553,863.72653545947,24.0650497855297,719.558228815924,-5.61709357008562,322.528079017501,56.4002348389083,888.877356618757,129.287559661789,842.922372179824,-22.0720445949629
781.855845076291,386.104636406484,538.676478855588,241.942067135403,418.001318055039,95.5017610719096,324.145734666426,1.92268600884322,248.841272155905,57.0153378554734,445.278834380597,18.1204852695539,364.076018763327,51.1987705747943,2021.14668601104,-187.600684189426,260.670316443012,9.02368756216775,593.707828763513,290.461792915109,869.314630911526,23.9744578320845,725.939570697828,-9.33748447024956,344.07970565246,43.9155361492234,895.150382523909,128.060790430225,846.186357682705,-22.937720588849
816.033071229857,368.390032893125,572.579927710945,227.234805998009,423.369200825046,95.5984480997217,330.470419245346,0.52077114528771,251.618435297287,57.8443245475755,449.309502932849,19.8194435430466,370.184650931072,50.9911374014099,2055.37056098687,-199.367788909388,265.253952562085,9.01346402514623,607.970545785445,289.814578091604,879.579009862374,21.4266640230977,732.277967706504,-7.16594070853456,341.728848714045,45.993940043964,904.225803956314,127.99271017353,849.957234936049,-23.2771385126301
779.927449668994,385.055029864287,552.628522353948,233.796969736264,421.364010757707,93.8497893677514,327.145691854672,-0.0479737153482413,248.484796949952,56.8176789816498,442.120114566358,20.1158487190849,363.265945656469,51.556678087001,2030.61282441599,-192.084286578496,261.414337942757,8.29942382329679,592.320148236268,289.587858753408,866.64482275719,22.6518628467212,721.019733570246,-5.7797138103939,340.108733120449,49.5946178481156,894.246248010994,129.932557863744,841.981981651471,-21.2698104435937
799.514896232393,377.615472715978,543.129312329402,241.757947012602,419.341812769111,96.4121790481806,325.54435517997,1.5363380959995,250.217419299763,56.8636069488083,444.710845550021,20.3316939114795,366.208887262512,51.8369583313647,2044.25294971112,-194.383325136051,261.989336300737,9.63709251407412,601.252203518407,289.096315913243,875.736021766883,22.0135487924725,727.012877259645,-8.30297334402768,341.279843785012,43.9403040884291,896.393640402405,127.899973747118,844.304328294347,-21.6037651116864
807.175785290782,379.958196220479,567.252381887692,239.426681823862,429.111409312842,95.4236311749825,335.096771395176,-1.67258828906195,254.249871405403,57.0443863226561,457.429173217241,17.4314985809874,374.937645902566,50.6531103224767,2072.60522726977,-199.858399240751,267.801418303351,8.66811984192328,613.341142563707,290.880654328708,881.729054654824,23.0846841939544,733.999658564954,-9.31055917709005,341.303331317515,48.434338459399,902.059449152907,129.246457944832,847.250261299203,-22.8784081132494
813.184845492929,369.07173965296,546.117890123987,240.343244537702,422.437031495623,95.5396392468817,327.256867422272,1.96831411377246,249.602968456597,56.7686756440873,445.767358955,19.8860788028653,366.09365585193,51.4177192789672,2045.53173233486,-193.023901534161,262.092886322413,9.54231275503205,596.50582411882,290.006189291382,872.115920502882,25.282571100519,724.075838063853,-7.94676328778426,332.812183035314,44.5613009964888,892.541436623904,126.949694612938,841.729148030957,-22.1217157892294
796.668605999071,380.461386141351,554.330759948923,238.110013065177,425.153700102863,94.3756863876097,328.542845730088,0.543006864269988,251.362699508044,57.0058559859993,449.684217999298,20.3405950615576,369.746069039452,51.5098609645196,2057.86406917816,-197.012739837746,265.213333756982,8.84545246556304,607.976465836663,289.380652570896,879.416091631414,23.1065685296853,726.054244916841,-8.56703295928668,340.349105351711,52.8564366270061,895.43772235175,125.996319531516,845.448302852833,-21.8801236094267
820.406853100873,374.134854154427,576.735909661819,231.367602104646,430.878132246596,96.2725542517848,334.144692027123,-0.86723115995716,255.862431409162,56.757264408448,459.577754490124,18.4569300131426,377.728828463081,50.414407428181,2092.2587272407,-205.407603159959,269.044270246736,7.22392278053609,619.029773224957,290.149906620941,882.981385853779,23.1061548250537,727.893324428443,-8.11044572907813,338.749116374284,50.5007853313696,895.779508859997,128.364190256385,846.066039768741,-22.5164120831448
792.078928130051,379.438916080357,551.570356396786,237.091829771076,422.577560723553,96.2335221622397,328.60517108087,0.175622780382946,250.519208366806,56.5578798480134,452.161303275668,16.9602268138084,368.095796465629,50.8420254266297,2056.23743983605,-197.441216725882,262.75651225921,9.64934634801011,603.750824235558,287.034862602737,876.975687969328,21.446331888319,718.347099808495,-5.32132302298474,331.152596175063,50.0180865482587,893.66508503001,126.063242562562,844.015112771929,-23.3984013151123
798.672487968728,382.286428262076,571.962583015579,226.815617869826,427.694451374174,94.1507958702515,330.338558243086,-0.560994885903025,252.018327126035,57.1552343529139,454.748822075611,18.2710287069588,371.787220406346,50.5439598945005,2068.69304376913,-198.37445353947,265.775052442294,8.65629597082376,605.789016970153,292.614520296253,884.077523266356,21.5571170570723,725.545021242461,-7.89950380876387,338.926537628418,53.1938552204124,891.933218045826,127.00763125981,846.623564118543,-22.5633835176065
814.843678184596,379.658148065334,580.949972048582,234.840458354821,433.495262809495,95.4666967534287,337.077911924425,-0.633952273791958,255.820899348484,56.5647386956515,465.552296999055,17.153702607017,377.858735353638,50.4916259735988,2096.29175502056,-203.893768370256,268.49612834675,9.01019942914935,619.312631916145,290.673998926249,881.002466950167,21.7407553374666,726.597477132061,-7.0654297354735,341.799074924565,49.971083811617,891.540626737496,130.701788253163,845.561164837997,-22.6665646913617
801.745762970115,376.66522791756,551.63645388423,234.386561870332,422.965002262224,95.7873211633488,328.472281326714,2.15519443293847,250.340967292825,56.9014313599419,452.960226471294,19.0233099445933,369.44322229475,51.1875692899673,2062.31822313012,-196.681351021767,264.894743875491,8.54791262379972,605.382757055154,286.765272672003,872.843272730045,23.6894468482465,721.796945277798,-7.25192492261457,330.008727453632,57.6626326039863,888.403147911092,128.357636012103,843.595573196,-22.7758962825495
823.402107265217,375.007225808708,562.170189195877,231.746600716422,431.608189373122,92.1919372768581,332.446479716659,-0.208518366596821,252.066889266962,57.0142785581935,455.917782919301,19.7535016544257,372.664411466831,51.1081675287657,2078.43311202806,-202.060564312241,267.140155045479,8.09330678060787,612.071371094265,290.557078954904,880.865572169777,24.6468655315989,728.578246844316,-9.85837499981827,341.378101767473,47.121078540962,891.000811336135,127.179333182016,846.956608306462,-22.6912353514007
812.53222964464,379.565260661568,579.698118643871,233.749648228605,435.757407235655,94.0855602661763,338.531234827571,-1.28940458519629,256.259240723725,57.1059932528732,466.353569091705,16.6944263967445,380.489565265593,50.3864569764798,2106.26426868525,-207.09001836333,272.670066596733,7.51001996638506,621.181647464158,291.23907908337,881.867665496638,21.9180910150164,724.420116178862,-5.57418146944374,333.828471942532,51.0096438546985,900.268593538748,123.757626918649,847.317475947536,-22.8435339693998
805.346563909928,376.603793070598,561.089113152563,233.976854126276,427.357014891217,95.0506389400912,332.324531058128,-1.03543869506558,251.147583693165,56.8978019375244,455.619882776805,18.0119744944589,371.310844276523,50.5944885110806,2070.34434263161,-198.298184953312,262.938857706457,9.34034396642206,606.346019152529,288.879465081211,876.104150563779,21.5890451458091,719.592291897643,-5.90887745024809,335.399956406001,50.1463964004582,889.712261720963,129.8710280285,845.490870562827,-22.8487285740872
802.706165334973,376.104170268598,566.918074205141,235.430933640427,432.396576387295,93.4221869699665,332.704675112442,-0.357967696247959,252.793251424004,57.2910624398751,461.88892859354,16.3160103530207,374.986462253027,50.6158538691897,2089.91163433416,-202.217117543666,267.725920664941,8.50981676194095,616.133654718177,292.342783141303,883.099362638274,23.8794539424914,727.80316084942,-7.48146136748392,343.546235941058,45.328831080466,895.941122215688,129.648788003306,850.740624380195,-23.3170715649985
820.405896308085,371.913969933488,576.729542667893,239.022659472179,439.408285960432,93.5341434239061,338.91693783389,-0.985756273479826,256.434251669014,57.4634154242413,471.442458332794,15.7191165299281,381.372855555318,49.8717491998148,2116.0418203243,-208.213774087146,273.57324434588,7.28095411163751,627.36272703148,288.351923583988,880.069160881445,21.3841844114317,729.625199964847,-8.55435153559124,345.721780436754,42.6917428254408,899.98026761157,126.773209782644,850.955405254058,-23.4071738211419
800.967090035757,382.205399528696,576.385934025108,225.461795810736,429.497414304918,94.1420286575651,333.844292255062,-0.589907108088545,252.463365784948,57.2312174605003,459.94153791288,16.4039622338023,373.687039675771,50.3583284755833,2080.90078777325,-198.351500462427,266.433696108289,8.82625743645787,614.139632738789,289.340538605256,875.974723193085,24.096403208396,726.042650547996,-9.2799399366468,337.467340099781,50.1618977668819,897.520273216459,127.835807796625,847.115188204172,-22.3613693870636
811.120621627391,381.706189616003,566.085197695681,240.000110392705,433.865899223091,93.2978456497187,336.357799965285,-0.210650562639566,254.114360360527,56.8901390055417,463.745968226448,17.4626660760062,377.719204688671,50.2019895575851,2096.80283180972,-202.084657394929,269.211183791131,8.69431165562449,623.043751371447,291.695813442187,886.318842866905,23.5197930172933,731.68869125211,-6.62675520054986,347.291631894798,45.0910730652099,904.899968209463,128.186754360272,852.815969802082,-24.1340918014374
820.819176264709,383.04184097534,580.369949109073,235.449178760995,437.226069788479,95.1369715561459,340.521263356062,-1.06449059654291,254.141670936686,56.9808851998513,464.211196178576,16.4987640148097,375.631582465445,50.4422959852921,2100.67048097488,-205.151026634959,270.009686901734,7.19061423735999,611.445685161464,290.327100471178,877.017185374965,20.6825048260963,724.362244186991,-8.12277709064926,335.952470745273,47.1782818822001,899.023604545705,126.212658197404,846.894507091836,-22.5668542783708
809.568385189069,381.278893599307,570.324746400099,234.528658838214,432.656560202434,94.8632263987388,336.480686100026,-1.56365485790737,252.700083477068,56.9384977668443,462.234687307119,17.2050946045659,374.685203957997,50.2281431575298,2086.38820303209,-201.067899421605,268.262528729524,7.69087717349508,609.949960843342,292.028357805624,878.3212132645,22.8416875182286,729.201157993952,-8.04105287594638,339.168449078355,50.7004781825597,894.861878452792,128.548349693595,847.437303098258,-22.1348694082673
812.915903226197,379.971319619308,589.498014020634,220.432482081623,437.77844481041,92.64208338549,338.1007620094,-1.11752810358912,255.275689552451,57.1763622212081,468.796601277219,15.4247788529592,380.058448025137,50.3385374759025,2110.85427149567,-206.715797127687,271.029309726256,8.12300714236782,624.977635094716,292.778123785017,893.857976192546,22.7212428486188,735.067331398423,-7.8631325724948,345.006723543205,48.8683223805747,904.909093695546,126.878318529534,853.625744566712,-23.8423445814328
816.980910243294,380.255961020708,559.644531273767,244.11365079075,434.703733430121,92.2557422716051,337.570444647075,-0.240657124775016,252.676958545742,56.2447832010461,462.46290591486,15.9919569202967,372.640532168603,50.4338472374122,2085.46574483144,-200.950945912663,265.639078980849,9.53050534695509,607.901801072939,290.449468802432,878.558406193933,23.2225843679248,726.685360845485,-8.08084909601051,333.674348852858,50.6667687894435,894.021461018978,129.630434044064,847.324152368094,-22.6622199010652
821.66275746033,373.911255332486,558.906324123919,246.345557257721,432.978539387831,93.1241738016365,335.614232018819,-1.05660984637732,252.783542262326,57.1974554612515,461.6881241212,17.5499335654206,374.242628600158,50.6228678622982,2086.13394513297,-203.73941798638,267.236876705695,7.56121376624652,611.618020313645,290.280776051447,888.476822103223,18.971541421463,727.539870589885,-8.38638588487303,334.326599291924,51.7587257258505,894.061234618803,128.863511825579,846.506328504219,-21.8181319340481
823.191371540551,373.958934982931,571.521882606978,242.014575156646,437.403790086468,93.3704858411213,338.256105599265,-1.92086016120765,256.541660192361,57.1750062661573,468.977605847624,17.064874765151,380.330031316134,50.671465749396,2106.54639361744,-206.449041260255,271.483893457684,7.4177746575982,627.389611990989,290.251978434585,899.195595951706,20.544433645079,734.405228948087,-6.94410126145017,337.416226591177,53.4187445558379,901.386164740768,127.395899033307,852.933335776106,-23.0838313244797
814.914128752846,369.851633393585,561.98940839314,231.09484183713,430.077107384169,93.1584501859128,332.152889454763,0.427422250261883,251.262786763114,57.0461627246582,458.767543536384,17.3260999585763,372.166805470793,50.3385372032391,2076.1330909934,-199.684598686435,265.465664056278,8.68125947199618,607.998932520387,289.089210032571,883.241734132815,20.2125110218112,723.674822382162,-7.64941855336144,329.436013168361,52.3912152663819,891.661519971252,128.491651371009,846.490792709239,-22.9243928949276
816.575922776363,369.781598347887,555.146089700883,239.53409186035,430.321502683622,93.2865011647545,334.100501277757,-0.862141769663818,251.641640615235,57.9306527769365,458.004213643588,17.8762458531257,372.837890174733,50.6335251836573,2078.34610274553,-201.439064918609,264.818601681952,9.54242350627483,614.83198938636,287.136709469082,883.752339672355,24.4850239144307,727.258558640683,-7.35746128049307,332.249369363985,54.680532266404,892.765936040705,125.636301935287,846.827773758272,-22.5081254790532
812.66547854181,371.548451856186,575.938900557413,237.346374412058,433.717946947919,93.5454956137201,336.794342944975,-1.48081362976907,256.02159711035,57.5107846900926,469.085079289804,14.7857253670967,379.286263743412,50.0516249671799,2107.41786434719,-207.2744628785,271.969824725457,6.35792225231254,621.903737116718,290.847043112315,896.223495777456,21.4095055550096,733.32549304481,-6.14896463647593,341.946735258386,46.9996242676653,894.870375186887,129.352457684478,849.983662655875,-22.5510493298107
806.123539125943,368.611833312463,553.13633007006,240.416955136434,425.882556482925,94.1285632993707,331.373086602018,0.32188313719758,249.850117988358,57.5380840216125,456.728817930705,17.0484765256348,371.11729424916,50.3731749973046,2063.06373978687,-196.403238451374,263.58052149221,8.94836367492622,606.520769998754,287.77396798881,877.58072421663,24.5300597275619,723.236740784759,-5.89128013854637,331.858718833984,54.4432569065514,886.668391467167,127.171240794249,843.555075460244,-22.0174764594906
787.38466329203,387.652864800039,558.163429609717,237.284186241922,428.674693237934,94.1770653292319,332.845464459556,-1.85923293420369,252.177298341877,56.7373283518424,458.452285313118,16.5903818044892,372.424457952807,50.3676306598816,2072.60277096524,-200.851018869264,265.251207834132,8.51288187741746,609.275981037673,288.072089689598,882.706991622127,22.7292445628695,722.978508857385,-3.65678827117088,334.732568194827,55.8647359747824,881.152524143725,131.43732775718,843.034900160519,-21.0596141082005
805.107658370387,382.527408998685,580.221855536679,228.684204586409,434.043776378226,92.1292034828547,335.491954935875,-0.508876424077899,254.86361816625,58.0105546027998,465.512887255435,15.9811405006569,378.694586030357,50.1606611491946,2094.19546534615,-203.44150514575,270.360121323255,7.68809171559692,618.972658342332,288.779834968247,893.342056347603,23.5784180686533,733.011865118793,-6.79954744885734,328.23450845558,56.7527015958169,892.607423443562,129.05040322188,849.077688088916,-22.1175128631094
786.371101560314,381.040254910442,562.314976670731,226.090208492852,424.120883566107,93.7650931258386,327.833405018425,1.54361449671914,250.228839500575,57.1625289166533,453.337492258596,17.8425657160115,369.014014526938,51.0457717833542,2055.70120225799,-194.2717575471,263.772772162867,8.66634696681647,602.69096690511,287.33388163875,878.824617416467,23.0334756885391,722.874945435441,-6.26039880388879,332.933558024355,52.6001749186679,885.005450633946,128.282433820675,841.668123183928,-20.7399667050262
791.839524766563,374.106426657646,550.057255664978,241.246224414269,424.90486716794,93.8453287129095,331.650354042037,-0.876261620947369,251.207090984382,57.789248178272,458.201844318846,16.7362367013469,371.680117664088,50.2635493170354,2066.77197146256,-199.34771924772,262.628426381546,9.62511128213539,604.852358912647,291.946763558083,881.572247480551,22.7866449389293,724.580395650408,-5.69550693981397,338.358442980938,52.2899701903602,885.207427419567,127.842297325835,845.453070951212,-21.3631536451043
808.953691746123,376.034643063151,559.316335784515,247.611905021165,431.171467229512,94.5809771266066,335.641552564867,-1.38382389105026,254.375468011238,58.1014763923342,467.807528866593,13.9452348268729,377.801621638013,50.1614635975587,2093.21697251707,-205.161026292215,269.720826575004,7.73394935808791,619.580606130868,292.168609856128,888.675961471499,21.3438335977705,731.638168019936,-5.24643976491251,340.255504290687,48.7163128695066,892.080961749011,129.898968010313,851.140105723087,-22.1604394552036
794.646339768167,371.903042190256,544.522148523134,244.278403906718,422.323270543185,94.3025129752742,331.378117966974,-0.211950247843264,250.360706971802,57.5923012285662,457.505603564987,16.2250604916859,368.724951587478,51.3918492489508,2060.46454699744,-197.427255269532,265.178114220354,7.45880542739121,602.457120811133,290.417028402647,869.516470172848,23.0872232718836,720.100261208231,-2.50354273502934,337.385189392076,46.1188998475659,888.409103095863,129.381906319362,846.38989619294,-21.7363203940013
796.92633232946,374.538678932321,563.477566821963,230.399726728242,425.403353921554,93.3872441161775,331.059288436128,-0.742774684951659,252.244747908722,57.4831044478133,460.11154315305,15.3119522002827,372.241458973519,49.9983569014954,2066.31894352085,-196.816561798807,263.901759919117,9.82348493146402,611.856790375841,288.266727453033,873.97930316882,22.9454390233039,728.471252851781,-6.84606584472222,327.855080878339,53.4049534881973,893.035722180811,127.15940148568,847.051315414381,-20.5685625690256
795.909403573823,389.28779904164,575.885288857179,230.619214092934,432.497333139463,92.7644984932732,331.963425408157,0.734006887808883,255.507052391847,57.8792180999031,467.198849349508,15.6039001733119,377.148322483595,50.2575556303415,2089.5153693757,-202.821306901826,269.117796042652,7.96249224461172,618.807621320329,291.580385212262,877.564957165987,21.906457741235,731.048909516465,-6.49250582975528,334.524532528547,51.849648049385,890.918265207239,130.607961500649,848.241682482697,-21.042861114016
790.34696745747,376.007822707406,548.489497085126,239.221295389754,422.659808844601,94.1120833053624,328.881966154462,0.802791704660702,251.353950514143,57.6984951673776,456.78078419269,16.6861390822226,370.221620089849,50.8861633586165,2064.31717274232,-201.011259873073,265.195768011218,7.73767064260724,604.437982566458,289.203162062889,871.440045753073,23.2666046412098,724.019476685618,-5.02874754368154,341.73773092052,46.7896134585781,887.858865646029,127.429983124215,845.84724802681,-21.6795144139658
792.613840068987,380.689018452193,572.079990783806,232.746280399791,424.734297006878,95.293644012694,330.9575544207,0.363682304407252,253.13550545082,57.7376316347558,458.11630075591,18.3561380437769,374.481855618933,50.2144371867793,2070.97003014585,-200.155083732798,267.03091650216,8.23893696789768,610.553499632101,290.217515417754,883.72067657833,21.8183443625583,730.609344562211,-7.31300038705156,325.979348777546,54.3933365476765,889.548213478402,129.675417027039,849.627470757545,-21.5387161605027
817.741396051786,378.778413520559,570.529348142657,235.355656240714,429.002459522462,96.2264513762017,335.225722187737,0.432146304080801,254.85847463856,57.8992596772416,463.292982165081,16.9539368701558,374.139978669229,50.3115661584438,2075.60246914694,-200.106028043864,267.611167445221,8.59027647081071,603.34908511778,288.82384229447,868.760186073929,25.1925905714686,726.190615036073,-7.20873157081204,339.886969127166,41.9079291719119,883.839292562111,128.970664968043,843.942535634878,-20.7059298111075
799.372487891292,376.884040894672,558.857569946354,238.74681373919,424.649360056391,94.2541451004459,327.042249917659,1.61055899716397,252.312084767427,57.2963919185448,455.483582573537,18.1027165368594,370.362427086703,50.7071511162155,2056.73502923234,-199.521831728958,263.260573385699,9.86460977567182,602.95292454032,287.545593856486,874.61036677999,22.3219751844805,723.1496480479,-5.15277029460086,339.923577699325,44.7763824270783,881.932613487546,129.191824224213,845.335039778121,-21.2485353860032
798.816662120916,375.334058288095,558.943830056104,244.412939272139,428.023907160051,93.5825217229432,333.175264029135,-1.99467398905736,254.457648266941,57.656389395655,464.304100059579,15.7526367405374,374.923557919496,50.2930943042558,2064.88989148258,-194.701032520985,265.742210850304,9.50101280412956,611.915170094864,289.177166335048,879.476368044629,23.7176949749238,731.575147788371,-6.39307426042083,327.966536002017,53.1073103576401,886.351235919796,127.873620786417,847.570984667912,-19.96181451163
824.955812868843,363.449378368861,578.214086697485,235.070304525002,427.040832508531,93.8805491679068,330.974019554072,-0.937637592173402,250.196620585263,57.4380102853091,456.208702359649,17.2653086441623,369.1738746418,50.4830190809512,2046.49861172113,-193.748735172945,264.124520915141,9.21806946303465,596.644296489908,286.408236319335,870.780100608776,22.8802264334594,719.450746325621,-5.09506984409258,322.872583914618,54.2666874501624,882.40890510308,129.075190460099,843.952781531737,-20.5443414882129
795.743134309807,375.592094842933,549.475540914305,238.08277532502,421.527756479442,94.7013717508209,325.709949682812,1.91873853849759,250.608005710425,57.5248830234648,455.44995305701,16.0162465065708,368.593347759938,50.7911922450403,2042.63952046737,-193.442374947752,260.430317819954,9.23804146128334,599.304143447316,286.455162779837,870.542726101366,25.0275989086041,726.518197983881,-7.54493920834039,328.296249675432,54.1446795158659,877.271150567657,129.291288287614,844.899787294012,-20.4958257673845
806.596486459633,377.929732466688,564.391831694588,238.092958835782,423.05681929465,95.1710050110384,329.953232482154,0.0562573651443743,253.840191298967,57.4546743812047,460.180457887251,17.4639903871991,373.043902211558,51.2718192789507,2060.546962229,-196.288029170153,266.467473082185,7.92022931379112,607.571067390746,290.015911649968,882.796476879152,23.6326944267917,728.385444995831,-5.8033795937421,336.218785978448,48.5271096682019,884.838484178492,128.264940271538,849.242876239278,-20.9046927162704
784.205742616351,380.321161046506,562.892604332981,230.821188401233,420.243825221009,94.9688737137102,326.666841542266,0.00039176980651018,248.934984557102,56.9249368530186,453.109176437777,16.8898824563833,366.048570398294,51.3322881121675,2030.15537383589,-191.35039724312,260.579157000986,8.89259529284264,596.696936731771,286.308949216919,865.80705265884,24.4520519749348,718.067593038466,-5.41865886158279,337.019235279696,45.6375412665451,876.709994308805,127.003170834848,843.673326826641,-20.5573891088968
784.520017441373,385.718350359614,563.510490449768,231.662191852566,418.007192635943,95.2013084121463,326.386502782781,-0.0388845445361706,249.387776405034,57.9805692642004,451.90745227201,17.6166552026564,367.652672421792,50.4228793524492,2030.26376855546,-190.835089879655,260.502517290629,9.21412475178037,602.483994558723,282.444025246023,869.793649422071,24.1882928975618,721.989341420117,-5.91482522964898,345.046652487732,40.8931395649815,875.203839125065,128.622604915095,846.442257374146,-21.2813880224479
804.83174751112,377.654229470447,563.55799741925,231.652523652658,425.807545636124,94.4416435282129,331.857130040243,-1.38827554242545,253.019044497389,58.0773470454154,459.647951300382,17.6412409095314,373.950748060812,51.0432981810575,2058.05180188842,-196.220738026193,266.786379143508,7.93695638614782,604.394226526818,290.461792642446,881.899810743776,22.9410622474832,732.977438261908,-9.18772204999582,343.144543552248,40.341437041139,883.019394453879,127.831341637417,851.072909857481,-21.8809450966713
788.505452200052,376.270033477961,559.293688807404,225.773810689438,420.228525038934,93.6518057723926,322.211877591967,2.0121149798379,248.572709200932,57.1967699854828,452.672326494674,15.5723003635962,365.533966184639,50.9298775716915,2023.0462141414,-190.66848600292,258.572929662721,9.36693880346825,592.175338060925,285.545014829661,864.757202168868,25.9603907506882,716.997450612281,-5.19276830554641,329.157759949221,51.3243717079817,874.575160546286,129.124184412297,844.388454495782,-21.0103970620549
784.441832617931,379.809063412745,556.400422774744,234.923976276261,421.092901057791,93.6278058449221,324.058146796491,1.69091938752102,249.921242872323,57.3832698373051,450.854735590679,18.5805031710644,367.030993691993,50.9302219455561,2032.49910241972,-190.6241509353,259.814584658843,9.77302790531432,597.619085219523,287.499654437465,868.562719140874,24.9913961003216,721.074226730819,-5.2476587019819,325.284560940588,50.0039694484912,875.411349076725,130.448273645015,846.752022961964,-20.9165869195186
819.352371586864,367.869255972611,566.714743649871,231.912009935518,424.788288660683,95.0798366952444,329.522208982548,0.814672235344995,253.322665633393,57.9577803305191,459.954547963999,17.5309209123968,374.040800713969,50.3677721721823,2054.32973686455,-195.746155121703,265.45832475529,9.22473506292975,610.841012703759,290.259520576685,876.168124715567,24.1268559332647,731.101239691776,-6.52242085005919,334.22313369054,54.0447045495933,883.746025412028,131.44271713015,854.081657162615,-20.6417944103941
778.786392913209,380.163369800436,545.122692893781,238.377192004177,419.58581808079,92.9666760197006,323.769809449828,1.30998502109628,248.351887610089,57.5519835833717,452.848225539688,16.5151921870941,365.036356660336,51.0622709178974,2023.03621046509,-188.363718242161,258.140337604599,10.5730469909017,597.381310591387,286.214669305043,859.386378494245,25.4885587918839,718.245515067653,-3.73597303364583,339.181036370542,40.3658120522703,876.838962399915,130.309025649222,846.833153471723,-19.7929408578901
798.907257159622,367.126840887832,560.394405935033,238.548255452137,419.298170428266,95.537073758492,327.582793829776,-0.629310858916635,249.186780943823,57.5770653435204,453.089645139676,17.3471317906292,366.939656156224,50.6614341905228,2028.52673097824,-187.920631231466,261.739528410171,8.89865646462303,602.984391171878,285.178309015106,862.744875648207,25.088018049917,719.492604340602,-2.77233610768867,333.129933206413,49.2599015770156,886.310003647689,130.355665010392,850.62276094493,-20.6160132805285
798.09110246935,379.042555035844,588.782352811354,225.902830670551,425.607207529294,95.126819510004,329.421318168155,0.395044757357826,253.673651961656,57.6071611107938,460.638055224137,17.981871964576,374.195688910028,49.9638971566252,2057.62697200404,-194.771430118977,265.193924280973,10.4188727086989,620.148897379323,285.40379455145,870.476613279285,24.4042259386788,728.980867246828,-4.85876343803116,333.116659365454,52.0187715073474,889.108302470535,130.440234230769,853.484169432122,-21.0891047235718
792.388340764248,377.220052342987,560.832231988664,234.755900351322,418.498698831844,93.6755777269526,323.863370546079,1.41274112165643,248.675895460753,57.641738918913,453.694298648107,15.5376818341949,365.733104131942,51.6497053832522,2027.60342709572,-190.119322843999,259.614182893416,9.68421225036107,597.342733034884,288.996787231061,859.125382794858,25.6426014374686,723.505732327532,-6.29490914048761,346.646935889521,41.2180458764213,884.508350512026,129.26580365574,847.414226913892,-20.7368258184503
816.036296316847,362.566162138404,553.971906530147,234.946986074506,421.115393762532,94.394600660947,324.758556251381,1.36204811204674,250.594760322677,57.4371742993477,451.691689394729,19.0281284788773,369.237144404263,51.1831477803945,2038.19195322317,-191.071709352969,262.974252046176,8.41505902486413,603.808612187767,290.499047732416,868.179608555868,24.8177248594917,729.111624603211,-9.22821375229919,332.534168221459,49.5350838794608,891.382956064338,125.146833440737,848.941093867246,-20.5895484155896
811.243667658136,371.779970583942,562.80389625182,242.746553912267,427.138422549279,96.21691231885,332.95861583804,-0.513562636495011,253.019954146093,57.2921304623836,457.070261463708,18.4779338366766,371.019530609824,50.9471720653506,2046.65122971088,-190.0950391696,264.398071126902,8.7059837248275,601.770628885924,287.193692573489,859.731492454992,24.2814574910668,720.807219718081,-5.51390770734458,330.186974728881,50.6118762123203,882.06555208048,129.806946999475,846.112872957591,-19.7322259601007
800.755262796737,369.823083752273,559.861677034776,234.363790806812,421.284286586844,94.0629574092759,326.638755609348,-0.240042480241721,249.929966323117,57.3806200944568,451.134662559673,17.4699677472282,366.676832040379,50.9697875851142,2033.03115311506,-189.65844427428,258.930886120504,10.3502499130635,597.067865109782,288.169358810247,859.735255422822,27.3307113142292,717.613912601807,-4.61133641568666,327.110507415054,54.4666622689132,878.222777675846,129.105027931539,844.529937717919,-19.7674114741156
805.163863287636,374.202634398474,564.235830894177,230.66033155842,421.959611392348,95.8761447120402,328.819200352022,0.888921795806375,252.540131872732,57.3676320464188,456.727482467418,17.4454598655508,371.67229772707,50.6921137301195,2047.22417858995,-194.210053548716,261.464264350722,10.8111955165866,607.415007947272,288.170059827829,875.197521621776,24.5889795320561,727.987990008448,-7.36417171474046,340.035745500008,47.1154022029102,879.971184876956,131.97538443769,849.425615085404,-20.4131365426897
819.073852141903,369.766558934189,564.543725033433,237.63739009523,422.826767787856,94.7271145606522,328.712432762368,-0.161013495086844,248.199708679297,57.4679931699379,450.804052991187,18.6208816203135,365.832993624138,50.7263853372488,2029.32792364017,-192.178476784116,258.007298619201,10.2011182332961,590.35755530997,288.050201363103,859.898499740703,24.5335440246824,716.682661883537,-5.57391277901452,322.430948544547,53.956338427524,875.350766659226,129.168826617167,844.314886552822,-20.0483448059944
782.422288143369,376.916321949449,550.386920168578,236.282475643909,420.782299252535,94.2587877257123,324.50633183369,1.8644483697543,249.471449803648,57.1559983557397,449.184819846497,18.0582548303999,364.638565713934,51.6987768866628,2026.92013201246,-190.237059442205,257.697101223151,10.0366199254923,594.102497414141,286.760917146971,863.591667060074,25.4503271870473,716.489824504566,-4.73786803618345,335.297945323433,48.3347379277819,877.491323331286,126.521023062258,843.109064577235,-19.8550108898107
813.272472147582,371.407180941279,565.63119574498,226.597025342989,421.095852536497,96.3590312204677,326.847982005267,0.374139330595327,251.941438154313,57.3106012259179,458.206530186825,16.7119024297258,371.57444056419,51.0483492704034,2052.20773740439,-194.038073295207,263.310746166004,9.031127779346,604.622472916344,290.009853887377,875.268935735373,24.9981553307947,727.168252923331,-6.24359418356532,343.293548768592,42.8717073082487,881.656494226643,127.396142056154,850.415218584449,-21.5639248078779
798.403837906161,374.920261621578,549.57667384689,231.614152471256,420.956918371117,92.7652660322871,322.819351880781,0.702971651685483,246.833565735267,57.1170464814782,451.184453491929,17.6645613155283,363.145754378806,51.6258304312787,2028.24236051032,-190.999628058529,256.518410711736,9.90450887301667,592.453195761939,283.616821389623,856.87765345749,26.8237601245052,713.499918123965,-4.67338178703912,330.57636224056,47.3468411767273,874.358295918883,126.540290405124,843.963521097655,-21.1942582891152
795.496355406276,373.606538038326,555.380452142199,234.756646606025,416.546659171076,94.674700733195,322.194491944237,1.68730469891456,248.042775518701,57.5894843430583,449.679720032135,18.8510564841275,364.336842124278,51.3888717647048,2022.74854983345,-184.176542132905,256.470830703547,10.0068840720214,595.244411036609,284.167972810002,864.901189348948,24.1550990370383,718.229417654738,-6.87164686655715,325.330859347378,52.4670111147758,867.876065291728,130.134024896655,842.803321608682,-19.5458269405483
