1280.02279118522,305.193200301209,1096.33266269401,179.806239170506,219.708433240037,9.05253732669069,1012.90696629214,57.2675068624504,414.17838862369,10.7963821431741,288.331537870206,-1.72719577810353,362.970507094341,-1.41892229875643,674.707956508571,-33.2697278520696,1666.63861872627,-161.994499937262,190.679976627232,38.597255342526,1110.14170438312,-44.2470110491015,1324.75478705947,-130.255955466609,351.441956384749,83.9369639819261,1510.40166695626,162.163611573,1269.0251113314,-94.8326988355444
1273.20576992021,303.82421549525,1093.3830592672,176.5454675608,212.177826584719,12.0298168558641,1010.1049643103,48.6359062115425,406.710845406701,11.501216467445,284.978753844399,-0.238254145596068,359.480746760119,-1.12573062476806,670.117506568365,-32.0709951485854,1645.30065554556,-151.847454822335,186.0937415232,39.2399120520993,1077.97643460741,-36.4613044981349,1306.94257204485,-131.290991412958,342.875217741153,85.316031247694,1485.64820160032,160.270296750798,1251.83963083603,-94.640158993238
1265.8633362432,300.757843654093,1073.21474643873,187.087280191999,219.606913499248,6.59990345911343,1005.11553511259,47.4607601218186,405.553660065765,12.4552801289423,284.47927018223,-1.95789874147298,358.948902770894,-1.14693265750501,668.187626187184,-32.0460756231552,1632.45003099896,-148.035959994868,186.571042167334,38.9627679820762,1087.04677301768,-40.3982314723357,1306.05251164038,-126.845246942805,344.527205463769,84.3483160679429,1493.74538816667,157.247212126474,1246.00717436351,-90.1927166009533
1289.30182352346,298.188924340022,1081.1729329729,188.743845151619,213.856282631588,10.2914218903586,1005.60733720124,59.7748238862903,412.129397077249,11.1619114151912,289.916113483098,-2.56828561511025,362.013104413299,-1.39319187239694,672.060536823309,-32.860465825867,1641.35233615687,-146.478858241802,188.639877604701,39.1704848631221,1103.88223947036,-43.1476864259061,1319.55248266299,-125.116581192099,349.52829114007,84.2928556743634,1507.83026803706,156.402911706368,1257.99047355975,-91.5849332510737
1265.4006237284,299.850205768942,1072.56012248674,186.190821279344,204.25791793236,8.89177790051899,1006.62523210491,43.4508013790333,404.07680735363,12.337968340302,284.895069166241,-1.31769455447389,357.557041795782,-1.30433332675361,667.699702081031,-31.7655627969178,1626.81905947317,-142.106205040513,185.395921753725,39.0986830486596,1078.47518761428,-39.1096977116766,1295.81554386877,-123.627610514352,340.445841421683,85.4370626838066,1480.22280703558,160.266335478382,1237.04497454286,-86.9149859214094
1273.19004475674,298.047941677145,1076.47838953748,180.451393890452,211.880952505924,9.40278099237391,1005.69410386824,52.6337904864593,403.741319774282,12.6420076546974,283.774098991218,-0.741778256840197,358.258756060119,-1.3582718717202,666.512671065138,-32.4611505602225,1633.61934582757,-150.386525129648,184.613042108644,39.5594326485938,1081.75241770806,-39.4111182942918,1303.38897917711,-126.156747378067,338.994195166972,86.051133235681,1482.09015874942,160.775613611725,1237.23335160136,-86.4402087847124
1271.18468745337,303.494935366354,1075.1367047129,190.354029908449,220.34294403724,8.66723251511175,1028.75956207963,47.412236036671,411.153125331442,11.4210479767838,286.298479444106,-1.02108989791523,360.646173352093,-1.00239706510451,670.311686033717,-32.5746428800607,1641.47869042816,-150.498434770587,187.9563258852,39.6149264655511,1101.04528717901,-40.2306667127839,1316.9920481865,-127.445875180091,346.060091714343,85.8652323653867,1501.60134894379,158.18469433284,1253.75581063706,-90.5131181001773
1271.37515578803,296.903856679687,1071.67622089268,185.642272040942,206.790491380274,16.4280114258181,1004.96662519542,47.6335575963659,403.715745485888,12.6291024963306,284.098029224944,-0.813024873424806,357.758477302989,-0.851161042496839,666.572092538279,-31.7955031460574,1631.57019188487,-148.976894856734,184.236507744017,39.7210317887599,1073.67247178824,-36.7162008898635,1302.97068688104,-126.552653714642,337.213463494535,86.8481043860157,1480.31958548899,158.147415720254,1234.39055940407,-82.4589953558189
1263.34287319671,308.219643797492,1067.80755177147,181.389669778034,209.43278201708,12.9960630411458,999.751878341471,48.7893923283773,404.468989461357,12.3997533197144,285.287285554585,-1.86779063234455,357.316338201124,-0.405789385235977,665.9872561297,-32.1889247924732,1630.88594462683,-153.822537324687,185.247047132428,39.2863940712714,1079.04676926212,-36.3158683700951,1300.95471083113,-125.147159473635,339.868560202581,85.7910721571587,1484.54515194185,160.392624895209,1240.94452479285,-86.1898653442399
1271.30261457676,302.801873697345,1082.08812786476,178.953632321108,210.871857783285,12.0965818726362,1026.38478305742,46.9586542479572,410.073572335342,12.1850458946117,286.096343010613,-1.13623719535889,360.796015737569,-1.13759938957992,670.615013456714,-32.5276564336125,1656.52557186964,-156.588871390978,188.31010566628,39.0812822162774,1100.44670062801,-42.4274330551477,1319.01102163651,-128.292868238737,343.692287612274,86.5210784091237,1498.58138219884,161.426024942816,1250.54714747536,-89.8861481153907
1276.4813374633,304.080225447962,1076.50212148879,177.853896910739,215.990992625524,6.47891828081872,1001.86987311829,58.3779616846089,403.168534493245,12.4813655630389,284.880470193981,-0.365117983784256,357.572188530805,-0.733869703610962,665.688104731969,-31.2760799286826,1640.06434744185,-155.180424959052,184.497880254494,39.6060529081058,1076.1579450539,-37.906869988836,1303.47025463511,-127.101165838787,340.271577067226,85.7927486654972,1486.1096502705,159.528534769644,1238.81196096595,-84.9333891812878
1273.85722328341,300.929085301885,1071.38346861193,193.770111534907,220.226128959367,3.59948581258756,1010.92640800294,49.4502901844448,405.605207750868,12.5050425613895,284.079023075883,0.267390916089405,358.410402506572,-1.04607719525528,667.325119577299,-32.1079369483176,1643.3897595845,-153.722925989226,185.36630882424,39.3242119384836,1080.58121270879,-36.3758824827014,1310.20470093787,-128.614214619545,337.556115195819,88.3985999377016,1494.77432834636,156.400731873343,1250.15072158985,-89.7238500147238
1284.36045766933,300.439209134956,1072.82276723003,198.056461650305,220.78182311731,8.3399880528703,1036.81176732946,43.5854051928727,411.545101829158,11.9471678070783,288.180290174628,-0.698218381929116,361.306375536525,-1.1209701945985,672.599122905707,-32.7355224615342,1657.03403450281,-153.360610781585,187.196932663118,39.327407826107,1080.58557073092,-36.9238281027291,1310.66800631352,-128.587737689886,339.366889180779,87.5825323916229,1488.479351367,159.70984073634,1251.3539881233,-90.6710458247381
1261.92417691701,307.375545316381,1055.5113033828,186.63963282547,226.213451677091,8.34316063810628,1000.87184419373,54.0017374052537,401.750251797368,12.6387272414223,285.731400796321,-1.08880337881006,356.03896197516,-0.132594026462939,665.971596607541,-30.9275722142687,1622.18052433078,-146.875765253158,184.307740073718,39.10908570241,1064.67443297473,-32.9076383348638,1302.17762682896,-128.577195686428,336.417605830673,86.5872531133819,1481.17574989677,158.704681035863,1239.32572242863,-88.39009351292
1267.45387354002,310.084235592382,1040.89556929953,202.801990464687,220.539282746864,2.43523676982255,1009.98885182543,50.2210121358363,405.681457757742,11.8917405199887,285.489006948865,-1.40836689628524,357.727986468273,-0.465480855120807,667.408744550895,-31.4987864797309,1626.64637865829,-145.440250191224,185.521377114469,39.3274165513355,1075.3630240018,-35.6749675203301,1307.45486960327,-127.604160602753,341.878211848823,85.3436725162531,1493.37320270044,157.083720280627,1248.64429766183,-87.9494014719796
1299.15226892859,295.018016495179,1089.6305540896,179.40253067986,215.701800259377,13.0017807195807,999.486993971517,57.0967002351804,403.420600571327,12.8521885948213,285.380661150361,-0.260258578814042,357.574224284773,-0.370487110482943,668.8591270409,-31.8222516975245,1634.58316879357,-150.401947988528,183.114528787572,39.9487752506578,1058.95433859413,-31.8941476052231,1296.43417525499,-124.442119610053,337.889565521614,87.0279051678189,1481.24283404377,159.952745349244,1242.23033048109,-90.2989532229558
1258.61158559428,306.938095214023,1050.08522710259,196.6298388556,218.424450599321,5.58366186277733,1012.05495219491,47.9733213523943,399.738298060893,13.226277588719,284.771389139784,-0.402419344449424,355.309608558917,0.042439511714848,666.894295335472,-31.1912985187472,1621.65429153242,-146.890997397542,183.004867421118,39.6153722701979,1057.19113257319,-33.692920959474,1294.3520966847,-123.005847754164,335.699219377408,87.5264108012371,1478.4552688083,158.568482567219,1237.44105179887,-86.1005500801871
1266.76971552753,309.983819417238,1065.02628555335,182.437962585143,220.611046910434,10.9674032669094,1000.12123374536,60.3619260004721,402.804928768756,13.4656136074121,285.628073816529,-0.0557399459537105,357.692943376434,-0.162330423384972,669.299067276102,-31.8510662195165,1640.86638556963,-154.656671213946,184.513221883856,39.8661418829284,1070.75904421855,-33.3927700299801,1304.01831336054,-126.046313973279,341.077244772942,86.5540003478943,1489.67711697401,162.10139799707,1249.82690128733,-87.5085634548572
1281.73840960385,304.967623372374,1053.77349115279,190.222157353432,218.331913027465,11.6636719663649,1000.50653582203,49.7035045332062,400.470878928273,13.0283081512914,285.63412469999,0.383144565897162,356.118506213891,0.562570290593191,670.817538330519,-32.4343807410108,1621.352138059,-137.333719327375,182.727975581093,39.8608655736203,1053.36226402499,-32.1788843841703,1291.60668998791,-124.373771482107,337.162638414773,87.5997333260804,1474.86718667323,163.607917655008,1237.64437339626,-86.4797694721728
1267.14302361141,306.491821245672,1048.62934567549,188.719437447473,215.679051590459,11.7331005950558,1015.65545243492,43.3356828264074,398.459671226106,13.63490212791,284.392590991445,0.83254039695644,354.849843295643,0.593825422611432,668.386485319808,-32.0646540887296,1628.13560859895,-152.696262609849,182.150201116206,40.1478026220483,1052.02792414322,-31.6514801580175,1287.93060583371,-121.734529704038,338.452019324708,86.2434878525649,1482.20135438854,160.887714044024,1238.55700814136,-85.6384025103203
1269.98182147197,309.315014655104,1062.32749734157,186.938233761979,219.521310845201,3.50562465176788,1017.75090363625,56.8441981951581,404.290214926901,13.2015751033492,286.198389513613,-0.425487887581352,357.869004408434,-0.0881376236336838,671.901073755426,-32.5393291534453,1640.01025910053,-153.260063405697,184.129236468516,40.3005811014672,1070.19672074612,-34.0295546099867,1312.16312250389,-127.096457475909,342.379255742807,87.0209637429219,1500.24636546161,158.485322060181,1246.93636535249,-87.1860945308379
1263.035892195,311.182845432907,1062.39419371371,192.12603507261,215.054744035859,8.84556919655694,1012.30903983975,50.0200645538055,398.528759238183,14.0846317641731,286.648425020759,-0.18399052653732,355.438065807282,0.766105878515183,671.315741366682,-31.9156708110707,1624.62370227605,-146.613361991494,182.262009445119,40.2050526639167,1047.25323553654,-29.374594160244,1289.85540911535,-122.819778266595,336.013270558775,87.6045742638856,1486.90120054997,159.156903411893,1239.2061200858,-84.9917659472783
1285.23725158111,300.355375836227,1060.38062537363,191.338545763038,223.873327417286,6.78793397474715,1016.15788157452,44.3829152395295,400.153925119517,14.0019591329152,288.334614488418,-1.12261799957631,356.166951922096,0.766159865866909,672.566472484217,-32.0099523589274,1632.52430732056,-151.294465314795,183.556557378964,39.7436083176585,1056.89970125877,-29.1441704979594,1300.51807896605,-126.500890667278,338.794763767063,88.9600898181366,1489.9033404222,161.033301113308,1244.75185150378,-88.248946424356
1283.9224297123,305.527788391819,1077.84400900973,188.709393337757,217.360189854193,9.67912834951422,1037.15406768369,43.7338558990607,406.614112173231,13.6597684839787,289.443217811924,-0.473430988802718,360.040858581234,-0.26911849572859,677.859464849282,-33.2043077243085,1633.47940916925,-142.390473548023,185.844454010513,40.5042287540436,1071.8928295106,-32.5695875405056,1310.48901252081,-125.166646902361,341.763125964714,88.7310054446868,1503.02922514671,158.661957073134,1243.9257187259,-84.5450441077217
1259.25632044624,309.71331301613,1058.97158713887,182.960366197374,211.053606453248,12.3459751722248,1009.07479670547,53.619442139593,398.538899180755,13.9460557755423,285.956267823439,-0.61140587059329,356.163711917536,0.483902539244311,673.47365567262,-32.1441428295533,1625.59824250297,-143.406529823333,181.752271891291,40.360384363343,1044.95166390669,-28.0806925134962,1292.53061318504,-123.245326564094,337.345157669802,88.9157234211091,1489.60704262474,161.04398237705,1240.12159911854,-87.7526952547097
1264.92554456699,315.807279548784,1061.40489099971,192.168136971034,211.429429844284,15.1107025946359,1027.3209064426,54.4759808775833,401.892746907818,13.9591171700329,287.10652533078,-0.26071826061334,357.720587458094,0.574080230380592,675.575757298123,-32.7242241085393,1651.08015421183,-157.326006220229,183.376711119231,40.5983848767397,1056.0226699927,-29.7047724659704,1301.94362084986,-125.051455710948,340.163767352596,88.2584700510206,1495.09397287912,163.516649468879,1242.55638232767,-85.398788433424
1278.49851711549,323.190331367748,1065.58673153859,196.351198702037,217.562207165066,10.5206493317344,1031.47742534627,55.8904268100389,404.60136696582,13.6896630256684,290.814739638388,-0.540889399750318,358.252306403887,0.809000738095591,679.194748939361,-33.2677226854812,1644.08124186203,-148.521258684895,183.121122148318,40.683597640162,1046.80633592116,-26.5229048468945,1287.75002243674,-120.682943082588,338.452894816861,90.3218789793778,1495.25812446374,160.16673980036,1240.35283487535,-87.5008098123179
1251.54114332394,319.523076188548,1068.700685805,191.095189655931,221.427194145132,5.33653038984868,1015.18527532172,52.7965035056789,398.987433962406,14.4982187771075,289.701301112322,-2.09460361866461,356.102716162313,0.841606099233452,674.597307418978,-31.9571200093442,1610.42249995506,-136.874596843249,181.665548741726,40.8172877734626,1042.55358196814,-26.2409740447254,1287.58721203242,-119.575018576933,338.482535365564,88.3555773957852,1487.91480872948,163.274549835025,1234.68785136143,-83.7377626985151
1267.05156325008,320.954065773745,1053.05195391951,191.482504750485,218.118318164451,5.38233118999467,1022.26020034357,51.9680141502644,402.76017734959,14.1829514568726,289.166124723495,-0.89130633198242,357.916982897009,0.834814599453225,677.571082886644,-32.7921500128776,1633.49590092301,-143.959809892532,184.414550297236,40.7773837586345,1055.2405790217,-27.2357147306783,1301.20867150362,-124.7525643682,345.540657069554,87.0982084707815,1502.90467004468,160.497272444808,1245.79873587376,-89.0395394892364
1276.22035516761,317.171780811965,1050.85363713354,203.163947089876,209.914453248604,10.1042735800337,1015.54689501374,57.9977863721844,399.978311615396,14.1629826806599,288.966609271615,-1.24216520015831,356.251305806739,0.945195011992908,676.457408902672,-32.0175198587227,1638.43519774206,-145.476419665635,182.195425780863,40.9774472509165,1041.31412062711,-26.7293350104316,1286.88349193035,-122.01588271591,336.993423850467,90.2926098333225,1492.87919340863,160.684910112392,1235.85053850841,-87.0115003926448
1270.84129950417,305.23279529802,1048.19774231205,200.057494664334,214.580239737835,13.4907268658089,1013.15974944926,57.4663417256308,400.545700915163,14.0235088114776,286.288874330907,1.16968663635146,355.890656702293,1.32932837994333,674.377809325335,-31.7984896281954,1629.26607324283,-140.21175051195,182.013051762431,41.1967269684479,1044.15936659585,-26.1818882560883,1289.13299704476,-121.397335776031,337.841402521566,91.2497682389268,1496.54376088485,159.056978970379,1233.57894033204,-87.5087053190338
1277.3955890692,310.786002155438,1070.99709540099,188.844216130885,221.154956754326,10.8743685645437,1030.10704474119,49.0530767808701,405.446908993843,14.3156823603585,289.358781710103,-0.234938450087549,359.153493408,0.596192686185047,678.710814607566,-33.0497375737374,1628.78679056886,-141.750633899381,184.865213718366,41.0278861612405,1063.50118616046,-28.9805911843502,1300.8982746674,-120.616969479005,342.386454892904,90.292017815602,1514.34168029071,159.470920059781,1242.13013693491,-88.278997414647
1263.51248983728,309.555827018082,1063.15849418513,193.11150670084,212.15111831641,13.6130961977194,1016.71381545118,49.8829376088534,399.70209605693,14.3366706249957,286.162356489864,0.508211796569299,355.287825175108,1.56657552438655,676.014949939382,-33.061970889505,1626.25219143661,-145.505196387687,181.449361686911,41.4696483005115,1036.59479011116,-22.1460242302146,1288.62190456291,-120.362351710964,339.365486977789,88.5320132885928,1497.51984232818,160.254409883048,1231.44311622878,-85.4509567570208
1262.72446620649,313.036925546457,1059.3967858228,197.888150607833,212.335732071051,13.9470391204602,1011.3792896812,59.1619809932867,402.3249851002,14.4917154825332,287.567742065319,-0.516133717512235,357.444346776423,0.869162007005733,674.762953440122,-31.93338084374,1627.26740953455,-145.28023367406,183.730234891198,40.5965182231547,1050.27136276205,-26.4050985717231,1294.28974062093,-122.125454891415,340.521764322149,89.6195142242855,1509.28810798499,158.204044958817,1232.58318470223,-83.6293629333759
1287.68899627729,308.339718443824,1091.69055315075,193.190149759346,221.939404745589,8.6432169513283,1020.5697890826,58.8144756098934,410.873680909442,13.1481137193194,290.792432225689,-1.78539299053123,360.404988157538,0.764368194714838,681.526454599954,-33.4105028709608,1657.10059955746,-149.937966347075,186.398220507316,40.8462187227233,1065.5763090213,-28.7655551882098,1306.56649674946,-125.719982347383,341.78946297691,90.671305281221,1515.85003943501,156.610146572548,1241.61664998056,-88.7896607053423
1259.39744461549,310.424476550043,1058.09184485465,193.008279530476,219.014569872336,4.34077032395639,1004.41239693647,58.850053205458,401.971557125789,13.8701212020398,286.927674534236,0.45008022242645,355.825437391121,1.38658087578235,675.832636032321,-33.0154531514286,1630.46001327674,-137.890095513846,182.641421253793,40.5402792171456,1041.37858074485,-25.1019294389378,1286.83088714468,-119.837676851457,337.758455774916,90.9065048118737,1497.51809903519,161.491878127214,1228.41715153788,-82.5283032020811
1273.68414807624,313.393532058444,1089.98399481339,179.019711199487,213.889383015566,8.98780095156374,1021.26040031898,53.2578792319308,404.756390860995,14.2002448598782,287.796674950158,-0.386692881776727,357.329438101139,0.886697535103806,675.746282450718,-32.3818245994442,1639.7910821088,-148.989540809935,183.820876442751,40.9784850077883,1051.80828962375,-26.4226869547236,1300.89205480617,-123.26872529537,339.926750818416,89.579125738845,1504.59516694915,161.028788807064,1233.72585520683,-83.7716910811878
1287.16316191146,314.642623282043,1077.64430250324,194.320534200943,219.089302696428,13.2524283234037,1035.91006296412,48.3864862980458,409.009080812421,13.6322382065653,292.376905502722,-1.96459748121874,359.626505744082,0.416324008068196,679.979127633242,-33.4805165588954,1637.70741898537,-144.711222438468,184.235838399015,40.5530608589955,1047.68530860351,-26.8838957000609,1289.46355678216,-121.090985816337,338.316147125362,90.6883687707623,1500.52788059429,162.430846049663,1230.19797969666,-84.5918894406933
1262.24574107387,313.604838472275,1046.66769888838,203.673962373199,216.661861834193,11.3425009653313,1012.67423963445,54.1735287437068,402.426836329159,14.047653154883,288.723472561267,-1.94847547839319,356.181917434122,0.984264949503434,674.052796535565,-32.148873539413,1633.05710453751,-150.370677866875,182.337753034275,40.932055612651,1039.94304352292,-24.2111245073084,1286.74591073816,-120.850853848371,336.325862212119,89.421820032226,1497.12128412629,159.099599716663,1227.5246510705,-84.8542908792846
1273.10121628601,311.292810636384,1072.43804259645,190.606573963557,226.575421095435,9.2465114541508,1024.47256669042,54.2602175520199,406.63935018041,13.8925521286868,287.796221998955,-0.497368437438048,359.077728540193,0.352455062346921,676.654540151018,-32.5213074665183,1636.60078395091,-141.899357638277,184.236378321611,41.0607598231565,1054.13933231126,-26.9754358407771,1298.27648010029,-125.508761360383,341.126074161653,89.5080146616073,1501.82125053215,161.056444534063,1239.9129499068,-89.2457969806163
1276.37738059692,312.540738201041,1069.23671147601,190.250283531794,216.029015298156,10.9412215072495,1009.02751872099,58.0073310310458,403.641218597135,13.9586582775434,288.824291038237,-1.17672981673857,356.823527378025,1.20300588417124,675.416419857171,-32.0968512727689,1642.18707550051,-154.038194154447,182.570705648488,41.1397610418344,1035.84366917847,-22.1283376722741,1284.05298770336,-119.623454668819,338.227862830964,88.6443240502534,1496.72349821825,157.109447662289,1221.27616179028,-81.5106429301427
1265.97157235146,308.427720292939,1070.58252901016,189.809241437594,212.980855360756,9.28351558189035,1013.63098282728,62.4457688008868,402.876398637351,14.6792282788586,285.837340577526,-0.098153182032432,356.759623831319,0.890287421329385,674.65308291358,-32.7268359511761,1632.91911716092,-140.141652886058,182.949683600625,40.5770380597413,1041.15884948425,-25.129964092199,1286.09582737323,-121.872316012973,337.493515502326,88.2455543385441,1486.01270811253,164.275856940719,1225.20495095524,-81.2919834028828
1269.84607630315,315.468224231549,1060.81437304792,199.880828741192,220.657042049555,7.14357760711524,1009.31437656901,57.0052105772624,408.2822799727,13.9706849144596,290.077710232347,-0.867975877127632,359.875707280549,0.395849168598975,676.829274899197,-32.2981938290251,1633.31569859356,-137.057586332491,185.298506387339,41.0644508675007,1060.22938696738,-27.3721689932625,1300.19801094549,-122.787424279915,340.259160060615,89.5558833925465,1509.94246796224,161.095030554958,1241.85337913863,-87.1997552971737
1299.91178869394,301.032848554452,1061.35840937083,197.300824505942,225.297309382618,3.52790934369187,1006.87869644621,56.1316039758427,402.73614352211,14.2379727481708,286.329946899673,0.262600390324403,357.256322038218,0.52752186545862,674.84704620594,-32.4368437094352,1629.72450092754,-145.840826104755,182.531046190909,40.9959272850062,1034.93948419429,-23.294145223377,1280.41189916142,-118.558498787097,334.160691679699,90.1652641503609,1489.65228535272,163.268012793484,1225.68827651197,-83.7862201659376
1271.12554003583,315.032318271749,1059.79886777869,193.049341068597,219.435395211089,8.2930265397544,1009.69943042277,58.9391285262934,405.274845163552,14.0016597485103,287.682832037235,-0.441688357021074,357.902342825102,0.556871353026651,674.483258325946,-32.1252434391659,1625.23441544252,-144.970119290129,184.364291622867,40.5580857726558,1043.64040781185,-22.0029643923544,1287.53618664951,-118.925072812084,339.881809244094,88.3659885057185,1497.15420820088,163.511055028315,1229.88464241206,-84.2168837117298
1298.57192727321,311.494347527207,1081.8475736519,187.181267104189,220.734496185827,5.49092357051796,1019.52909065528,59.9567266698946,412.729327754961,13.572656892691,290.906531923279,-1.71133910788863,360.466509874992,0.494626663134523,681.536054898046,-33.8875130249698,1646.82707660022,-140.945109536282,185.968925220009,40.9265941648993,1046.98694007078,-24.4896134787265,1291.50840465085,-120.581790146926,335.913094169489,92.034128704041,1500.52922416112,160.0731708159,1232.3755354022,-86.895663152471
1276.44557779119,305.954872751757,1066.39960086487,197.694663068619,229.315278495278,1.38143969575557,1007.31938402213,60.2035413698263,404.778194498242,14.618250383088,287.881009472991,-0.859781567993023,357.030981449733,1.01538429515222,675.781885893095,-32.4365555042293,1630.29639118231,-143.008271561292,183.785554339916,40.9182394858899,1037.72136221182,-22.995093853213,1284.85347019748,-119.254967589821,338.548332502701,88.2147639375441,1488.54280220228,162.859017901679,1228.72311255236,-84.9864397584269
1279.59881160784,311.072614412109,1068.58234847944,196.284984039804,220.803176292886,8.75764031690208,1003.63379046747,67.8842501993431,408.556270679682,13.6457285005724,287.84034169788,-1.23329270001568,358.548644002659,0.882735463347486,677.197384848425,-32.5162113877126,1635.54140101972,-141.779833956299,185.177240570513,40.9574705674654,1053.01909373627,-26.0348498216995,1292.86003215135,-120.712398270897,339.270942606278,89.4159190333809,1501.36073636947,161.883967366725,1240.67575900748,-89.2972265139599
1276.92225481608,322.502683035605,1067.33092272709,191.806660041263,228.433183896073,3.56273639811984,1035.67701496616,41.4750586641972,404.394197145698,13.8038904460128,287.425140967281,-0.638486259902803,356.492213151843,1.49992868402258,676.546046847271,-32.4608162749033,1632.68601544109,-143.529114986095,182.955311553004,40.9624044115526,1033.46940100546,-22.2747167363671,1272.93122018005,-117.164271522201,330.97375458069,92.3060513701591,1485.71543258773,161.171564183919,1223.75404989718,-83.6589042634771
1274.83496834978,303.977486940425,1056.03017944181,199.017240929138,213.919609168755,10.3212380730196,1009.44757525369,57.7662712848858,404.019461868667,14.1057361834156,283.158882072009,1.1347548819102,356.627625143561,0.790734472105636,673.138149186792,-32.3855658138525,1616.64209869863,-130.213552074075,182.963459869451,40.6970091344486,1032.38658980903,-19.9025951104788,1278.0433562845,-118.517998073835,333.189506193898,89.7852079521291,1485.1441921204,161.462977795564,1219.25354285556,-82.9424951975945
1276.35319631052,313.125504806086,1071.88776617074,188.163364726257,215.183447506709,10.5119777498316,1019.53951359639,55.4140430725442,409.385816506243,13.9448086131851,288.131041658343,-1.393275863523,358.931978663187,0.561892449399453,676.960691417893,-33.0341049634556,1649.67447509,-147.803622916154,185.111876960419,40.8826446433167,1052.80371281732,-25.6264208374474,1295.16397760572,-122.491626153817,338.28455171725,90.7084165501706,1496.3367065546,164.06049555435,1235.4361722644,-89.1333708771323
1255.11996533653,313.837435425785,1059.26679546571,196.385096807152,216.267230795877,5.20582803620264,1013.47817206817,45.8331886320997,400.625050428605,14.4726124125916,285.202455225377,-0.574314894528325,353.902516792112,1.56184563251694,670.498034759127,-31.395055509344,1622.11487733124,-144.361037698996,181.188934843972,40.8808265238156,1022.12490784251,-19.5551900708339,1266.63445819515,-115.719974997271,330.627771424685,90.5067147657282,1478.27179994372,161.322031097372,1218.03484775452,-86.6153123546507
1259.36812622505,314.144356080391,1053.78041096508,193.625725996954,216.659814850473,7.29204575824309,1009.4782896782,50.8725831993481,402.6381550609,14.3801525288602,284.620418335142,-0.0424596318696849,354.860687467772,1.40434298715958,669.959268009965,-31.5338278156173,1630.96678352829,-145.335961433101,182.264107175476,41.0362517467855,1031.18531881197,-20.2907669515546,1277.82250393615,-118.491505306732,330.092629762088,91.5617177414036,1476.92291416692,164.705685717049,1220.8859999232,-84.7543588749067
1285.84048141305,307.242647986978,1071.98223173771,195.518676176631,216.532150102158,12.2284347416568,1030.53583597094,49.6486525865938,406.50991599547,14.292006179998,287.281777396112,-1.77324199703504,355.201793216336,1.9599194617354,672.490819113924,-31.8107553909068,1620.20561218437,-135.873701087484,182.788672589943,40.644700298579,1022.65239102415,-18.9062210674982,1271.14728014419,-117.673582968789,329.653480797949,90.0776496373683,1470.04560309313,163.999680042442,1211.42352619484,-82.809704617209
1257.20585886115,305.87162026274,1039.82394473619,203.011523592992,210.62519697244,8.48718581022435,998.480472941121,52.4321865230549,400.013045245191,15.1553307364339,280.491141101094,2.13748615778944,352.097125747089,2.4096485526717,666.915533774225,-31.3349430471811,1606.13035004047,-138.024064536013,180.337743470399,41.271991607995,1019.02649078561,-17.158070365415,1261.49784586711,-113.224776137696,325.656533441645,92.1733140564722,1462.951748477,168.936419955195,1208.00959457037,-82.9678603296091
1252.22095166316,316.931597527316,1053.40299008377,195.583936734697,223.902752306881,5.34764304947741,999.663222481444,58.1832815847471,402.421502209758,15.1346391295677,281.779573710513,0.784673624294296,353.89327205799,2.34619923591154,667.475358600759,-31.0029543717381,1609.74033001404,-133.943433712063,182.357610651076,41.2054186594104,1027.07068845169,-20.3558457495042,1274.3828539798,-116.849526624949,327.587063830522,92.3192440272923,1475.17304401196,167.052224770144,1217.43517876522,-81.4577972679255
1240.37671635,320.698011404841,1045.87939532088,196.610910363834,211.460900783953,9.41257952187523,980.482276439815,65.3688331678037,397.746822021399,15.8260745020681,279.585126760329,1.01711439867054,352.290995210523,2.13118942710659,666.420540351561,-31.1946367366616,1612.26421212482,-139.727870848947,179.944553189779,41.2890862393875,1010.7879089618,-17.9250011256296,1258.14549589422,-112.302140442844,325.201026582675,92.2238661596712,1460.24849651243,166.671283725913,1197.7701834857,-76.8171450049449
1256.48621845143,310.911743718841,1054.22422887635,188.428210297644,208.819366047305,12.805169720563,986.4561278736,73.3349340586445,399.380821585883,15.3312826049176,282.100462424336,-1.0193852267591,352.582484625139,1.84803449259589,665.135359599515,-30.5089515624455,1602.2948786508,-130.513074106517,180.292478756943,41.2872752091345,1016.45717966905,-16.5717933674138,1263.63475974683,-116.440078727634,327.286759866845,92.0895082745302,1464.30703377718,163.155447341062,1204.39369007247,-80.7591723957331
1254.67279320477,322.347610015242,1071.46519348532,184.684640832842,218.676460407002,5.05750876996766,1006.02198915817,60.2565343575765,406.151163084962,14.4949740827368,282.879418056039,1.01132540127641,355.063175401141,2.00911884427706,669.709769374012,-31.1826365480945,1613.20587841526,-134.681581551717,183.461882879532,41.3343058270523,1029.1651531091,-17.4324658984561,1272.35326513342,-114.575887599654,331.147030669669,89.9722898897849,1475.87764108791,161.387121626923,1202.58774364819,-78.1332854483788
1235.53185706703,318.572783574738,1037.27838007756,199.07855457335,212.120286380731,12.7879162955968,983.247320549831,59.6220790157374,396.856585844427,15.334118576863,278.29497399596,1.35345908129094,351.168584540675,2.27082662166092,661.804799103936,-29.2896218662923,1586.34457997236,-131.069653622008,179.04178772638,41.6312588925401,1010.71619376621,-17.6639430006801,1251.46978269793,-109.904288617302,323.519273515025,91.87315125466,1453.44443292903,166.748470785969,1191.6557086191,-75.186599964862
1232.65579793163,319.183089037706,1051.76021903854,194.283079560552,214.138897974734,3.49140739087254,989.916254760364,66.4437640957986,399.99278957801,15.1722246875695,280.391311842252,0.270943935689645,352.183252510922,2.3546899739538,662.945288076537,-29.7064464843492,1610.99695238638,-140.598222105046,180.449605235884,41.2973010420765,1018.89812657646,-16.9153946989121,1262.60610131527,-115.708741880524,324.097120043697,92.7303440548581,1467.91559407686,163.197281403274,1198.04813884408,-78.0738585219701
1259.60133785335,325.734971113621,1060.24919469488,191.774958963415,212.502676733141,15.2543654121974,994.798798720616,57.5395153103518,398.559466698511,15.0763319717266,280.551747636253,0.0706079795918194,351.587555275934,2.14083189531875,663.586448862034,-29.6438803243172,1597.98135198032,-138.041348785471,179.019619243702,41.3558388731477,1003.35656469752,-15.5305337417918,1250.05478966044,-111.933443108124,322.067254181842,92.0568897648188,1452.25077450645,165.289027384208,1189.21828744447,-75.2126195910243
1234.31219176185,319.351335085195,1026.94089433235,206.849756663286,204.1276363315,13.1014950735475,979.386903998384,64.2857271057972,395.089310633171,16.2284067881505,277.511571137412,1.24875853379833,349.576600125508,2.74874174546958,660.204858747251,-29.6482890187105,1588.32915584889,-130.624679074635,178.26306165001,41.5819905261602,1005.86723537894,-15.6969660648248,1251.40863581754,-114.017797917778,322.998175973967,92.4619104804505,1452.88445552214,166.427166729365,1183.84552885132,-74.064974725304
1243.59999486154,318.521648978971,1060.03782561863,194.13943972081,204.199979047715,15.3069152075932,994.985261126019,58.9583775569913,400.290037643476,15.7003175101721,281.43202400395,0.163593910589265,353.391321808825,1.82738732986269,663.637827572179,-29.9919730450478,1592.83873615252,-129.467759405391,181.260358997823,41.3865642201943,1022.98625984003,-16.8451980185008,1266.3233972512,-114.895405028738,328.767449835117,91.815462061625,1466.85511163411,166.767434759864,1200.40580123274,-77.6863609783479
1243.04652083343,319.918060557682,1035.03311955798,197.639294141679,221.065922867765,6.43434708406488,978.010232404951,63.8433280077996,394.425595480857,15.5909058706659,279.168255434893,0.772346668881412,350.642395633837,2.41631517261819,660.727154298961,-28.7401257853691,1594.63819036885,-133.706634512814,178.479742394617,41.4855527561957,999.309579816257,-15.8186744513969,1242.09047301805,-108.077640150329,322.708360039147,92.6132224928159,1442.65379297557,170.354601354144,1183.62516505785,-75.107368251137
1245.0918342282,314.21203888075,1029.27698692089,204.547979108635,209.173202466348,12.3101449010226,974.385472353897,63.0991684944902,396.558719127537,15.0080965944379,279.908094420367,0.0325533821922722,350.220186480918,2.73536624275075,661.246152483187,-28.9884258857538,1592.75234271704,-134.940975928748,178.924157581416,41.6318012200278,1003.53828916933,-12.7179961379507,1250.42046192321,-110.633319477953,327.889905762523,90.25291975984,1458.44267573153,163.919967729246,1186.54027974485,-75.2549339512453
1259.22960420568,312.746234704852,1057.91577049835,190.789531019745,209.517925162945,16.6462784916566,995.855474917439,55.7833935180956,402.226240052608,15.85736208103,282.933014841437,-0.151395879885804,354.687352028123,1.87827967940832,667.35675894657,-30.0565937237421,1613.10562690768,-133.418282534288,182.79947303777,41.3818392362658,1025.33857427448,-16.5855974489418,1266.29925873107,-113.653376146819,329.55038016533,93.0340648991528,1472.55731651843,165.996320806847,1197.38727948584,-76.9844366789379
1243.57316286694,312.888902463715,1045.52224235558,193.817296980466,203.929658745925,9.47277366139717,975.051091709488,68.253881672952,394.094653761949,16.2875611111522,278.146181599846,1.86703098144542,350.456712136211,2.43175337390125,664.323287673671,-29.3809411990529,1598.38488938208,-128.52551220544,179.089929300384,41.5928463464689,1002.22612822574,-13.8862400257662,1245.50107828719,-110.208787507464,323.515168674656,93.3077668148259,1456.07861046594,164.687920200769,1183.42811380223,-73.3880578134634
1238.02922578237,325.231711395875,1046.39368993808,192.187554618566,217.976393348002,11.5880504512933,1000.3657630194,61.778535848969,398.992845965378,15.4836398193952,280.007375486214,1.53321861102535,353.05136510197,2.03952817445178,667.405091499468,-30.3983222082284,1599.5077941333,-133.750411400295,180.222736238206,42.0467507319345,1013.8477527194,-15.47713228219,1258.6050149193,-113.3875214392,326.460680184657,92.7550425866643,1460.8080840943,167.771571306847,1191.63232555123,-76.0603862035087
1273.40941950806,313.935050208165,1047.8925065257,207.063821577699,219.195153618856,10.6360471342021,1002.04222922297,64.611685706317,401.493788465848,15.4534638890845,281.048091864157,1.79467578340531,354.392752402175,2.16619449876177,670.778963871473,-30.8988962052801,1617.9385683889,-144.297395929816,180.804228446636,41.5437584832548,1006.09230511881,-13.4012167797117,1254.08507686261,-113.830031093107,326.359965773868,93.1203515390011,1456.09453599889,169.933246702593,1183.00814972574,-71.6324210087993
1242.70055657732,323.82400020162,1035.9030492996,205.43661069428,219.733381321799,5.76744383355362,994.577475318935,61.6842587266173,397.410995363309,15.3891245990112,279.344730424855,2.16879497823589,352.966414400787,1.91782814117265,668.134204470225,-29.8823078285865,1601.15849121004,-136.892036101686,180.517326948061,41.277319178021,1003.83869122119,-12.3464731685294,1250.0395202291,-110.73445712229,325.203150225354,93.792312428381,1461.39882371553,165.116373030887,1186.00312490687,-72.9379031349676
1262.04389334221,318.36410383487,1053.61614274215,196.83215596248,208.53376513829,11.5397682362663,992.680801623231,65.9663016001075,401.543483152349,15.6006658568002,282.554072019476,1.50504139956222,354.911169557071,1.94091455061517,671.520241768565,-30.3669651001014,1616.06639117778,-139.733450530768,182.381818552318,41.8493228040044,1022.95023785172,-16.320271453861,1263.82540913922,-114.979017722109,329.576567558917,93.3519873193261,1474.11020866569,166.639059715498,1192.62116556971,-73.5786465093413
1258.90588899071,319.814101964509,1026.05026705796,212.135697423461,224.023818861987,3.89423892297444,987.441760121886,65.8534142989586,395.817615914974,15.8764706042394,281.386296068697,2.33909404273564,352.688795476559,2.13938487069479,670.349754385881,-29.8609416524873,1620.37226649388,-146.770568249322,179.816219419758,41.7067983767869,1002.0670596077,-13.357296736191,1249.02676747908,-110.566926455163,325.815532515294,93.4853860581332,1455.71771755056,166.508399437185,1177.95560201754,-71.5096911342688
1241.73330705743,325.052236209556,1038.49841706606,196.331370642243,208.783220217178,8.64237100413645,993.535193690843,61.9948128159125,396.959977168933,15.889428386641,283.146773373515,1.59609132186549,352.964020710677,2.2758297222498,671.231544078079,-30.0002884605287,1605.55465809322,-128.953604885282,180.825207686115,41.721044493718,1009.78481305418,-13.8789718838009,1252.25541137893,-110.915188572052,329.950809366866,92.6910692842039,1461.22875194144,167.941724163194,1184.19975432941,-72.5377259951195
1266.2463282492,322.053404629035,1059.52257442088,194.582273716682,213.065268549146,15.8163215826215,1016.36045639804,60.1068076170609,403.357557097667,15.6194619077618,283.098431785901,1.35923268468994,356.832731561647,1.28790099474132,676.30830902324,-30.9612502331927,1623.60322177509,-137.351340748088,184.221084064786,41.6109312913029,1026.44143635995,-16.3463750288807,1268.57186948574,-115.633314142049,331.27735344148,93.7916857069605,1474.76871353686,164.607881581615,1191.51246248899,-76.2530827588991
1244.16371008092,324.619060712578,1038.20755821324,202.933503804633,210.954360739975,12.0505619374957,992.711858145143,63.7487206079191,395.7732365341,15.5543008102235,282.898703439344,1.01117873071161,353.253096399878,1.8599351590247,672.091679934299,-29.9613074112841,1600.76113777711,-131.212259744474,181.138329129091,41.5857224700132,1002.41235285872,-13.3092296005471,1248.81373717333,-111.070192640151,328.207749816263,93.1548614003504,1464.55809633394,166.963208504716,1174.20143074902,-71.3643472875927
1261.95361650021,310.08321152719,1033.79591346361,204.856595217318,222.852737511884,5.06109809693572,997.922031270245,61.0830331439592,399.200694101127,15.3817501448978,281.406527618256,2.18474871614238,354.243015106624,2.14121226075131,673.167178196716,-30.8032461598565,1609.86328458137,-138.095301958961,182.403102722176,41.6817749666042,1011.55029399397,-12.6422655873077,1258.6018828736,-113.275322432466,332.268819061658,92.5561794278754,1463.50386515971,170.015505294501,1181.94766458815,-70.6692141930795
1281.89632917193,317.441535310372,1047.82827229323,208.214144542594,218.04911094142,9.74597902608771,1008.22526004586,55.516441349261,397.449911169657,15.3983924277221,284.296200195222,1.2317813090206,354.669496807651,1.94062580008249,674.253673764476,-30.7653473116168,1603.94737587995,-134.939910749807,181.115930638481,41.6781253670956,1002.89576595356,-12.5083047398898,1246.1981889269,-109.834562085609,330.07266620308,92.8271452307977,1462.44435851103,166.362653720402,1177.23324793344,-71.2175948507186
1236.60687735852,330.105618125971,1057.34518055218,189.900714679021,216.893345291866,8.59186050120764,1015.89249919502,56.3180791694133,397.148070492887,15.282008239943,279.676330840665,2.85337705994331,353.49672177365,2.23297521685149,672.147939280997,-30.0637012403943,1601.10855823825,-133.640273993047,182.009093115327,41.5777953272032,1007.49181662179,-14.6574050939814,1246.30721449214,-110.306827566201,328.28918229437,94.2182745436903,1461.31210132365,169.314435987354,1173.0443147476,-68.5308970587887
1246.54685233492,324.204852743047,1049.82361619196,197.49454716269,225.266762014237,6.98205812016627,1002.13356098764,63.3151622074117,403.14979981336,14.9721652852384,282.955015383395,1.35254784230091,356.990315782438,1.40350345657409,675.493140404716,-30.6665580925553,1606.92750798957,-130.492629384335,184.685436600616,41.2721320296422,1026.11100091807,-15.7541276246348,1268.7178118162,-114.911446175037,336.253783728154,92.4504993560105,1481.36687682633,164.65145230148,1193.04164765377,-71.9667670027122
1252.53831741561,312.528542556781,1042.09078166624,193.893110837698,223.023698961479,2.56680093358664,1011.47137234171,46.081402907406,395.514714452182,15.4654957066051,278.943026721583,3.64152352677993,352.978650584974,1.95163240324732,670.988141072209,-29.4570587296918,1604.28888682155,-135.201874213582,181.66502348842,41.2432002623914,1000.94938182329,-11.3814530050426,1246.78394287161,-110.366651872562,330.990624053718,92.7510507479346,1457.99245711984,168.39400087804,1173.84559341975,-70.5449034810261
1252.11171828898,324.191082363443,1038.48240253474,202.830049585859,214.989794857311,9.86301297608422,1008.81386175358,56.216626093004,397.912876056043,15.4420771931506,280.035678804431,2.58585550870068,355.041042381063,1.47658515300093,670.198682473916,-29.6985651489891,1599.91439297737,-133.641719745757,182.774287240177,41.3593412344243,1011.9635610621,-13.7376063627568,1250.7673922749,-109.454296590283,334.374607052278,90.8695289330159,1466.16653442767,167.248406738767,1174.23350194001,-68.7664203759268
1246.94789720752,336.099305584487,1067.56431705735,186.964433367797,216.939040603553,10.0376526892766,1014.75118161006,57.1125062548076,402.915885106367,14.6197707541645,280.505007755349,3.72615329788839,356.355709443168,1.22098121832146,674.055619981354,-30.313651226967,1623.39418566317,-140.465173515506,183.426494939394,41.1761526068404,1010.41909088093,-16.5274671536177,1241.9296828654,-107.358104110416,332.328198274643,91.0593720979422,1454.49883257544,170.902327613396,1168.39003391072,-69.010341778184
1222.52230132454,322.184447582368,1039.85773612299,198.01415551961,209.860023501568,13.6329713111567,1004.03577772526,58.3116262637853,395.671951218012,15.4289020980252,278.690260682426,2.86070246357452,353.218490512882,1.80224149381666,668.783234392121,-29.8920975350307,1597.09366358356,-129.766330003412,182.2275960094,41.2346421764912,1000.78926324938,-11.5233233279302,1244.29395036423,-111.158080897283,328.005320149115,92.6702598499108,1456.2041318268,165.425453311315,1166.4806708547,-69.6531765640497
1240.60117816498,319.478894539938,1047.07625558047,198.638367249637,213.558614844483,13.9411328998169,997.631261606269,65.7859862076587,399.362173220322,15.4653697361178,279.707565782764,2.79813763263715,355.339755875932,1.32391519361215,670.141205919661,-29.9834239570395,1605.88234484233,-135.01209426204,184.535081171701,40.6931198638181,1017.1666863314,-14.9042050212263,1256.95059959517,-111.952058658252,333.147579850533,92.2144514112237,1469.61513060662,166.948581532942,1177.96261041397,-70.4260372921934
1236.87087964263,327.055992322756,1032.99985165748,201.092757229934,215.064944201054,11.6453378228994,989.800173984365,63.6944257090006,394.697695719834,15.7177845997586,277.341807642832,3.80535540287744,352.733227530548,1.55288945806369,667.643858960455,-29.5450722914817,1600.93365666853,-141.380284095304,181.336689805767,41.2422658449453,996.38584612446,-12.513071704019,1239.92467436561,-109.626303246756,328.160386439687,92.8911363417357,1455.66578139447,163.359866418923,1163.21352990875,-67.7092789152938
1220.4778188797,325.579935937668,1050.09386887673,189.103329842885,210.475237325541,9.75074900799,987.056258799108,61.5540701139794,395.804325172397,15.7944248261209,277.951609309468,2.91921439768059,352.396653692964,1.88339729862206,665.619723605191,-29.0779879029498,1592.50062013419,-133.857204462099,181.768515878338,40.9196840565434,1004.95283684477,-14.0230582205705,1244.45134759573,-110.831977275969,327.479306112079,93.0295059289083,1454.69058402457,167.621237919431,1165.98674762365,-67.5691847284848
1239.9532745802,325.111610915634,1040.82685384374,199.450059752838,213.37728411277,15.3028332234607,1005.08832750086,58.9108064630282,402.094280939214,15.1186264265167,278.617700166976,3.90732330242741,356.124422889536,1.20601336139049,670.185030746821,-30.0079342147176,1607.84481726804,-137.244282567479,185.050570341663,40.7763173721065,1012.8324482009,-11.9553241153146,1253.19384296361,-111.061770396655,332.099125426475,92.7647657870751,1458.97073427187,169.84818324474,1162.61608310184,-62.7911154224715
1228.23827241459,318.992867851967,1030.06770134184,200.108101417808,211.781978193722,13.1136476612939,992.238629979883,48.9840323608724,394.563829833163,16.2212998168251,277.48859553125,2.73285854102915,352.406688322027,2.09859115521689,664.5735061737,-28.9926987937776,1599.83304573626,-134.395207915372,182.060941330021,40.5823228216146,998.156084471159,-10.2208471275716,1242.48185063752,-111.500816565394,329.678018309155,91.8748969420843,1453.23317883085,165.974337342335,1156.68129923576,-65.5722476963813
1240.68504796657,319.698192242752,1025.31286464447,200.533035874149,213.514035294766,10.5033224840814,999.754825363062,56.798240647437,398.926124649735,15.8017095739782,277.045444423982,3.36471939646859,354.137817419863,1.79830287111207,666.729337489464,-29.4876886445509,1611.7524287375,-139.177479291892,184.080442258322,40.5437916669677,1013.92710197551,-13.809995540727,1254.33064988822,-112.390189531951,331.441993733951,92.9483476739572,1463.73874587906,167.093649243287,1168.24566388737,-67.8054539176622
1238.7702393459,327.083025015099,1031.30014735515,203.025407770251,211.537336497702,11.8680283790098,1004.79359914211,53.9220882106536,395.348980687958,15.8575147725298,277.607026534625,2.77453927950586,353.323837084762,1.6894147453195,666.366576803361,-29.6287911321766,1610.26910905616,-139.71202230334,182.370687663726,40.6834465846426,999.130507780186,-13.1632512271983,1243.0761667632,-111.839235710835,327.851170552208,91.9291048060785,1446.93361160318,168.34281671656,1159.47851118586,-68.1566346889726
1230.76887275017,326.33990153736,1044.80630780338,184.565016092703,200.851276779695,23.4444395215252,993.294926543973,63.0201856981053,393.950482665971,15.9865434524724,276.357527831884,3.86257402758638,351.885723509457,2.10475825582836,664.45564057299,-28.7257384288006,1577.57491840082,-127.130686679739,182.151389230579,40.3006577198806,1002.92409535539,-14.4196532431982,1237.86840670039,-108.513268707876,329.245058284111,91.3704384825851,1447.74451618947,166.589617399799,1159.02016240512,-66.7151292610619
1233.00559191509,328.593251956084,1034.22150650503,205.889140158129,202.172523650285,19.3876180689345,988.85164753996,65.32896168612,400.891445349691,15.5887935473642,278.850416493865,3.19265707810902,355.612223119835,1.38627140283185,668.415029719631,-29.4681902126903,1602.66071619267,-134.12548758849,185.402926470825,39.8119609402059,1019.07763558234,-15.6577225731631,1255.2539848663,-112.212152086026,335.943481391124,90.1383658149536,1465.12943330593,167.300981318607,1167.27949546849,-66.9242402555489
1225.77351639343,323.887942750598,1023.34407293882,208.636674122203,210.500932283723,10.6607996442132,982.076808991187,64.0972129284603,392.394021671928,16.08566832017,276.574158280523,3.38420263537158,351.18876325134,2.14680049698046,662.85688070701,-28.3792380622823,1584.29782659492,-128.525218650504,181.470119883631,40.300933109907,994.175383957846,-12.9987239546321,1235.52004213066,-108.437890393149,326.276503732072,92.8139210663581,1438.72686382193,169.620486400909,1153.34014158546,-64.4910711089445
1233.11489975437,324.254944917951,1020.33975316561,199.421515927828,216.694570598782,9.5820737550413,996.242871293098,57.3593309715811,395.990509121866,15.0933775237083,277.410087507293,2.34174116848306,352.739112577239,1.90211236855605,664.167266457605,-29.0594784212137,1604.14818754471,-137.095688394709,182.692180281847,40.2614732637452,1004.15496377268,-14.3661504122628,1241.9463632437,-109.605785291933,331.101221448058,90.4213712902468,1448.37706005483,172.157973147385,1160.71751524261,-65.0964213130449
1247.62618845273,323.515138831302,1042.85648105636,200.540813116951,218.448235203431,5.38859477970343,992.0715951999,62.8471595056736,400.357379922729,15.4335848191279,278.44667490786,2.85838074977991,354.575315240007,1.56553585887095,667.510437482395,-29.3861179862227,1620.20036317411,-138.786427985241,182.892263171402,40.4954061846526,1002.74280546523,-14.4275063251558,1239.27596727456,-108.368535495271,332.080416059176,88.7790362784343,1448.60848254268,167.591355939312,1156.84359904977,-67.1959928506677
1212.3117830544,328.048720530229,1038.38541044207,185.357734750105,214.288322256938,10.8656052042822,980.969427402824,59.5977283519396,394.810210677741,15.8768256119764,278.13518224823,2.28852968623089,352.678927553895,1.5182830202883,664.746318437738,-29.506935135437,1589.14478929466,-132.411465649338,182.505355682471,40.2207768890985,1000.24159500781,-12.8702298531844,1241.7452648628,-111.118562105549,330.682739610212,89.5259626388653,1443.40611902884,170.838190880257,1161.86828197917,-67.5876229594334
1243.44660444442,318.720824786539,1031.21772118597,201.349794673258,209.49715989914,9.29630336652365,989.808501741654,60.7603998566205,399.373560134386,15.3676880757567,280.045915734228,2.15255602380841,354.737171605364,1.63641825237393,668.266370671465,-29.8622935175873,1602.03528091054,-132.859002655484,184.42866924396,40.3673901765498,1017.14445783999,-16.3152184125223,1255.79633262034,-112.856335205734,334.374231804825,90.0852732639426,1462.72963408096,167.368858692183,1167.38018750392,-65.8553896318978
