1299.39687496928,330.79872330472,1048.10237959222,216.984362421895,234.110167933696,8.18084619194249,1006.68483674794,73.1501461464002,406.204982879568,16.4255508734891,299.576972653708,2.68314085425712,357.368767875956,3.12350421794675,685.574960766227,-30.4079131430594,1629.9931985629,-130.365785430057,182.358690588975,43.6782970348115,1056.31586148334,-14.9126224949328,1278.41695041492,-108.494821089267,337.475488304741,96.485551726274,1474.40186368367,176.469803563661,1223.8955965767,-67.2719710545652
1298.83982093706,333.04912843128,1066.08784345795,206.051618059816,228.093968118541,13.2556559756549,998.650093507561,71.5486999709244,407.840792983511,16.6123449291119,299.371665202603,1.38078128460737,358.230233413382,3.76260648753552,683.444473022001,-30.046069734782,1658.06056208577,-142.654162635892,182.797037455657,43.7706012277458,1069.43336588709,-17.8536284007606,1288.09358986556,-109.114760631979,337.390682444364,97.0527585846198,1486.23224128371,175.67340758883,1233.21188343336,-69.6606122115266
1323.70822425407,326.617870312169,1059.63617265623,207.087988042909,238.206640714615,6.05592270340988,1001.02750468864,78.1175318650144,414.006395991264,15.9855591376255,299.521357698442,1.36985176186433,360.507458348758,3.02711580005624,685.715000619173,-30.6791390541484,1651.17393085539,-127.871178255152,183.480102018381,43.3672759015879,1065.49626398341,-15.6786975349714,1291.44267457255,-114.08191089475,335.715903473318,96.1926552399166,1480.43711045884,177.932108081599,1243.84885053789,-69.8202598964502
1292.8960114133,325.720603381541,1055.3014834111,202.304975094102,228.347651822983,8.2862866090338,986.883066165723,72.9339404103307,405.757296528235,17.1420650068409,296.415033399191,2.97266234880247,358.458345690691,2.86752455311238,680.33982400116,-29.5769131044671,1642.52789027861,-138.608493285347,181.016651781406,43.7017076410277,1059.67890416443,-14.8511359865381,1283.51328366653,-109.51115711014,335.496245341633,97.0572680107665,1477.21079280645,179.163576938141,1247.83079563413,-71.0797056124317
1297.72078140161,320.989822169034,1060.55940698172,203.491859809253,224.705883330808,12.2255005535399,998.429512609833,68.9783987162829,409.021756180987,17.2296679375618,296.975535685216,2.42418178519942,359.77300434931,3.01928872471129,680.145342228451,-29.7693193906976,1653.01542583726,-134.239291546052,182.623444087345,43.7728869649651,1075.94620187722,-17.3611255941487,1297.90569686497,-111.474439302409,338.10352637887,96.8509120492191,1494.53159805456,176.193887164032,1256.47105885724,-73.5811127986331
1301.29245135559,329.384947713787,1045.10973146517,213.93266427876,220.67426497238,14.4330816713578,987.5759502346,71.7030497621057,406.114810216344,16.3398102337389,295.571808102902,2.17630981352949,357.839284693058,3.30373853767293,677.829806510436,-29.1327894275536,1651.97095680526,-143.030543465176,180.05732823039,43.6428267994087,1059.82250277723,-15.2647657311665,1281.07681247954,-108.229561924154,333.311293316773,96.9732526367431,1477.33193238346,177.82253781751,1239.70550703399,-72.662393766284
1270.67272390666,337.118269938795,1051.48271754388,206.267812666061,223.894696165723,11.6146856640288,986.55411953021,69.3930842741455,407.031542660253,16.5582332428911,295.285441842847,1.75794229011634,357.775670845753,3.01903078514203,676.115188277122,-28.7835943287273,1637.02566250996,-138.752186608721,180.796960942012,43.3355703296453,1066.17471398062,-16.3887329492835,1285.01461032488,-108.939042006304,335.326996722037,95.5861585422049,1485.51943209984,175.155401112425,1233.50882069373,-70.8933988845498
1303.63761861638,323.867833998919,1065.80103709093,213.323084650168,228.244848078029,7.62784736270564,1016.90335275429,58.3333831220878,413.896779739694,16.5718587779408,296.581168084402,2.5053970826639,361.143462775026,2.50392900987483,681.242446518048,-30.2994705492501,1665.66592934931,-143.58031904862,183.991066617462,43.4877974836847,1085.50417196408,-20.406447396801,1308.56171947828,-112.645821442526,340.003352861153,97.1057381202928,1498.9267728506,179.96085407559,1252.47320532241,-75.8803898043696
1276.90365782846,337.472723625086,1050.75358802878,205.02029545193,223.780448774388,12.6946397969135,997.187442704442,65.2503870760319,405.823443696573,17.2443890341226,294.317984380257,2.27551000103678,358.094117208467,2.79092686223929,676.346988883048,-29.7480385582403,1648.76911519928,-138.949292605311,180.799299968564,43.2517356070086,1063.85911631169,-17.4944460213176,1281.13431233517,-107.589588014779,337.380084235826,94.2086456368848,1485.50718772406,177.402382169693,1234.52058255932,-71.9739785459101
1290.24246604397,324.011380790507,1052.20424299068,213.224842527998,223.119353625523,13.3645925816762,975.786848205638,77.7758718652132,409.753451928463,16.2623612877544,293.616106636154,3.9026974068882,359.173922810841,2.39109489946605,676.655442165147,-29.4642404107867,1641.80238799875,-129.833378549239,181.948364635668,43.2332762953368,1070.71011152697,-19.0972695010503,1292.13787514006,-112.620963208868,336.279274723511,96.3816602648305,1486.7815966043,179.209758105673,1241.53837548223,-76.7824744053484
1302.28217041129,327.768405855251,1070.52140055509,203.580770965184,226.129328295298,15.1005455630029,1001.76868774197,74.4754015643415,418.053973558728,15.5750818506825,297.513534332141,2.11876663208972,362.758879353177,1.7150971829219,680.794755307854,-30.8093922653868,1670.11280483928,-139.952268047057,183.422852669078,43.3987120820988,1073.63288006322,-16.3198794390419,1294.49334271605,-110.763193072194,336.580407913829,94.8223682385063,1492.95806423474,176.932007352244,1237.88152952667,-74.506443021433
1292.02644969511,326.520609046429,1060.29473532496,204.844451188049,232.542593373711,6.90870092450024,985.530665457508,61.4850128946839,409.917462334621,16.0794540487916,295.108648440924,1.61030297265543,358.905912070131,2.48437413669192,676.083340522127,-29.5050597566234,1637.90344505044,-134.126642351931,181.599428736116,43.2359039524502,1067.42967608533,-16.8946443978971,1290.99863605918,-113.081108948908,336.003404497844,95.1755452796912,1487.7200139735,177.922164624301,1230.33845809552,-71.9978903125603
1298.83956394406,328.496284381092,1062.98127707971,207.499226137771,236.936715635918,10.6787730194148,986.872617075099,69.0468660549036,414.054745809207,15.3551291998984,297.649244671725,1.24610413866429,360.966502046537,2.18426799173326,679.12894187498,-30.8512878136336,1657.51903787187,-137.526081193991,182.522061959393,43.4063848299635,1083.64422017896,-20.0388808774681,1301.63660334737,-110.50511454958,338.67007508155,94.6547021076208,1501.29700438679,175.474923456579,1242.25187496183,-76.5465328059121
1307.71010025789,327.545403252722,1094.08724076972,192.158868610055,229.477284484576,13.6647610684477,1014.19836285429,63.7807547457512,412.286879621861,15.6581367560166,297.455977338867,1.94711888257146,360.826944071605,1.75653738330339,679.658022758825,-30.4734644219123,1661.98922494621,-139.058766787935,180.567760666874,43.6104622000464,1066.11209946043,-17.3532626946972,1293.91627393825,-112.522078031352,333.956212010211,96.6311944783157,1489.70901716331,175.335083468052,1228.41353552282,-73.8219323783632
1291.97427245639,322.466024039817,1070.57308848193,195.215315292621,226.614638454894,10.7765990053265,998.651185927617,65.7739554243496,410.227499845563,15.9542020294985,296.1602870765,1.31841507896845,359.032837860925,2.52092030184151,675.441771794023,-29.5288196446453,1638.73740354223,-129.197180221864,180.259828957126,43.6274303156247,1067.26436792929,-18.2589676141634,1290.63650750642,-111.389768777002,334.753405889804,94.7037178871633,1490.40470449739,175.343969639434,1224.79292319026,-72.601800629535
1285.41503316891,335.41105944664,1081.33695238304,200.209719493859,238.662343162126,6.56700986877354,990.026935468162,69.8838510832626,415.3181335088,15.7485440297293,298.433732747064,-0.385271930503279,361.28259171411,2.16551556691448,678.879208077758,-30.796193993873,1674.43814023915,-141.415068965375,182.581564893449,43.0470747372658,1084.26743474477,-19.2079478189386,1303.41711431446,-111.224137783978,339.391052302992,93.6036501025023,1508.93198132655,172.015251017108,1244.91817709415,-76.6436046822855
1288.95871243671,322.80553439642,1062.87767829565,199.231202614433,219.396185588206,13.5263855907952,1005.08122043485,60.2953379326426,409.915528076874,15.1818551585924,296.916234248689,1.12378110143113,358.822646979494,2.33869308537954,676.60532408693,-30.6511918744079,1642.28730213823,-141.485627128289,180.356361537605,42.9721438377111,1055.40277995458,-13.7306889108103,1291.95739890252,-113.286814136446,330.878224121814,95.8499911366261,1488.46086791207,172.864517841206,1222.16836845033,-71.2195432558104
1266.55388422307,330.859179862364,1062.87790328504,199.327398796697,220.010898556148,11.7488338984675,991.284770535596,69.5042458960753,410.291982834697,15.7725866696893,294.214467353043,3.06362418324465,359.036289801287,2.397686809643,674.625782987654,-30.044421211911,1658.73211099971,-144.588110886595,179.940578722745,43.16803012682,1063.87802981894,-15.1414100604241,1295.54346288302,-114.928312233721,334.554814059152,94.2511199973331,1491.88799626092,175.012835991292,1226.84353810873,-74.0460364288441
1307.70778821827,316.295308364653,1071.767825121,211.232731459174,218.900797190398,16.5822713579075,1005.5334420589,66.0116589720668,417.304013873808,14.8536109695185,298.525955948364,0.912801480527746,362.387861972382,1.97623263984491,678.793225138411,-30.4034114704494,1674.61950844565,-147.944923542311,182.880762338572,43.3742217288483,1088.92919422921,-22.1131276342775,1308.64748916599,-112.570309601763,337.116644788661,94.9987315275209,1507.25417209883,175.74812455374,1240.7180915519,-75.9568310657326
1294.60484330953,316.692017033863,1059.92405587825,209.715363035289,219.192644607015,19.7180643495187,989.263399304027,73.4346135975911,409.818287891266,15.9654166748317,295.839776135594,2.00534773821137,358.183383096859,2.60883597747363,674.104803822083,-29.7079704000498,1654.2114570043,-135.701272092713,179.300539112758,43.3965574959713,1060.68378419381,-14.7951169090548,1285.60727314155,-110.388930241204,329.353406755416,96.4528407494678,1486.10861223527,176.90622344729,1222.71582410328,-74.1998786478753
1287.29804591373,318.643802121859,1050.30931695003,211.112435034154,224.327050053771,12.1429102283843,992.750320518758,73.4493831523537,411.968129681179,15.9827681551399,297.183542127003,1.14224085346292,359.619390647387,2.4953616534193,674.032712471817,-30.2168213670441,1659.08859763029,-141.423231631298,180.784827840947,43.2388634409124,1066.86703096895,-15.7114101099743,1293.37790968911,-109.708599520858,333.946793535682,94.287656828726,1495.93600410479,175.893367022087,1219.86608249855,-71.099670996392
1315.99003058334,315.739042452463,1076.02760188553,200.890144069734,228.788010569613,14.1464073226612,999.046667858899,75.0379270792971,420.053899687606,14.8938247299605,300.488937483428,-0.635171847227227,363.003841753708,1.96668124120586,679.370531145776,-30.6419649452059,1679.64643595405,-149.225495263702,183.579506496935,43.2949153998342,1082.11508222021,-19.0192873195704,1305.30749748925,-113.560678221779,334.903547373773,95.7100375082097,1500.07107515141,173.989853978185,1229.31221717457,-76.704675040073
1272.67124060412,330.50215207638,1063.30028802112,202.965739392281,218.786906057723,16.1879974212532,991.907480295867,67.9456976796887,411.737752481774,15.7450992004285,296.235514319384,0.541176754326108,359.427217957338,2.20870899290967,673.95486625527,-29.8929130712376,1665.97367542268,-149.398330488901,180.612540928374,43.1396821318926,1067.86432154578,-18.5218253085975,1291.25302397129,-110.337880971057,333.343277853817,95.0752488475681,1487.80871000035,176.327557102824,1215.93163526024,-70.3387686644656
1286.83912550395,330.142162002239,1065.80544893092,203.099418595987,231.509340162323,11.3668220037503,1009.18809191467,58.0631228912993,415.881138163084,15.2594966049319,297.959842055082,-0.210196237595238,361.136687825914,2.34819376862761,676.757463835993,-30.6780394026865,1660.80481768656,-141.067579030275,181.442411164387,43.2461400088678,1080.31896990456,-18.3073178589372,1304.86904691217,-114.59622833894,334.919323698523,95.2826854183988,1506.78422110231,170.466502999214,1226.02368972198,-70.6017617749044
1317.96451771685,318.458798025927,1073.92773988483,205.387351484254,232.542085855251,10.0957533757692,1000.39995400583,70.0455693744575,413.605029151721,15.8096656191078,299.475934512979,0.379457490255888,359.873474074659,2.65978449567812,676.831432904524,-30.5512064810437,1671.78536708062,-147.207761559763,180.389160435219,43.272638528004,1062.9557834312,-16.049462730843,1291.91703317889,-109.986792689592,330.60125482541,95.8948917879792,1486.57900781069,177.839547232368,1213.85611593251,-67.3689919877643
1302.31075490571,309.807417332947,1076.56690620236,197.94586208449,218.72247505299,13.6537415468569,995.122903854842,63.0401823747339,411.758416396946,16.040088816827,295.916982473255,1.4426692073696,358.452194464543,2.62936371364094,673.107403449977,-29.146063226827,1662.48585845294,-143.906279626297,180.310210935333,42.9863512364404,1063.65706072303,-16.5260351693741,1287.62018567821,-108.59898286623,332.136996213292,95.1959042508285,1489.26922706067,174.082144498631,1218.35231095652,-73.716150361371
1296.00374493709,318.419977139914,1083.14949978443,193.493757447204,222.010943750785,12.7500306423881,1003.59176422403,60.8688474709552,417.794517141163,15.0925112721104,299.993109694128,-1.02722825347682,361.090741633934,2.32171760788965,676.467162328525,-30.780224371638,1654.02862812146,-138.610735249695,182.8643844738,43.0913988983497,1082.49386116247,-18.0462149844798,1304.95241909484,-113.047708052568,335.448184708366,95.3986553655616,1498.74590665696,177.518169449732,1228.71275648118,-73.0703595007148
1270.41154849117,329.802513864791,1067.63466211972,201.393196256885,229.992142031815,8.34136971374059,997.353494843389,67.8783291329475,410.693779604424,15.9402831086384,297.424142672375,-0.451031870653848,357.080179539851,3.12327218139971,672.578600268345,-29.4625395365442,1640.66962763555,-136.641435971989,179.449651654678,43.3711812593586,1056.06429701209,-16.2467587436104,1279.02209113867,-106.492238825826,329.246385458615,95.8943143823427,1480.86136588025,174.941088547132,1208.62177595262,-70.1407484331158
1287.9548618751,320.370509283355,1049.78085750593,207.522767106869,229.590429502252,7.24497479093653,979.194962102355,74.6807401402067,411.309420361541,15.5525925740695,294.775996948782,0.433607364795001,358.632586443696,2.18402559397734,670.992581831818,-29.8174635659103,1646.40465715493,-135.048286186028,179.35710848864,43.2504001017122,1060.89572909488,-15.7393598304965,1287.62073700694,-108.971484464223,327.156633883277,97.5523498502251,1488.51166653556,173.690347159597,1210.44949886153,-66.8924318399592
1291.47778202938,328.063278844037,1078.18632778381,204.189391481188,221.536855170201,18.2026420735964,996.781239925623,77.9542478858211,418.67172365621,15.0902890654616,295.976870895645,1.51501756363409,360.595179931681,2.41522697301877,675.969075261557,-30.5245288220587,1671.93417511447,-145.18352282385,182.81274294341,43.2049653826307,1082.97441000572,-17.9540552000718,1307.61204785753,-111.90457991255,335.620984279017,94.894517230344,1502.78845119975,172.929126967071,1223.86623331013,-70.8427035725642
1265.33859277533,329.663971146574,1057.16035740292,209.720737070833,224.421409287811,9.49297872369896,991.694238765837,67.2758648008723,409.516194690021,16.0291416542818,293.394350731177,0.924276634876295,355.606850860279,3.40840883344704,667.390916700374,-28.3773051514929,1617.53909611364,-128.045405781689,178.699546220268,42.9534434916002,1054.31295723635,-15.6149169293702,1281.76939690337,-107.873738793051,328.466651193031,95.0607915602173,1480.19615893592,174.08768405426,1207.22726452038,-71.3549212011939
1289.73593352355,313.830271501709,1070.54791758349,196.888324845524,219.713903520275,11.9476704660282,993.723896696774,62.588286754364,412.618175077895,15.7228768612768,295.053079736062,0.204453635991903,358.241055674281,2.52859904830094,668.660790936649,-29.3805275686865,1629.28300005227,-128.909126501994,179.447134066323,43.1563999424765,1063.70804592383,-16.1644036676447,1289.71200003867,-109.084720823539,330.210512951618,95.341910021835,1484.76082701883,176.53532634621,1207.20437469208,-66.7418753414619
1287.38570080893,325.837441990932,1088.73231830054,193.41084888363,230.322923079061,10.8136332726258,1002.60736142619,66.7492388116419,414.860316638143,15.4158447934855,295.749059151196,0.0575429676342358,358.638424325074,2.26118306279516,671.27750156923,-29.607817864026,1646.03737491654,-132.765319290984,178.977180789921,43.4354322064927,1051.50028981327,-12.4255295665057,1285.14552890098,-111.424146406743,326.200655325838,96.4969644489107,1476.21136747855,178.021842766255,1206.03654657466,-67.9575971932456
1291.50265483022,312.935477148046,1060.57232500678,201.452432797683,223.999081806998,12.5934952868449,986.996165790525,64.4802079818083,408.409009064123,16.5980682738809,292.110094970183,0.847694074726648,355.454944658319,3.07861509831362,665.341059191358,-28.2478110351394,1639.59440792232,-140.622705612898,178.120898463614,42.9941423202175,1049.5675501412,-13.8139501643051,1280.96914820269,-110.058982216887,327.935297777169,93.5019748832545,1477.95487654598,176.209402671026,1195.59721860543,-63.259351958139
1270.01427641161,328.971987929932,1059.19695837965,204.326647532099,221.80936054475,13.4953237152026,984.003258972966,70.4255379504002,413.448510804851,15.3765188250494,292.160540459388,1.84069998037151,357.276869318898,3.18705278418176,668.509063645501,-29.6113706680302,1637.53804210243,-136.535290527008,180.216730728827,42.9684173471258,1063.78210485205,-13.1312966540589,1296.02996450004,-112.375672330048,331.927933586909,94.2919762977793,1483.39994714156,179.733241607108,1203.72759767143,-63.6193319635122
1275.97791244933,323.847858722434,1051.2349978557,206.403215323022,216.682975556632,15.6218881101419,977.543488859162,61.4569226100047,407.500303252443,15.9823801551324,290.203039571443,1.80758343452367,354.292579716326,3.47711782704843,663.957240968334,-28.3046768942878,1639.82025705212,-140.465279990639,176.863054081683,43.0684240082347,1040.5083394266,-11.8893213313586,1271.28338249047,-105.713855486013,324.513778425868,93.8788173362358,1465.66272194916,177.741487240296,1191.29345025221,-63.5025759186393
1269.88215931609,324.346863776766,1043.75202347253,206.322705514777,218.026253729296,14.9541101325584,962.880691157388,69.7506638177795,407.372194571506,16.0879690538758,291.465320541213,0.994808713519882,353.477132239497,3.58375893382351,661.342119107169,-28.5238960805461,1619.2396853125,-125.436930935187,176.541507470757,43.1838083393535,1041.49368895349,-12.2799311073438,1275.94672671303,-108.067578185259,323.555676129859,95.5442627289622,1471.64670636957,176.517216775112,1196.12248120478,-65.39395458114
1277.54290032806,316.247908808161,1059.58628876257,205.020585383847,217.332537478905,14.5018719305766,973.447894601222,78.1564294870938,413.299613972394,15.7272059379595,292.285685771825,0.826878827633166,356.427119031341,3.16379323348509,665.350986712787,-28.6883560050263,1631.70592346817,-131.104168883358,179.719315428112,43.3711918932309,1062.63083457576,-16.6966180092377,1293.25291901915,-110.916266337422,329.972515736544,94.4698416633783,1488.66506136097,174.044495617526,1202.97304537651,-64.514153849674
1262.45138674358,322.335752704536,1050.53120168439,201.762083145265,224.297363575459,8.49372609468834,976.181515500578,63.3107386588422,404.292029441792,16.7971433613651,291.475166185586,0.757384774633968,352.006657598547,3.30736305214938,659.546150910902,-27.7746601587878,1611.21423170047,-130.687873348929,175.537053487553,43.0269189139658,1033.27505425922,-10.3023818720023,1267.54267668244,-106.932922531663,319.201013611742,95.4718322261914,1459.88258285971,177.255812632762,1183.09263999497,-59.4435882533905
1257.19316568754,326.414469754133,1051.68497831716,202.342345704321,219.731509152058,14.2024995360862,966.613152696067,72.1491272669524,405.879105714124,16.3104454770208,288.141805079878,2.45726476358563,352.294852203261,3.75397805448005,658.350230697591,-27.5599759100735,1614.43998484613,-128.029959618011,176.036129913641,43.6043619019661,1041.44065097861,-10.7594314245842,1274.72492137877,-108.515832735448,320.933160246045,95.7900217735275,1468.07574073232,175.919787155395,1191.62378726044,-61.9281727697652
1278.66706812094,321.202808693361,1065.3743841508,195.975078819251,224.403925011946,13.354020621217,981.830983242901,66.9713185906005,413.546631453274,16.3190392818255,292.208617757762,1.56250119686166,356.798947225813,2.70539999058886,664.879700494124,-28.8513618156344,1637.80369268461,-127.970175113641,180.036990786004,43.4207830930676,1063.30787531966,-15.503310287513,1291.53759550676,-111.439257512796,327.580770515484,94.4100798375369,1478.56403791617,177.482730711243,1197.48673665871,-61.2217885439155
1266.99976878378,317.17762335429,1034.97012055234,209.030202997525,211.818222224426,18.1357254525727,976.65411133045,68.0741528222306,402.465108491756,16.9324964686965,288.194725769562,1.54024618361168,351.269578744965,3.89865652249821,657.364747564396,-27.4020176441873,1604.81519077865,-121.153715776627,174.776769288757,43.3504591141924,1038.37022212225,-14.6976321615552,1266.93314069116,-105.602123956935,321.328081851704,95.5625698438501,1459.43681516505,178.260965779814,1186.51189596703,-61.5418370960335
1235.68578745363,338.977863099032,1058.76051582992,201.287823256445,214.923877269782,12.4122162592066,966.572689903526,74.3823445489514,405.730755577222,16.8405050206735,289.152099878837,1.60601446217635,352.435516989796,3.88988057854737,657.056707460042,-26.5164265771301,1618.98972651802,-134.909573889109,176.444289719892,43.6108084825549,1042.96647394407,-11.6016719530821,1278.84939803822,-107.265959949798,319.890128590151,97.7355264800869,1473.48373779384,176.515410487318,1193.95639640811,-64.2836183947439
1289.87216834917,319.784726317969,1063.52541504017,209.503127307459,230.286790750551,7.05950772417347,987.158955828127,71.2028365148243,412.772549570669,16.0987485284347,292.629909986312,0.727434688063981,355.181704124675,3.22197114887822,663.713970656831,-28.346053018772,1627.39391940064,-135.061057215439,177.84132280327,43.2250167758513,1046.16176709581,-14.0668170745381,1281.12500124517,-110.46067932372,319.671044622047,96.7807521273318,1467.38500217351,179.968913423172,1190.05042027289,-60.3397942861638
1256.71428081526,333.05522727317,1034.54321232743,211.330442410492,222.136587181594,9.65747432221249,957.258258725983,73.9953079782447,405.328186368465,16.6545349538227,289.576461032876,1.60514021153575,352.862873700369,2.75578027828343,658.447097868773,-27.0739637741614,1615.64795684442,-133.566211130574,176.070949045222,43.5586136199833,1038.03481977727,-9.74904347968023,1275.75041408549,-106.770288638386,320.980945811395,95.9396730312074,1464.1733747826,181.174490516305,1187.51212305061,-60.3230915498196
1267.13734352358,321.665238145573,1048.35053312652,206.634111592103,224.739302224214,8.39181585851171,969.132109373375,67.7888152970443,408.864589685966,16.6010097665591,290.98293159849,1.29177983268502,354.355517898291,2.8900250089244,662.581315777931,-28.3130662015481,1622.96071113573,-128.579281933821,178.169719133064,43.1130118348191,1052.00666605402,-9.86649061722174,1289.95627914511,-109.158025798399,325.160078413316,96.3552678728358,1484.62700431424,177.78374263313,1201.59209769012,-61.5033973868571
1283.8917167531,319.439254900321,1050.68275421132,212.046609025082,222.022845164958,14.9446653463109,981.276086382031,70.5040641457535,406.835425496143,15.9655952693538,291.613398159924,1.74228510042176,354.164293324297,3.06010479858738,663.704691927038,-28.4721775609212,1632.70420274506,-137.73049420694,175.917151998981,43.6988953907975,1038.67809326419,-11.286803686803,1274.83433306089,-106.659129987887,320.326404978373,96.6190232971879,1471.8107574301,176.942247898147,1192.66201655869,-61.4518024595297
1274.02263398694,321.159545281564,1045.6630336838,203.782261404383,233.88918360299,4.09900391927502,969.839909537843,74.7040618517708,404.576595774728,16.7775085978082,290.862262650311,1.1166015131428,352.776433199129,3.39975613334966,661.023782082475,-27.930920549729,1624.54883492339,-128.174047626316,176.36049321921,43.2757605238481,1039.16318338793,-10.8328012103871,1274.83922198156,-105.18996621834,322.87189489549,95.0127162052761,1474.6174342936,177.728328508805,1190.71600404174,-60.0193155726216
1278.74751929877,320.832084403686,1055.80070869173,207.234366097613,223.969812559903,10.74156165382,991.716456115045,57.9104414607435,410.796207429205,16.2363601066462,293.554470683159,1.27497472132517,356.119371543887,2.47399166003253,665.213069255328,-28.2333596026738,1623.84798301802,-123.255042508863,178.694367660786,43.4438719564806,1056.49533268045,-11.8221292607438,1296.6166414073,-111.347286198764,327.151975464101,96.2889669110383,1492.25499890722,177.156530426908,1206.8086046257,-62.5433371878583
1273.04351719896,321.727414244415,1057.09909406551,206.16034976291,218.542883015825,19.7335787445492,980.624931434816,73.9453781963194,404.581425052404,16.5889359588761,293.616861963906,1.53571821098604,353.636131239739,3.09820160045005,665.954097349127,-28.7497123575857,1623.7793103886,-130.121743997511,175.627737258305,43.5552257773315,1034.318143368,-9.37114713013196,1276.52282564399,-108.341585080648,321.459580412261,96.8603204048798,1473.25877868157,175.040368022393,1192.02912451439,-60.3175663856096
1263.63130521655,332.935736382521,1058.18793291624,203.579703893303,220.529591187872,14.1659586057911,987.140670612368,64.506736752173,404.619667336547,16.5362464849105,292.006782905462,1.58762890064889,353.531185461233,3.51878897332335,664.856388439365,-27.9666836256153,1621.40224831831,-134.276636523037,176.484993718208,43.5575131505312,1040.47669151088,-10.7011120854218,1284.20360268053,-109.327466788944,323.636589531942,96.827790937556,1481.87407473324,173.97331859441,1193.4039646076,-60.7683440328806
1299.74706479166,318.438158546061,1067.33877508507,196.253126587929,229.558657461583,7.64266628172969,1000.79108193325,57.4508963123025,411.950145000128,16.290211944654,296.926915765618,-0.799565176536326,357.129831047376,2.62241979502429,669.78198521693,-28.6678427200189,1635.45261656326,-133.660877572707,179.57001704973,43.4505991077002,1066.00938282882,-14.4959970447466,1298.29408825791,-110.141378157663,328.878289292329,97.338395376623,1495.09092476642,176.58024079128,1213.73870249681,-63.0562922360725
1273.02260636334,325.990670832819,1054.16727448928,200.332030973524,226.106607119097,10.2208860294203,986.640499369042,69.6281887297008,404.335486107933,16.7104516717019,294.109943823667,1.34214214300355,353.639481558455,3.51526452631198,667.459327400224,-27.9885542289907,1632.63762750472,-137.076912210555,176.700074768504,43.523350063432,1034.67938357638,-8.38161907687387,1280.42605889583,-108.605564143391,322.763240040746,95.448214760296,1482.49601358943,170.94815571515,1198.43705645496,-61.3651899250629
1282.31090456762,321.81629489964,1069.96959008903,198.855200151292,219.183191916498,18.8061985413141,992.108755673476,70.7609610750482,406.476442103269,16.7421316132856,294.17322558289,0.709047202287187,354.831166273159,3.39631566666316,668.850096756537,-29.0068003991106,1630.74299429036,-138.304864049479,177.261198972435,43.7315083865103,1049.35206001975,-11.4783053232765,1287.48390230448,-107.756939554953,326.885502447815,96.0088815694303,1490.68079798149,173.99691747821,1206.74538912165,-62.4504632118207
1284.33551423767,322.787982975055,1061.55629095902,209.848544457615,234.702159661986,6.69072165746533,989.561188614812,67.2956422199671,413.861754011061,16.3988025946854,295.233412923025,1.14532692187727,358.411600153257,2.84786524985012,673.942031776707,-29.6149957278333,1628.14864034277,-126.540544406348,180.186262214337,43.9168216072485,1069.56443703505,-13.89323693092,1305.18477259502,-111.319729865379,330.013657237475,97.0338391320818,1507.59114677108,171.811995445263,1206.34169471883,-57.3459150914641
1290.62641463881,314.73105592291,1061.63201620059,205.342418715082,221.96149410144,18.9385313771582,1000.1265297831,52.0329722553614,405.794062198322,16.4848584333173,295.567849926179,1.17337413960364,354.466189678932,3.76688648480748,669.730873089783,-28.2676273925157,1640.02331100621,-134.673446680508,178.053511985625,43.3932419091185,1045.98452225519,-10.009478992858,1289.69861305139,-109.280262467918,327.145291307776,95.903115879885,1487.33803199961,177.738350607205,1207.61728288762,-64.3702085416272
1291.49730715681,316.09557599499,1068.57379081894,201.598874292384,224.631423407966,8.91810899829823,998.870447930065,63.2785189311941,409.636264463423,16.1848894380451,294.604717769992,1.94939526960262,356.864666901577,3.06324888016621,671.80037781762,-29.2547896632279,1632.73121566164,-133.736433866514,178.720723053454,43.9687277192875,1057.61310850282,-12.5825937171092,1300.66129475491,-112.198866108864,330.505943237289,95.8678665100912,1495.14840872999,176.709513927946,1222.13102489663,-67.9566815867728
1304.09942801401,326.179793624228,1071.79775049664,204.172483887225,235.391555762271,6.66508127681462,1012.95971063405,65.1998969074656,415.161783678813,15.1872176295326,298.585585674666,0.772152533498296,358.707316259452,2.71315835475888,675.095791522019,-29.1644603712454,1651.96848352903,-138.204529410052,179.204462785387,43.4986017706122,1049.23747342143,-11.1772952488993,1291.05709975434,-108.286910401123,325.725082038787,96.8317585750214,1490.44954381837,175.528152559751,1213.0444315984,-64.3555250282406
1284.55917631643,322.670046424559,1069.69888525516,201.191612327164,227.054131951417,11.4970312470054,991.381479502243,72.3552020806786,407.31938446035,16.563742134073,298.233893533809,-0.80428728454514,356.234203219028,2.89967920166244,672.129802301081,-29.3177830867958,1623.16160970386,-120.044745622769,177.380724738743,43.9430512802797,1047.98119564467,-11.1621799611357,1284.06970630997,-107.436208376927,327.8133051125,95.5126798507125,1485.9354805523,177.44493574337,1211.03688671704,-63.4268958351127
1273.07478046119,341.284947367286,1064.96128655172,202.571950357321,227.803658404132,11.2156469575765,999.772241172616,64.7988437145931,411.841572302254,15.996243179997,296.555030701302,0.348153373530189,357.670677247542,3.01652828052572,672.766731781534,-28.9972754488206,1644.26200332705,-140.255112616785,179.138734787936,44.092396109597,1064.70755473375,-14.4936456407729,1304.10333243532,-111.362477311215,329.423202398046,97.5837512189923,1499.59160762593,176.162042160035,1219.60462491134,-65.149394447421
1297.47348916472,329.611686715271,1065.59096684288,209.04488128773,229.108203199747,10.6168486878731,1007.79102446234,66.336860744551,408.347989734423,16.4538489710157,297.042393285638,-0.73982471609596,357.180395655524,2.44824296522568,672.675641600542,-29.3783124512859,1634.90529757494,-132.788931541472,177.73797127126,43.4819245868737,1043.72905912983,-9.13558891847677,1283.91332990551,-107.468691247634,324.897925706278,96.5902973096969,1492.05185337284,171.296833701473,1212.68835855986,-64.8179640935814
1283.01780615024,331.178577161638,1065.63862279062,203.491723468909,228.854749340041,7.17813272566583,986.452979007084,66.5322823689403,406.648519130468,16.5991665620259,293.079806383056,0.834129399343521,355.78584446341,2.5863096186393,668.805910677649,-28.4656729030298,1621.12281571464,-134.346527399022,176.911494800148,43.6966434638389,1045.03025531162,-12.1701964104502,1285.02965366852,-109.243852184158,324.729069987359,95.8127965331342,1483.29772317963,176.069111315345,1211.59296350397,-63.8854826369922
1300.77424506758,314.934865517829,1072.71908452153,199.264923198855,226.6929833126,12.5732351575279,999.245864675087,70.8235568749905,411.533387468172,16.4051461085118,295.01209919773,1.09251974580302,357.846791634314,2.51450535020627,670.630305025078,-29.1098189000529,1637.02067875535,-132.742088683293,179.429881666438,43.601345426855,1064.15169647382,-13.7714541140445,1299.61094241101,-109.772584706042,328.363895172716,97.6851529182906,1501.82722693909,175.326899059275,1224.80407396126,-67.7690386856723
1289.16418370034,314.778449360845,1066.38638728733,197.650359412751,222.926475209294,15.8883891223891,971.830487339845,82.9891434999421,406.584831963978,16.0310031272623,295.52071218747,0.184650330273245,354.904143806717,3.34372735081618,668.908494367732,-28.4154635752824,1623.264913443,-120.810984296469,176.667735243267,43.2493904291698,1040.49037197874,-10.8303854219177,1284.56498917803,-110.185216202661,322.633782875099,96.798533892133,1476.28888016738,176.286529658018,1208.32202375062,-64.4315923255826
1267.92750515049,322.07538429955,1051.09203337924,211.150726637314,225.424084606017,7.9942546703265,989.052270743269,63.393891522054,405.808955825371,16.7154765853622,291.019485580691,2.76067399360654,354.658715708018,3.00676420444048,665.182586725939,-28.0675423598258,1617.62990208816,-128.548612605589,176.502957316925,43.3583243624123,1043.27038159473,-9.47667217691701,1279.40151300612,-106.652783814852,323.221398381102,96.627258119843,1478.09530708002,177.106781465526,1210.52608169923,-64.5692355288966
1274.37227067815,328.474129765163,1054.43674049582,210.121662270728,221.025844264722,10.3540201696497,991.366223646513,57.9277511196004,412.180030696501,16.2314461669866,295.54438513306,0.720902288987971,357.213587461087,2.70776561818215,668.811412321438,-28.7189921911436,1641.85830940142,-136.210532819006,179.335525561504,43.6462808992648,1067.58223345366,-16.0917932535883,1304.28665135207,-115.082691268902,326.611158404105,97.3306623877318,1491.96923403127,177.54247746874,1215.86645130736,-61.4835670137313
1267.86895063928,336.158818751249,1072.73235743772,194.381351176756,225.021113239954,14.7623926196541,994.72587594648,66.4320839019472,405.997168630424,16.7122185304852,290.047928778442,1.66680791464528,354.889760201997,3.0600412680169,666.047389766901,-28.2176154730644,1627.47353835792,-128.768142521765,175.732705482462,43.6912823562156,1041.52936687288,-10.9689205366057,1277.65700478712,-106.550730056297,320.824113604795,97.3141703676678,1478.63381545536,176.091214652924,1207.50956481982,-64.1366900554288
1292.28248875402,310.804970136111,1059.48375326625,203.019863170154,221.591229614544,12.7983223751708,971.135527948327,78.1523261992115,405.886430996121,16.4692296403229,291.42036517071,2.11722573593742,354.732967190384,2.60104952897413,663.865973392539,-27.9444206596182,1624.80615894063,-130.675663986535,175.779961293075,43.645713486745,1044.02031634584,-11.3656274330024,1290.35498460246,-111.481340059043,324.437205844745,96.553727372801,1482.61268400903,173.777205982869,1210.28413518338,-66.180089775583
1264.648843453,330.409105590126,1058.67113618074,203.808341921084,219.677582731137,18.0887920394974,993.098926636185,58.2811772911439,412.59963195495,15.8721243497631,290.387712847322,3.15010315801915,357.60771525661,2.38207819373964,666.611015063053,-28.2742353898328,1638.49623859741,-136.928460646045,178.329158871867,43.9227776663942,1062.99223711527,-12.558651132342,1301.71229764095,-110.656515872228,327.948944587009,96.0754679234958,1501.63282132004,173.672849514568,1221.59953233996,-64.6796549738831
1260.83880525945,329.382159237978,1054.38273929627,201.575718971689,224.88617338658,13.620539082683,971.597238615503,70.1431395335007,407.413905559356,15.6476651184278,291.146976099869,1.69616084248715,354.976111149671,2.55409525680626,663.939335206975,-27.4370276237835,1635.41583945793,-134.631131367343,176.566282440963,43.3849553959572,1047.54981014018,-12.7061884324151,1285.95765380602,-109.743448451088,320.730524151246,97.2020351793304,1480.0786506063,177.470937276649,1211.70514693519,-63.6252036783759
1273.0445689019,325.270849767025,1049.10649078199,206.434901375607,223.530033988467,12.1454800224254,969.009155964413,70.1651526560018,408.287805212779,16.045699138791,291.607389079713,1.28312242086336,355.578445584226,2.65686890602222,663.563516921856,-28.1800018307333,1619.56046446812,-123.219723552683,177.213751670321,43.1915083535575,1052.86031042831,-12.8637386631293,1292.33375324275,-111.70444568247,325.250393339912,95.6012409527792,1483.31280749856,178.170272383678,1214.13177961561,-62.4147374260223
1276.01713970272,334.618818004277,1058.15306241509,206.806746014728,226.641851952869,11.7368777843925,978.492424229997,77.6698422051538,415.157780985664,15.8759978059168,295.148242108577,1.175173954202,359.739866667431,1.41528933171467,668.471036525494,-28.6586945905373,1647.64378743322,-139.216275580529,180.333507519172,43.3998831713695,1076.32029171036,-16.3167303066008,1311.74130447603,-115.250267536945,331.394986905926,95.7525299054493,1505.22620714751,174.519703312931,1236.87899031745,-70.360188784459
1257.03998203233,326.007362710199,1048.40635241622,210.779343607645,221.045640797755,14.9986391792513,967.85941729302,76.5529554576757,406.014843685834,16.6117229839136,290.522012891697,2.43292172593946,354.690831889216,2.59452005871411,663.390743714123,-27.5488474263723,1627.83257449065,-135.414099251453,176.302751543432,43.4161729004273,1046.66852724166,-10.8371670271446,1286.07990481116,-109.875499693879,323.078752736464,96.4454105046944,1483.13189809054,175.260280762497,1216.24592436894,-64.9501269078523
1282.58792040207,312.310330557957,1060.30774313987,199.757780467175,213.85064910371,16.6768395520084,965.985390173754,81.9923297462664,409.73163332745,15.4732597967063,291.819554213562,1.02821988333024,357.152599973018,1.75097586808669,664.721323695384,-27.6434883445802,1633.58622768674,-136.70899658196,177.769843260578,43.2113517046097,1059.8590745452,-14.4377507660047,1298.77295956916,-113.425435460963,324.195899513175,96.9513299442914,1492.0165770883,172.56808539817,1220.26445465091,-65.6284142596209
1273.59466929805,336.899187971777,1054.85694506632,213.520623167092,221.353976828749,16.8224793433983,999.581668712398,61.3986290435499,417.658066950859,15.3258983209061,295.914473957605,0.525427628271659,360.353270908525,1.4417815795928,669.837824874681,-28.7102541474043,1640.31049197208,-135.058219161391,180.935710180962,43.494346585709,1076.21973548451,-15.0503512052286,1314.98216897364,-113.581638259738,330.663119919205,96.7693375781846,1511.48253387694,171.693522626229,1233.7003868909,-65.6278746731716
1277.22975335256,323.612893887272,1045.10771766819,203.763503755417,222.093879008472,13.4669719072413,970.977234070266,69.7997449506209,406.854582128081,15.8635619012486,292.75163707068,0.909193726722599,355.907656255961,1.4455825072842,664.100644822245,-27.9083677425456,1622.10509767152,-131.559450351892,176.740622039901,43.026702964559,1045.76717392414,-12.0099555014344,1287.85719251435,-110.452714727743,321.414321696352,97.8610356067261,1486.80462062165,173.979592952828,1220.06389514674,-66.3981295322939
1282.32792915855,312.444451372195,1045.4274295381,209.262952660557,221.3323748817,15.5542676284223,977.426319497332,74.5533094979687,409.779089562017,15.762996280185,289.60030609616,2.39571315685609,357.400111705376,1.59227595777288,664.200281980831,-27.3816033359912,1615.82749989183,-123.268771814473,177.675157745545,42.960333968192,1059.54413905877,-13.8824612038252,1297.00436546496,-112.070717157664,324.955071475905,96.3993918005926,1493.91592200639,174.664572236047,1225.3446467116,-67.1987641136723
1293.24271179983,325.771318516217,1083.9989171045,195.330502293665,222.20745249738,10.2740388426242,979.414990677001,84.0712698591863,417.594093400554,14.9344911116341,297.187563756919,0.502199586245632,360.85565898966,1.56934878375159,670.710364025027,-28.8801921521032,1665.97814022862,-144.438383972349,181.265844903481,43.1753955830415,1074.40792004153,-16.0821515612093,1315.8208669307,-116.593906728986,328.701645195588,95.5334335764348,1506.7636923671,169.84983279645,1233.34177090615,-68.2154802235466
1273.12347656716,322.870943812843,1058.21597272717,202.326188538745,224.934314793209,9.33804439063373,964.568696200482,78.6581335743069,406.389699114715,16.3332834901127,293.377683682573,1.53351644207019,355.727747850788,2.3889779408867,665.18671444616,-28.2382607271539,1633.57443499275,-136.376675504819,177.082783268457,43.0376048649811,1055.17249106137,-15.5093498728434,1292.77252802869,-110.280198269409,320.346420634027,98.4899849132525,1486.36478041808,174.423302429648,1220.21330167732,-65.8582102389639
1273.41206121554,327.733822863273,1051.1091605702,197.150214613888,230.531927342674,8.46384510064325,970.172962099006,77.6291137270178,410.976454635004,15.8646890917131,292.946052325203,1.73755187452755,357.972090240874,2.11846204527174,665.404200943811,-27.7383962002494,1647.45926121276,-140.952434298497,178.608627173727,43.048324626257,1061.6750329524,-13.1691442350599,1299.36326231177,-111.007541896155,326.473066747905,96.8946259253653,1493.47813445024,176.44369307969,1230.20280772979,-66.3104460489388
1283.2592302511,338.492423112716,1084.15072244539,193.546085149722,231.21704233378,10.6242548614932,1001.6506542773,67.546043227454,419.690751961271,14.3265035524164,297.380125078399,0.0640963196481173,362.11065532611,1.58332878121155,673.099258689061,-29.6012665806945,1661.73402030153,-135.69118368076,182.01173887729,43.0718407532061,1072.40711960588,-16.2439459174178,1311.0135193778,-112.143732143463,329.216045086974,96.2840851050604,1505.09352971402,171.493275895685,1237.32854369286,-71.0811964427316
1265.8828543003,329.078025246274,1053.75728734212,207.76124028192,223.333075373817,10.1536127191707,977.701378284981,70.5804614840114,409.693332687888,15.6135895562777,292.034720727472,1.72927952638984,357.564562713763,1.79756667995234,667.554397659663,-28.296505990405,1638.57991025054,-132.20834808384,177.256807401303,43.5349164445416,1058.05276035553,-13.4413630241952,1298.69510274906,-113.30920555167,328.328851513669,95.3140381563236,1487.70832532272,175.374250013187,1226.53334850922,-65.7990049039421
1267.0877708867,331.841218497111,1069.29364045369,199.718932094567,223.450191942465,11.2380533408056,977.757001990288,66.1175080507309,412.653578805243,15.8467151208799,293.059399944884,2.7313582679196,358.507426884559,2.23573211641299,668.776023405165,-28.6470794026804,1634.02743383113,-130.612085289973,179.641676075828,43.169964128263,1068.9690455441,-15.3501802122442,1308.84983454354,-115.32230305875,331.030428238445,95.108363483198,1507.29035606006,169.457859334116,1233.13760247785,-65.2158707212701
1284.65099849751,330.461455965879,1053.18027036775,210.537645844321,220.689113496157,16.8368507012909,994.820697000028,71.4738499564554,415.092427507743,15.1272570408793,293.919074173969,2.45788308905705,360.982852563172,1.23436626425902,671.761891341597,-29.0604289257999,1660.20640414688,-144.976090235993,179.270741797381,43.2403058302586,1060.52882425182,-14.8155704021113,1301.05325753517,-113.974345705683,325.400592400059,97.489031580098,1494.2060856778,175.89856607267,1226.59060256988,-67.0482462223342
1282.87876881238,320.891244053808,1064.5355346098,201.969241447363,214.642881798802,15.1096753568592,981.235528485143,70.4475059971142,411.156849902477,15.4426928670908,294.626436383758,0.927377883480298,358.278305420048,2.34512930475937,667.574184449421,-27.6964207616285,1644.31843271018,-141.594370951366,179.096809530286,42.8583723105589,1061.22251561625,-15.1159918834751,1304.72388330337,-114.634911568974,327.739790429618,95.0179315777367,1494.61954214141,172.800836844172,1227.40897808209,-66.7680315775721
1290.6875489785,322.610057143398,1070.86186475546,201.173087848012,232.37926161543,11.9617268315295,1003.3273766282,60.759495001925,415.681850452687,15.0379657784321,295.023181869344,1.36084584709714,361.146391152595,1.44543090643796,670.89380898892,-29.2973709599069,1641.0517979497,-129.817428873637,180.720420499544,43.2255621026363,1075.72215795132,-14.9083297385959,1321.51496388472,-118.16655754577,333.840322730885,94.8935181290924,1509.07724638237,171.894497060019,1245.6681862859,-72.3209515937612
1274.03027516755,330.299803683576,1066.30458023132,205.49805344445,221.497505853858,11.9818729743912,979.510193795149,77.492101141008,409.593327924517,15.3631733153038,293.238127987146,1.95266777640253,358.351143573533,2.10476289110603,667.924321562095,-27.8156758222672,1654.25027977488,-143.762074024974,178.703388031108,42.7537358250455,1057.92790022004,-15.9619514156945,1296.39060876754,-110.195212906538,326.175364337949,95.1120201572483,1490.76135367135,173.171722476758,1229.17718935272,-69.348801376328
1259.57005572329,331.545185928421,1039.59190742642,216.106507288389,231.156685785087,8.63131613088169,981.254270123858,63.5964623889229,408.947979236535,16.0130177045666,292.983555595219,0.751448037647598,357.809151227344,1.71629962848283,665.474315244537,-27.8802335157178,1635.61350850272,-134.908472790845,178.353558689965,42.9386694983413,1057.81223898512,-15.1353300635485,1302.33545600762,-114.783905600134,326.487835637949,94.3472903422037,1488.08012615204,177.163298476684,1230.02168765672,-68.8717994164174
1277.12760598376,326.524569112643,1074.52861527314,187.915414506026,226.426614533705,8.83513116451734,984.411678595705,68.6777415447804,414.008479150489,15.6956416056542,292.290921594556,3.66239243905091,360.622637124399,1.24647388220271,668.623971202865,-28.6609797824298,1667.20272821448,-152.837488831696,180.413545856689,43.1691693144739,1079.75390575766,-18.1453034082114,1319.03194200441,-118.111113657973,332.404010100438,95.2705032782077,1510.23636732079,170.65516491253,1241.65613993239,-69.0200451964833
1250.64703797875,340.301749379248,1052.00794857105,201.316476988467,221.73490557114,19.3647382906656,975.316663919263,67.8166746378746,406.606511381235,16.2573161970031,291.966786719045,2.61988329353853,357.254455924507,1.62622418611877,664.915241425691,-27.8860281581351,1630.74879013808,-131.521384208996,177.4956722522,42.5910334887932,1049.10429167207,-12.2885826027102,1295.42508288779,-113.579075324403,326.795064272856,94.6273170071613,1483.59494602581,175.504642147189,1224.93273697487,-69.7420961618323
1255.28992129869,333.05011941094,1054.25266838152,201.92641583213,211.9358757214,17.4932091849307,984.462505218853,62.3429400782247,406.952831151882,16.0653505348148,292.040705271366,1.08509000509366,356.519093699658,1.78637711965119,661.87745440935,-27.2451143129667,1630.06558129909,-134.401546179064,178.178574623833,42.3747318008347,1054.30840592831,-14.4195064374157,1300.90419719427,-113.800291103865,327.671207256631,95.4020825842285,1490.02977391061,173.739207585758,1228.00961394543,-66.7383511246311
1276.32317627113,328.531827306717,1066.85744286642,199.127052781656,223.854027099245,13.173650765862,995.332739469505,63.9599293312349,413.794789915933,15.3281017137808,295.134488240994,0.567485305823749,359.085098042739,2.20528297738295,667.405020416121,-28.4144541754034,1652.55609479443,-134.973443361134,181.369162897893,42.5340443857914,1078.8817906314,-16.6228571218709,1319.74276497074,-117.207449855738,332.812391997249,94.7224893923496,1510.86878314315,171.998848613251,1243.05286464226,-68.8384368913382
1270.91575871998,326.192850851993,1047.33899969638,203.44895322455,210.064474022156,21.521444511479,977.268444879743,72.1714520245272,406.270720365705,15.9200225825957,289.142335322332,3.50125942962895,356.63499581856,2.03848605496564,662.698311915068,-27.7326130096946,1631.63757279988,-141.971103276871,176.904357781317,42.8179507806118,1050.24480470555,-13.192384526534,1296.42533548185,-111.179208320641,327.826706512388,93.3032400368293,1491.20839546653,170.614177880513,1226.05419188147,-65.2831097720688
1250.66340733564,332.164670813542,1019.88615625703,226.059785675297,226.22267982109,8.90084537573664,970.726930053631,73.2500201790222,407.261245530368,16.4075755393389,292.626334162218,1.39463588023231,356.716314610634,1.8702598310449,661.737825023875,-27.8660773777063,1629.49982937422,-125.128138082977,177.849132444518,42.3818169590886,1059.79838826759,-15.9913084625683,1302.22081299383,-112.491759156226,327.521158842505,94.9338420017235,1497.08692195717,170.4127384266,1229.80542271909,-66.9645612070666
1259.40924256712,341.024501460575,1062.037792952,203.406826840514,220.39985610561,12.6905186086919,984.336707071382,63.873876035875,413.916371264291,15.8555734091753,291.961477364331,2.91901684140966,359.811737891087,1.63020861627329,666.3733905961,-28.2493472206927,1650.65711189557,-135.851287858173,180.767377067538,42.7008663932408,1081.12939975242,-15.9549809949431,1327.75046763017,-117.960086699733,334.572520384502,94.3736978029102,1512.78066685509,171.851069969388,1235.30946778969,-68.1886320283528
1256.61683687206,328.193106697224,1046.54367743368,202.437993742751,226.515512003632,8.95254491828925,963.849475996235,78.9314130481151,406.278025247027,16.5195112238694,290.655048242402,1.69135919883678,356.372632149385,1.95580333516233,663.302196566434,-28.217587388735,1633.72040277036,-134.377839212745,177.237081977168,42.701268026418,1055.3678392194,-14.0521173179164,1301.78864513079,-111.909277353052,324.867344244382,94.8951597054175,1493.94714642287,171.792819850349,1222.9862422248,-66.0620414188794
1266.15577973419,325.423329878797,1038.7145389389,215.142439981285,209.646230392768,17.1136932083412,960.471588258647,73.2531735364217,408.692099284704,15.9495959268091,292.430764118597,0.802796632682425,357.182538746163,1.62879349326623,661.419122123081,-27.2633004159193,1640.64622516245,-136.389176284093,178.441926108852,42.2688841445318,1063.42182761655,-12.9059545723397,1312.25573241097,-115.82614922186,330.051645089917,94.2491615214338,1495.9364598682,173.565058778454,1229.56465009389,-66.3805063921376
1267.61379659115,341.779254955949,1059.70851307902,217.101125962516,220.030746213126,14.2189294485704,975.478714368927,76.6372750046937,416.039743639159,15.7585172386366,293.927820905172,2.47100433185799,360.875510351562,1.41493759593832,668.715728471206,-29.002529672394,1645.0900403219,-135.731551225929,181.250098619831,42.97745477527,1085.99833788158,-19.2067560208278,1324.51281348075,-117.314299083112,332.357988149714,94.402153466845,1510.85387608891,168.259053021353,1240.86447843152,-70.2036470340677
