83.3755116476985,11.6023241388832,299.936200109453,25.8634383867909,93.1821753040501,11.2766084094991,438.41971272566,25.0814385846871,734.698769735272,35.3007412941003,266.774948447873,9.63642330289657,1172.31394695742,43.4729236956238,273.888654980489,-22.0192804520282,338.479274741295,-12.4065385192441,761.304814127435,357.162431675077,557.701465893758,8.26377307509856,739.759732945388,-8.14414152954841,604.614039076695,147.170913022873,261.758775582061,25.1678920049868,798.320082976927,-55.3619473235024
76.5745635560873,19.036082934447,298.796894323661,30.396786009481,96.5123408862304,7.13614877217195,449.588648326094,26.6991785443296,752.095951503656,33.2654186798143,283.696647294655,0.680951023104018,1192.60121305538,41.9215889642241,279.042332542741,-23.0026164373535,343.03816167354,-12.7984255915472,791.19421136237,361.922339694238,567.789476331771,8.14936981732964,763.063550298604,-14.8003691211484,620.630222735733,148.73030573559,266.740657807936,24.2743491486475,816.030608057711,-61.6660952657994
85.59428658894,7.66217768093094,307.612406958531,25.1580763271445,95.6431560575604,11.6890120844844,451.617683036968,16.0441669769077,734.62410178684,34.5137248600146,262.671181847518,12.9735880894832,1177.47900715838,41.6854248387759,273.946596927529,-21.9997323954301,341.192350155568,-12.2726635714922,758.139447555282,353.823141920974,552.299521101008,9.45688079392187,744.54553993063,-11.744482419703,599.020389320321,148.417111466197,262.776191563702,24.9652164112634,792.210810025247,-57.8613700103452
89.5414337233289,7.50667318897617,298.189173086311,28.7579750669433,98.3048389357987,6.37633817593085,445.47466097101,28.3186171933679,734.602077237713,35.301828948373,278.813066475347,3.484760060117,1175.49159922943,44.2629448802949,274.2508036627,-21.9983535366543,341.03617795943,-12.4049495168571,762.351039798814,355.581224215059,557.929105301041,8.71610634921787,751.055655468983,-12.7992583747035,606.722071186627,147.639415937951,264.299670497335,24.4992714361248,802.332052486198,-60.7559330876559
81.3572368825379,15.2024757411439,299.540587352655,32.2657839730622,99.9414900264328,8.40522954888944,450.644234646027,22.7620158069844,752.03965726695,33.2316754943395,282.76591153612,3.99461837274974,1192.2857264647,40.665794901939,279.657135579758,-23.1679587005718,346.759266296917,-13.0256674716763,790.830533583854,359.272359628827,571.636276140091,7.6366822430207,768.936388154122,-15.4044592052467,626.487179846032,148.353688856657,269.141806983859,23.9184776860345,820.481190591842,-63.5223258792206
88.1184289233146,8.81046544737374,299.656669135903,27.1337920521572,99.016987036216,8.82483771171919,454.310860442898,15.1773428902652,734.907309956151,34.3609510158733,273.541940062386,8.69141330842865,1181.2653417741,40.9573236018966,275.179670451018,-22.6572301734569,346.016044177408,-14.2245009273792,754.18035299417,356.001465305424,551.500733454003,11.061582839719,748.212468551295,-11.8017175770289,601.562927651243,147.122207521805,264.343918388077,24.2547366587262,791.911352663148,-58.1769483560105
84.0147000501863,12.5927900664696,291.468026928995,39.2932236061625,98.5892934764607,5.80154209983023,428.790836544677,34.6586877968755,738.022101466241,34.7262463426997,277.324263354587,3.09038258148919,1183.30884790568,42.0686137007347,275.567018613071,-22.3633331192721,344.088202087436,-13.5691941621215,763.874881564059,357.802265500548,560.353344829098,8.79211818248017,754.635032520192,-14.2161984457139,611.310867895741,147.783614605117,265.30275614799,24.992674443272,803.661685076345,-59.5058378428679
88.1726961614697,11.7926182940828,304.7159307062,31.0392155920077,102.232807874017,7.74973876731167,469.279597619707,22.271113770505,756.426170035136,32.237799432914,283.090444709874,2.0652224684982,1204.84757848754,36.8529567282577,281.212836508235,-23.3369339308318,348.197571375083,-13.9426843412063,795.86004228214,359.657342615909,574.013711345344,5.74995647133208,768.874262514234,-14.3473578765717,630.395402244012,145.988768933414,270.232297538317,23.9137644080877,821.276233070136,-63.6322546249294
87.2392797930325,10.0653688471246,309.743499507063,27.7235672718306,108.551939094313,3.88874445857217,462.313972667673,18.1263992917821,740.07756714318,34.4792171263874,282.553540272399,0.485229203243563,1187.12222328078,41.7186442378736,276.261105369854,-22.7278347229629,344.651540054268,-11.5776961020087,764.881559782528,354.850852782774,558.618746967455,9.31952925804736,755.149684615035,-15.0437671523508,606.21954570494,146.628259717062,265.9165307581,24.4449793127894,794.75199120689,-58.8101925752729
76.6909593224346,17.5471789388328,301.638383073687,30.4004201752796,99.1588457586508,7.19004170418876,442.219347421454,27.6443855298406,738.97250409818,33.9436985889536,270.676624352005,9.26899386798123,1188.26819407454,39.4509685143762,275.23240931523,-22.2376854653965,343.920629936616,-13.7788114144551,762.686622755816,355.222319572826,560.858106416282,7.90925514688204,754.532993643374,-12.9436027507523,607.855789249391,145.294668225145,265.946968222915,24.2171961821948,798.063030105632,-55.930082053728
83.3514154503952,13.5365349175783,304.686019137113,25.3084452585079,102.823099151007,7.28172783121596,459.815636443548,21.5319384706518,753.778541855083,33.251239092751,278.294112483851,5.14207800437027,1202.69567287023,39.6605804059999,280.430738458222,-23.3017595352099,348.347154894264,-13.9728984775539,794.25427022263,361.663208040587,574.113337534868,7.02785788597195,763.467913191317,-13.0124437508784,628.040958810646,144.420371752174,268.548478907161,24.4923592109961,818.436401594207,-61.8545192194276
92.3446833691117,10.003671128814,321.485591630051,20.3162753694491,97.2695659841334,11.994303389959,463.915011497153,24.0803963326088,751.793418578158,32.8983848511974,276.318281072187,9.40564165910753,1199.15687208896,39.3413054792221,278.774120249251,-23.1899214641739,347.070688161273,-14.1826865604725,774.125772288088,352.537675265001,563.985899205258,6.89571578639888,757.251265337405,-14.0478346744206,606.913738807244,146.183096638281,265.602059957853,24.7569796902203,802.392314574553,-61.4492420510098
87.1735839284204,8.85291554428406,300.138367998783,31.8487784033761,104.475011641128,6.88805645914327,446.854254393678,31.2775176460131,739.526164027224,34.7002596127512,285.836310992923,-0.629011683505871,1188.10662103371,41.5445936512259,276.073351909912,-22.8794666528165,343.735063077805,-13.790403734211,764.729787938181,356.597027593846,559.630785182874,8.97054930971112,750.579705412505,-13.8670456091296,601.431897750453,145.906010426938,264.306487659572,24.5499695519093,800.131639505732,-59.0918183231246
78.1088618756948,16.1634735639923,313.073488299461,23.6937465232877,102.57616411096,7.39728222342636,444.007353722188,30.3013739233215,754.410878658793,32.7073999592318,283.278436020293,2.62689696876813,1205.62375899484,37.1301054335585,279.854278127275,-23.3057518726027,345.990301641731,-13.3111266619489,791.408193819139,358.857675691065,572.100064731073,6.88596587327187,760.282460284035,-13.2838713273703,622.043922809839,145.208286378436,268.092388164438,24.0990138983402,815.587987705677,-62.0258303784235
88.6127715055935,14.8357724766432,312.413221754839,28.5310977773272,102.629864698198,7.16815471848544,478.553413320218,16.0684441838667,770.112730096865,30.9518697945003,283.410982727107,4.22139351549843,1225.93003989614,34.1284261287246,286.238715767744,-24.4581099862915,351.895176414912,-14.0822826480675,807.836125093124,363.572133994658,569.135028604503,8.84904868871008,762.873099961038,-16.0281699710476,613.293409541405,146.907091387515,267.464991315464,24.1424620145437,806.505501734015,-61.0914165078735
85.7324759355489,11.6694147988685,300.227359857068,31.1564220996257,104.596324198493,-0.263385080319026,467.208421633092,21.4166774562781,740.80445445537,34.5175936808907,274.272120436251,4.85436958036343,1191.27198526096,41.8908595272265,276.311072338018,-22.4392655114675,344.331534267313,-13.4539713913406,768.929628945729,356.194290675289,561.351285579738,8.74084940221786,748.92353704716,-12.917705526156,603.354603108007,146.801297615371,263.862903047345,25.1428606516825,798.879645816715,-59.4517272821872
80.68126840028,14.6713326249845,305.227179174029,29.00698317695,105.267015715196,7.89811536669413,449.046803359806,20.7705856051471,753.382424789248,33.1531598891637,277.908354834316,7.42471478373989,1203.93208351008,37.3189422833179,280.234285443705,-23.329909303851,345.408873891883,-12.9318100695096,795.298844677223,358.621453488314,569.991386981638,8.48825167397199,759.103290703405,-13.0577134462015,620.454935640412,146.483811274583,266.629802089513,24.7043586902866,810.833573801071,-58.8237724721748
87.0915609430857,11.7556216445799,302.591544316287,35.1478368860668,113.176239390545,-1.67602216637935,468.763260151129,26.5122083518343,769.551573315112,30.8609823605533,292.194581162353,2.3366754750549,1227.82728978207,34.5941177526477,286.60550839287,-24.5960452159499,353.529669669745,-14.7093307419712,826.321232805065,363.872436729923,584.392415178396,3.65237512944317,776.171791078332,-17.2613713893514,624.655045112846,148.846280020715,269.698520954353,23.9498366443364,815.315174240651,-63.5205757641534
91.75763538975,6.34703617869135,305.515499503191,28.5344659403309,105.109407423052,5.54728749320713,457.135963982817,25.8485892537862,743.021597434163,34.0671513025197,277.569632792885,5.47277009749783,1195.0745623041,41.4321693538958,277.480878018595,-22.7934634382193,343.493703706822,-12.6698590064523,773.004193197961,359.514257592757,563.994714483822,8.64045570840984,754.586571459757,-13.7922950579158,604.405082040886,149.870646935529,264.795281626459,24.6877091676905,803.137951306786,-61.3584530900115
79.8100524780097,14.7072152438431,303.32123023355,30.1233404230488,100.930110501978,6.42897204483546,462.536759006816,22.6946174879639,753.279988239237,33.6455414419245,280.185325883707,4.91984173832711,1206.62251205548,40.621683963628,280.138348496406,-23.0400869314037,345.977889745673,-13.1983070648536,795.279130612245,361.074840521103,571.025447726573,8.21085038956533,758.897420271254,-12.9204399427807,618.519861331737,146.716071721504,266.899336572634,24.5178763369363,814.122642439224,-62.9889686607245
90.0050178787286,7.16890662118636,309.923982258677,25.1073029045561,108.24475395034,6.72370793261674,476.805959345895,25.3003149220379,770.616525710058,31.0123492615894,285.351267770521,5.10029485306478,1224.49787015921,37.7081529163,286.06444496178,-24.5107228418438,353.246958568447,-15.9149711229968,804.349276351312,365.447974427357,571.671375694927,7.45121037438356,761.345520549317,-14.8063016092241,607.411332263046,150.624995321436,266.415596749177,24.0623622300885,806.43086418999,-63.5520696113515
87.2524715837343,13.0426723973004,300.84038910228,25.1914315750915,96.5818866648973,7.16857440618951,454.174958362907,20.7057276684665,746.548422179392,33.6202003788894,281.739319589156,6.00928845785064,1196.26482652978,40.9119303276508,278.017105371783,-22.5433116807362,343.013691973247,-12.3986471724861,779.105928034356,359.41835015309,563.981202940784,7.92599214766892,752.076028110277,-14.1287388918073,602.177892919293,149.070310667885,263.902441685036,25.1512752495163,799.988659920363,-60.0649807601241
91.0353935281138,11.1289866587895,303.882190132851,33.856598662358,103.294511143799,8.85842111273466,470.175604739414,21.5639787298871,758.336635337656,32.5993630885507,275.792745882651,12.5440907075847,1208.66810787385,39.4819046302253,282.179472384284,-23.5876468295768,347.649032186015,-13.6756780611898,807.786243343176,359.518012712998,571.503596238196,8.51765506855006,761.381929882831,-12.4394272780306,616.434360114861,150.137848071967,266.211001051049,25.1787057025276,818.057749128936,-63.7174640518721
87.1600585721068,12.3250766734358,313.499419665272,30.890716471085,100.736597536975,9.48855863262555,482.719141001355,18.4624941013117,769.98549044324,31.5104210266882,287.225999136215,4.5432413308078,1221.10433646078,36.8263276033564,283.398282743926,-23.4229543232227,349.757203640108,-13.7779893323536,788.47382108556,361.499428138608,567.330721772721,6.33934287517059,755.270412139976,-11.9661722302476,606.773898842577,146.947955678945,265.754890424142,24.6511945752473,799.675310477934,-58.1819499249023
82.3595544872256,10.3882600691958,305.939522727447,23.424324646496,99.4588179847673,12.4249852349417,452.336273771756,24.838965072627,747.388491673171,34.0021562569874,279.287624864764,5.19068005410572,1200.60914786086,38.7950925382079,277.736639476369,-22.6510644361624,343.318114303468,-12.5735287300109,779.114828165576,359.805518264599,563.483394915659,8.22374395560173,751.252021692614,-13.5834693477914,599.075348003427,148.968156674568,263.558798460389,25.3099148301925,801.018931922167,-61.0656934029689
83.703008430176,9.7052559486119,310.160375959661,25.7362436968229,109.840928414451,5.23554314936252,468.728549090275,16.6020521899704,758.09956743122,32.8736493735571,274.175437705739,11.9539176462032,1214.17387939941,37.4507104123649,281.369922453036,-23.1894396679593,348.870768297448,-14.3720532260065,804.370505154141,363.395733322231,574.158636301585,7.146085171817,762.105038713581,-14.6958783076335,613.836457085812,150.211740468091,266.768393361115,24.7199774137256,813.418457053284,-61.6826639050878
82.6345950519749,12.188876456189,308.235172590519,30.7749585100673,102.972351324995,6.89949544182482,479.94874315103,24.3325953631713,774.82697730446,30.6821408054359,282.739543243092,11.1681031558246,1237.71158784685,33.4799098828466,287.741163752447,-24.2486428789292,355.401353610228,-15.4232433019442,822.382299286031,366.05225076514,576.075150039641,6.12054107097652,765.210222288377,-15.035910414829,605.695592286838,150.845984371971,267.267428736774,24.3573783141243,805.849418794114,-61.8787761660628
92.1579113817829,10.860304947419,303.527513865035,25.319626001505,97.6116865535139,10.1815761120539,466.877338783669,17.5572061774824,745.706839114762,33.8770078497835,286.967920625059,5.07245887516051,1201.1223109885,39.6119277135602,278.511137050676,-23.0279724968751,344.020908785638,-13.0716499765723,778.059073273998,361.524853454631,560.816234703846,9.22042941862511,750.558465679824,-12.4105012787987,594.127650128995,150.896859539218,263.672684957704,25.2844315636153,797.917698508163,-59.8630886190665
78.8195564471217,15.8659235931067,299.302396379858,31.2985997587324,102.793523985114,7.19763075468647,464.486627729966,19.2300585216199,757.282242683294,32.9751379602042,283.493594862862,6.99569996082789,1209.23061943275,39.8700944114657,281.75946882736,-23.4631241848585,346.819897103275,-13.1165501980879,800.043700826409,365.398455210656,572.269424365977,8.63731821997335,764.628208612743,-16.0994414727092,609.831569148564,151.466100445335,266.603080427655,24.7055549634275,811.077909647755,-60.1961153446708
87.922710358927,10.1927701258326,306.991410456595,33.3653705220339,121.105976934046,-6.14236069461705,474.624495662264,18.7381013778203,772.193955462399,31.9640906489729,296.309129986299,3.37158682874438,1231.14996299823,37.9815827655905,288.636912959631,-24.7447222926191,352.206515147418,-13.3588732759268,836.227597261898,370.541058298372,586.294008330142,7.3250446172143,779.836840673646,-15.9067920732766,632.943312789852,148.998746159412,271.30820199799,24.1927033019865,830.693584098686,-64.4654313863661
85.0941698335475,11.1950348979115,301.843760609501,32.4095339980619,101.698891143344,4.42816598267839,452.39259727588,23.7501357768472,748.957009062613,33.8804458624994,270.612554061037,8.8632182049806,1210.7654540153,34.964929605231,278.862513734759,-22.7476060908795,348.172180181688,-14.011570972814,775.582281306392,362.969713131262,561.603782927532,9.53533649825268,750.709626464465,-12.2850373204751,593.637874028604,152.351622195301,265.202681835105,24.9161607476457,797.82293892192,-57.604495335077
85.3986293279637,10.3254476404012,307.214080483512,24.9231340887747,109.821959282583,3.31266643142297,471.425228740199,17.3427647967708,755.357859081586,33.1652879568618,282.520263008966,6.11355754586833,1218.0815841148,36.3430355574479,281.613885711285,-23.2967447100951,346.815868327979,-12.5600245615809,792.21054996849,364.901097278319,571.188834178937,8.62304130053594,759.126754761407,-13.2655695224698,602.423750791776,154.658063644653,266.284358726369,25.0128576272961,810.235488865799,-62.7802928534459
87.6685040390511,10.1199565753081,318.603743589282,26.6664162377589,113.352786244432,1.80136239775014,473.141915918625,24.2569158985648,770.884361940744,31.5205204787461,291.110184960345,-1.02984566026146,1224.54493193164,40.3071637410886,286.592992832318,-24.0617997438957,354.544980640504,-14.830821220634,822.164594788544,371.003254650267,586.664554326487,4.18496299243646,776.638233993632,-16.1493212295338,621.268029207276,154.063185152011,270.615150833764,24.6841755062624,825.015249132589,-64.5007672170126
78.2020483636027,17.8122815208307,307.335545968557,27.7262757145137,106.637788676307,5.33842442323456,454.356877841248,28.2595069760733,752.150980042347,33.0695751988579,280.466993601395,8.69962087350347,1207.03894456722,39.9979923563197,280.890029690735,-23.9000866304314,347.243214694109,-12.3974607658329,778.338110707712,361.983293868294,564.480338035388,8.63769105643222,757.82619484242,-14.1834201247582,592.119479956298,153.438062156699,265.348280673249,24.9030323257463,799.910853994155,-60.2077340435762
84.3649632771236,15.6591934068656,307.27416497778,29.6827752418094,104.522614084446,6.86128958412053,457.975616362549,25.1336410766839,757.073240237978,32.5646753970844,289.757762493582,1.17683180195623,1212.21042486224,38.5727598086708,281.864312831528,-23.5187600594434,349.329310718733,-13.9559261703025,797.450096573137,363.929346760541,569.937602452552,9.32036762637357,761.337826746327,-14.6367063401299,604.716901167042,151.340442686403,267.377980922391,24.7325236730282,813.496349258497,-63.5788364802217
76.9059776972495,19.6761381823988,303.877317356758,33.6027265409949,106.777746118265,7.77831718850415,468.274149827115,33.4619220239305,773.52269528205,30.796361681859,302.635792482248,-3.7687429234948,1229.56789937516,37.7969242096578,288.398508070064,-24.8993352513428,354.687808462158,-13.6620637829334,827.561898302616,372.557898969925,585.449307304764,6.16472801334597,778.602904130342,-17.9468358990876,620.615991529287,155.205244641716,271.175691207186,24.6178600323358,829.110650334768,-65.950147363169
85.7140254171247,13.3120124201074,310.485917943042,30.2117298684771,98.0804647521553,7.2963801895151,459.760517203081,26.7163123519664,751.163040419209,33.5231294845275,278.042532325386,5.34021176394123,1205.6415058098,41.2263534820225,279.89785271488,-23.0781701000967,346.694417728316,-12.8179146031984,779.10255586985,362.435994172218,563.37645988495,8.68613833457702,753.13453139134,-11.6158722712107,590.95419790597,152.290420622547,265.345088472575,24.6370896930073,800.093950520761,-58.2225742510199
79.2085969098321,14.459007811293,309.225246434383,31.7680599109301,104.767410385076,3.49805305048899,470.949997028532,18.5798158026088,759.054062947905,32.1470963194204,275.749830314854,9.7917961786653,1214.65199412918,37.7314307354441,281.729015113038,-23.232174201465,350.637082770036,-14.203671355318,797.919879380387,364.238626120013,569.570632521782,8.65565821205061,758.525890568049,-13.9436939230299,599.681161284832,154.935261044823,265.726828117188,25.4043341215598,809.508267711936,-60.1978531237226
85.9149719940774,15.3297120454196,319.297560387499,26.8424975668929,98.6446853552916,14.866701330269,476.192970863663,19.4054030564017,772.986635829525,31.361636247979,294.297754203329,0.357135769693702,1230.26222225298,38.2302343290882,287.412320674592,-24.2269099705671,355.401695934195,-15.1085402246286,829.433984754806,368.810284879026,583.292385211635,7.82190867430754,775.106496160624,-16.6700238942496,621.840634459002,152.531348546801,269.753954482278,24.8326264223171,827.767130603266,-65.2410556103938
77.5982663250748,17.1896634811755,304.431464156525,30.25130474035,107.356903257224,7.41062090482457,466.605929687923,20.2791209560618,752.448405180873,33.2374652288158,289.06717565481,5.01506813703373,1213.04724806385,35.5050681511873,280.140041185294,-23.0417046433113,348.509064877106,-13.7002663337308,780.146303761729,360.720442732084,560.410821950564,10.1361538898331,749.99761245681,-12.9175116539967,585.943103563929,154.281934215714,263.991957386991,24.8167605801398,798.953553662587,-59.5894908758734
86.7893073834422,10.9448137801895,297.523571237932,31.1465479979724,103.92427523681,6.34615805242068,453.337659735061,26.2994422878881,754.052575408391,33.0422221526497,275.92826690175,6.37579040455887,1209.13654663053,40.2531267646373,279.709839733921,-22.5277810465631,346.487148376673,-13.3054620993488,790.66699499443,363.264471529103,569.749106243239,7.61316774665561,752.353085559518,-11.3276553657205,590.303325623882,157.076469960237,265.517268035708,24.6833811765279,806.540874828566,-61.9251264593071
80.1350917714312,18.1794799352414,313.399859003976,32.3802575523843,98.5604408260649,5.01820451793204,474.651377236922,17.6848994835679,769.880894922675,31.3990865649381,288.321040255929,8.33379754541422,1229.89154077713,38.2897316626376,286.227689211072,-24.1027044333743,351.942712695603,-13.7845024889357,822.866449747191,369.794157465907,577.470058201872,8.27606092458562,771.428644405679,-17.1053357029166,612.723098067245,153.695651738181,268.580285535393,24.6923470812487,826.159537295429,-68.4961732315707
76.5089853490648,14.7020554871832,302.325075393283,34.4835216175242,113.200140337888,0.235062278851286,465.527017432658,21.8642794687744,750.95940604534,33.4865143355398,274.804187486074,8.78832855668527,1205.35185908165,41.7292137616203,279.250786383858,-22.861749530899,346.951667944182,-13.3182130310445,781.49132258386,360.242070351766,559.76024100147,9.21575446496302,747.539295765831,-11.743012541064,581.17271633472,155.696336925584,263.235667620153,25.0477251255632,793.846425167641,-58.7354863516252
84.9402926466733,12.2085029749117,306.703558453734,28.2921721749292,101.463364679015,7.69495161948476,466.136399762858,20.1859081231351,752.700970385655,33.3524105718726,275.725507746945,6.35503908530627,1207.02216500929,41.8267356412333,279.640918106499,-23.0023282321476,346.257911387737,-13.882773050181,790.785956331156,362.146103361259,562.002706303571,11.1864517744228,747.6786991761,-10.1019638995269,587.335618253083,157.237758144719,263.832456708101,25.2518047906152,804.583910863209,-61.0547534133529
82.5539227766754,12.7976364169202,313.315371263057,28.6325508537364,98.5910345957704,9.18707465604734,470.212012964877,24.5434532187837,768.201502787416,31.8937931184467,288.670342008668,3.98312803821156,1221.97241697025,38.2491018178587,285.425778675503,-24.1529707477708,351.353540585994,-14.0043364365152,820.866592809376,367.669543043847,577.490561202496,8.55767825188767,763.048188879018,-12.802397192269,606.991687061291,156.086575463307,267.487662873228,25.0174259107126,823.434198041076,-65.8432893715041
85.7978598217257,8.56438002112004,306.688126685571,28.9193533420134,115.165593784212,0.260995897023107,452.924321809684,26.830016582201,749.84474674312,33.4148671212208,288.202430656554,4.4827777802069,1207.98570337466,39.5031298393505,278.69611726216,-22.7590096919438,344.706700745566,-13.1774159168118,780.008621798189,357.80047492005,557.803604886857,10.1487499629695,743.693077383392,-11.8524610206703,579.229700641437,154.667184096594,261.646816971343,25.622239602166,789.191635712273,-56.4538548736284
78.6068754654149,13.4299997319673,296.142122796359,37.3623310215544,96.3120309927474,10.4026015141418,456.026771889282,23.8902207507866,751.602406550732,33.3643535011273,283.458324252379,3.92925546939039,1207.55957345304,38.367052729491,279.574109718529,-22.8492560942549,344.059585762261,-12.3453484575948,791.114100725428,361.089176616953,560.701756773761,10.3745262975635,743.940710789476,-9.8181001066622,585.856267345332,155.950684450902,262.932858366819,25.1952612926971,802.30188562874,-61.3526192969728
77.2590536340149,18.0756507382235,298.377301509511,38.1831789180203,111.966799880517,1.26738865572056,464.585205021223,31.0966271199062,767.056635691441,31.6448778894486,284.418639837692,7.13840571665229,1221.55724760985,38.1293521458261,284.547737281508,-23.5178878092508,349.499458614201,-13.07879642501,815.838931143817,367.841816410503,572.082394995294,10.1924321034955,758.136166131987,-13.6122402492959,600.701149684073,155.268120439672,265.913481165418,25.1354842256089,817.135765507191,-64.4149339075157
90.7881249723094,6.14850599221914,297.04407229051,31.1217015005131,106.814775363815,7.99855669590648,443.363728785428,29.3853521189308,742.642616390023,34.2315220660706,272.341227833718,10.5179294327237,1196.01394095331,42.1594801396003,276.228726297519,-22.1811866111743,339.317892255645,-10.7856036410849,766.395658554021,361.359535731118,553.863730545699,10.8366654216944,730.387561206984,-6.80991605960977,574.634412924919,156.097691834612,260.05572478901,25.7822521254015,793.52702015803,-59.5704771926529
81.0750278886414,12.1766422876794,300.199648976961,28.3999008026302,101.115596169155,7.32692017483635,464.226543914677,19.9164728905545,751.088231667401,33.16557152679,286.527375652751,1.60276205309228,1201.56122958123,42.5079066003232,278.15973563057,-22.2919801087537,341.900717242597,-12.2178925920103,784.667890070017,366.652335721253,558.643716073963,10.2406661365378,741.067267570951,-12.0675427942348,581.932025979813,156.886331357235,261.534537767069,25.329621798659,801.266896924052,-59.0732437106728
87.0846590881469,10.3660744072538,311.567974061967,26.1608456496701,103.358110826958,7.03838873071047,471.315670764533,21.9505517434223,764.759120727843,32.4182300702827,287.62898422709,3.43202579171419,1215.14384890172,41.7156877487088,283.843958000968,-23.5052940324783,345.410055654681,-12.3264300927912,816.405548119071,366.764783467634,566.326703623417,9.1853053931153,749.693287396249,-13.2265045554235,582.991550148929,157.285960213827,262.013697330725,25.6413878911424,800.750088470153,-61.1736307959772
86.1993999892654,12.0927872340807,305.412316623963,26.2133464209515,106.545597809098,-0.52820462239118,446.142972909286,24.7242279947205,736.966964937065,35.1610405689755,274.359190724312,9.1854019087117,1185.97366277919,43.0644316708415,274.949384473878,-22.0173401793272,335.811823421227,-11.5449870694211,766.465929330815,357.470033882022,548.85947210191,11.3669833887456,727.411709132565,-7.96983380168555,566.074273737788,156.000652299051,257.612467464793,25.5091782739116,791.554723398248,-59.2355445526764
86.2710169675423,8.92646966684795,321.108378792978,16.851519683465,95.1973192850513,9.38454338614488,434.770439136963,31.8146181909044,746.101688666645,35.1127576080961,271.828100084532,9.60389600497378,1191.29172974427,43.4453151638168,277.242051962244,-22.6337075025864,338.014348994672,-11.7625213251713,780.912065669921,363.131297002278,555.411319050647,10.5881234600462,735.415132083189,-10.9909248194808,576.493922032382,156.072307676422,260.042587678361,25.5524745691002,795.714796901079,-56.6798234899856
94.3174812414821,5.76083420544092,298.241565007913,36.2444356337716,104.204899343091,6.61462198847604,464.688905125635,23.8232111408711,761.769759886101,32.7476717969765,286.685407879665,2.7059152010375,1215.2083196919,39.3842281504686,282.567446652379,-23.4916976724116,344.743101690074,-12.8877665665846,808.842833440898,367.749270365139,564.346503705787,9.16854008141551,743.043907724294,-9.76664479721874,579.531061154688,158.614590446559,260.343406874938,26.3427302576687,798.216071488823,-59.1915170854343
75.3394561137721,15.0509707461055,294.526817569202,28.6920403197856,97.3694526094786,6.58521325640467,440.220331938455,20.9084270848032,731.231571222484,36.1729906686994,269.315327499335,6.47346337946512,1177.83567393218,44.6579133461361,272.153530142421,-21.0017685644243,335.801731986064,-12.0028602880812,762.895419989209,357.905287273451,545.643648761944,10.7368539281129,719.570140878435,-4.93170688227251,562.346305219509,156.873570441524,255.781873857751,26.1986603062961,785.008433743215,-56.1488836736094
85.520222210428,12.0635774684263,303.155388464972,32.4030071909922,96.3090367068017,9.29085558444701,436.886733994538,34.2943026440792,742.86227570953,35.0291393801931,270.807773596216,9.3938070977336,1187.68632187695,43.5718568809564,276.199169160417,-22.2845456686939,334.846249080406,-11.3192116811345,775.520176247423,363.009066911364,551.617074666825,11.3963000240742,730.419702152737,-7.99234454385917,571.426324496246,158.321759257952,258.256026398065,26.1984372167832,798.862951633341,-58.911080392396
78.1998062432293,18.3610422294187,300.478099984729,33.4194862307851,103.314311329837,4.97240983634329,465.737429499863,20.3887410973605,758.13110500434,33.4635334468301,279.850173949211,6.44690232368605,1206.94679094447,41.8268130776368,281.355289514003,-23.0821695267378,343.27410018597,-12.6568222168191,810.439022838185,367.558458887092,566.972334719883,9.65692205199268,747.864712801181,-9.38808373853866,591.140026213567,157.542602064666,263.518559480002,25.0280907908915,815.257400331163,-63.0998303747057
82.3611526634414,11.4382715692366,283.200135338592,37.3234183742126,108.868207721462,0.42239210637433,438.615148685263,30.4906410332555,731.992234003494,36.3201871831472,271.004752592346,9.46535838713868,1175.24557355074,47.3097687903606,271.893541044199,-20.8811245564643,336.096799842984,-11.9628093888398,752.625892525985,361.643883022644,541.289128866901,14.3091639691482,719.98856369143,-5.73840839114006,558.871314074253,158.224598487755,256.617195856095,25.9719292734901,783.028162096743,-54.6010054706378
85.6895584171235,12.8690091605211,290.10072843375,34.289148979052,104.663868420329,3.84448916066255,448.109873691221,21.9411531635016,738.313296104463,35.9404210647544,274.851855988355,4.25280752824498,1181.13582671175,47.1048663408521,274.727569063142,-21.9135306818832,337.957401402628,-11.6694567137543,770.967721792817,360.402712443425,547.110664947382,14.246600732805,729.763933484002,-8.29686145593976,573.942502225589,154.393807071479,257.438087305199,26.3581359947918,791.435683002034,-55.2121350979314
91.87047387224,9.47098273703146,301.474778032459,29.245132752366,99.1132565064883,11.3865684008723,443.699815208635,30.5149221356529,753.101987997924,34.1930099978612,282.866286392359,4.77657795017891,1196.97113782257,44.6180804964533,280.31025424737,-22.921109714762,340.597553088687,-11.3673410069359,803.138772474697,364.11222155256,563.675082732916,10.2260216318592,742.399807265121,-7.9964341541836,588.252451356812,157.209000421608,262.335678547283,25.6310992867882,809.49828946549,-62.7694828488804
82.1924774784767,13.6739898922859,300.941664440964,22.6358317050405,92.1729989281312,10.0307418921797,447.196533172743,19.9771410049708,730.361040712458,36.193206750609,275.913291135803,-0.199889316433336,1174.95250195225,44.7961457788924,271.633853086334,-21.104335807452,332.755982296536,-9.34302359060376,757.834626144118,356.937816207618,542.30357678851,12.0669172866567,720.000671575744,-6.12713490439438,558.896088931367,158.309681685488,256.291324897755,26.4051289678579,783.919217326821,-53.4118083363117
84.0376391331378,8.57989237663137,296.458786825164,36.5699682402759,99.1564879567551,8.6382271545918,434.305274228723,29.9216527077184,738.465478018193,35.6970635336854,271.494489982656,8.18152035930679,1183.55833267397,42.7551659445388,274.400908742995,-21.8929495036909,333.650881685335,-10.3653180686386,770.436985934885,361.304936522751,549.60789768957,11.7869721297307,726.54224407341,-5.03834312333109,571.750563578829,156.650537069096,258.257605991963,25.9419967773859,793.600864217565,-56.6161287591541
88.1641853435253,10.939139611495,304.749746155677,29.1646107013146,98.8448166503549,8.8668008167958,458.980729570371,20.6512969856945,754.416303842313,33.9676136224459,276.332418545301,6.17738639485096,1199.0072311472,43.2345684471536,279.999723057543,-22.4385751277577,342.804240420166,-12.5693443428046,805.342050307305,365.657273028743,564.490657920254,10.1306688787577,742.276688133223,-8.23982672419838,588.504200643526,157.847218355741,262.01481664481,26.2850833267987,811.236335153379,-59.5781042768124
82.1570041276458,11.2375099222773,300.008343829295,30.1199360881169,100.339405692099,7.35057474374257,443.339702817552,29.8246632472452,731.608847858665,36.2128387875321,270.421102920278,8.21797248457353,1170.31832335872,49.5808639854634,272.552569145516,-21.1017460505501,335.728904106851,-10.1758675913532,756.427073134465,359.435094412024,541.110669501817,13.7375789650989,722.945903601464,-6.5031898240909,559.035884625985,158.619704219372,256.635979141138,26.1005167580539,781.646845577202,-55.4523084075236
78.8560954829302,17.0672125685018,289.757515550813,34.178824876382,92.8407910645093,9.29030718042765,433.298997520225,31.3162330172236,734.986822909484,36.2072153777252,276.825905976968,7.24486032436874,1172.07622012173,50.8359564848393,274.207498302929,-21.3882899183661,334.903778723682,-10.5382358227558,768.604991357147,363.240174221535,546.250050289325,14.9670239690413,730.298843854197,-8.20777911014178,566.826388378963,159.686477685431,258.197200047279,26.173509626043,788.019972368801,-54.5663951804499
85.3713183364439,15.3063357575612,305.753113155319,27.8362792782509,100.200385313981,5.80970833422764,463.40139688438,23.6995109374099,751.088861138109,35.180226255925,279.023187923782,8.29587743166667,1194.11744185148,46.4167443738973,279.622485128658,-22.1618397801599,341.341457807874,-11.3026911448792,797.951615986877,368.520668094776,560.613681747239,11.9580143369887,744.36862833037,-8.23719525095957,583.940701242028,160.311832875892,262.859779605272,25.7493888829789,806.65715030797,-58.2320971979835
92.1281580571,8.17333124397135,290.96738919579,36.4442209839259,94.3108696871569,11.865988406703,444.892460397951,28.3787265906168,732.7407731285,37.0092981002265,275.954163146469,5.17613101825567,1181.30617572379,43.9245813347353,273.715675230236,-21.244080431383,339.26444876023,-12.0383314737688,754.918126675875,363.576641938526,542.774897009297,13.7721847182501,726.329894564763,-6.51685262319566,561.036970403674,158.262186247635,258.18148277671,26.0224507198561,780.282094503293,-54.8906416329039
75.9142035088184,16.118430331878,297.023081525822,32.684327962678,105.615931749136,3.82312973056132,439.146782371878,25.2932430318353,733.611577163535,36.1564427274089,277.377173225713,5.99367210500428,1172.45894579402,48.6040293860686,274.091550103915,-21.4168301409853,337.067107469564,-11.7888749896269,761.0664015324,365.422209100083,545.149323810177,14.9511849264863,729.922780125605,-6.49170276212065,567.112182415256,158.173264866369,258.537092124164,25.9417005079593,790.675224328046,-56.4110925332943
80.7884663208177,15.1049556830942,297.326467029003,34.6231143749948,108.910831730431,2.51543541893673,445.898017496546,29.0461020042824,749.872408209798,35.5014818095859,279.468635592767,-1.63573791492911,1191.08497117143,47.015474465613,280.116224948655,-22.7525742905541,341.932049851043,-11.7055678192675,796.879185754765,370.30613724533,558.396540944928,14.0323640633284,745.087527131609,-10.466501447662,583.33561590269,159.301849959695,262.105620493465,26.0964323358577,805.995530863862,-59.7991163278895
76.3580025071691,16.9636537210686,304.566707990897,32.7616070612462,96.3885121651113,11.4138079910951,456.284307058337,28.8916843211745,755.142670149292,34.9569588362784,287.622435424857,4.91901901480913,1197.06173638601,45.6219682123246,278.856618735854,-22.0661441999498,343.073247987969,-11.2588240314819,772.939408245026,368.85149222487,551.068384556545,11.842585265252,736.479514032323,-9.7839605847004,574.167034003316,155.835904703654,260.658472442204,25.9316688524811,782.075672578149,-53.0866656951867
82.1458122666928,12.9209446074473,292.707143056992,35.5263699929523,104.547820378388,3.66534165707634,436.631415446806,25.9001055921302,734.747818149546,36.8062156788629,279.886350167048,3.15726735231238,1177.48149100736,47.7389352442155,274.914098847951,-21.4701350162277,338.46412905985,-11.1752754747264,763.465547331136,364.654803435176,547.048174483784,14.4603478974636,733.367312252592,-7.80140040025049,568.308834135262,158.001978591644,259.116520173229,26.0678665019472,783.652484923408,-51.5870800225435
76.8859452915685,14.7707365188247,297.105021154738,31.0912135734874,90.4218620581071,16.537092611081,451.391945836443,29.38860481001,745.18782980587,35.7610690837663,264.956720074263,18.7560086130034,1188.99018214363,49.1002124118475,278.951354371871,-22.0518340071215,342.594099352939,-12.1304628242305,793.003719979083,366.512690074133,557.516784990933,13.6486189987985,743.37468450021,-8.26869155812931,588.224205175368,156.769397240834,262.091576880289,26.0704324409349,803.449619706696,-57.8468863860962
88.3699311264226,12.9943659346577,308.7768279213,30.7907976409212,100.63352729033,8.07963823016918,463.531983310319,24.6536796572476,753.050691424899,35.4935802971347,290.034303241189,3.29278176054661,1197.26376190953,46.1647068763915,279.293243569614,-22.1944595924576,344.966903884616,-12.8088278699568,775.530712309918,364.866776591779,546.879225421046,14.8412963460818,736.471197451884,-8.15746819255722,571.663195640189,157.469087984533,260.786113464731,26.0371110048736,785.789324554864,-54.3377306878484
83.5589519174481,12.0181038977861,306.706669150518,23.8909717356646,103.372269730414,4.74970205762738,446.576457975382,23.0586848842835,734.283918436719,37.3062912472331,274.100771022359,10.3480746560281,1176.93569476691,51.0117900174108,275.355233566943,-21.8376056515994,339.624653652115,-11.0001072040421,772.041761022514,359.931450306393,548.436523400178,13.2352940531122,731.160213718535,-6.33575827751863,569.802673906165,158.839640971537,259.346069735871,26.4606088994934,784.568818147543,-55.1816644546736
86.9966020541775,10.9715831479578,298.48656580251,33.638878157235,100.076887040275,8.04177569151007,465.654859193901,17.8678125769505,746.089016891782,36.0925361541395,279.214498910768,7.13731637769073,1191.08338850222,47.7144132620113,279.457954377135,-22.5219250548825,342.235765229142,-11.2853371948316,791.009144427568,369.695066953797,556.922766752779,12.1865194782916,742.211877828129,-6.24728021212696,585.408195726642,156.243797150442,262.156665968086,26.1196290031923,798.417622694398,-55.6630217133381
78.0378595223557,16.8740599140046,308.552777267533,23.1731890706218,99.5778126558913,7.520662476961,451.898722658168,29.1034267195535,731.499255083414,37.4885664524522,273.359811653366,8.22355344922779,1174.30802453288,50.7244671502824,274.325428666648,-21.139771414604,338.19602065958,-10.934874508225,758.536561363962,363.53376589272,544.545993318214,14.7186626036202,725.952837244084,-4.03548176365002,561.07829201224,158.369190767937,258.488126482762,26.3020788156284,777.664426878489,-52.9761153513708
79.3383719983944,17.3365176928712,295.789667857782,33.59637085497,102.415718199661,6.06060634567109,445.212792516259,26.9354922552682,731.297671999872,37.793179177962,273.258802239543,8.53966165621081,1175.21686202461,49.8909850568282,274.119471178862,-21.1329469225532,335.948235940794,-10.4886502677753,770.810382167448,360.308623395923,549.108307624895,13.3905458486575,729.915789062773,-5.24985655692628,567.562533121803,159.717369457765,259.162669982622,26.0469228475516,780.612949180986,-50.0854426877911
87.7035308575746,11.4201749164373,303.049913170318,26.7054855373743,104.657379622391,2.32818467943136,462.861368867433,27.2256325777783,744.795569274699,36.7597437482364,276.15819834374,6.24740234704646,1191.70100304783,48.135494155625,279.444570192814,-22.2774572384792,340.750254986569,-11.0977797513374,797.812309173102,367.247929365965,556.997304518996,14.0426669525137,745.627288827651,-8.18387904184608,587.969682368968,157.298006735613,262.267048430916,26.1206972114843,797.102382871463,-53.373469142816
82.7650647463489,14.5050368109627,296.037029788903,30.1034447495735,102.477265066076,6.0925397757506,437.416488838861,27.3047222204743,725.188264939126,38.4669912247519,276.224820817991,5.45358362061225,1164.22817989031,53.1912275044828,271.930945357391,-20.6993055171009,335.617378935217,-11.0996156990632,751.629868007905,359.83664660814,538.136713012968,15.8364977693121,722.113571756238,-4.26857835670723,557.283236109796,158.424732669548,256.130499624199,26.6310421878228,775.36143070119,-51.958421041168
77.66694824504,15.0526041742756,293.223526948066,36.4944209423301,98.4969610847564,6.33981877389272,446.694957401271,21.5731672343789,726.494088758501,38.9041707103853,278.037811093979,4.06955698250183,1169.15299163724,51.0719711907487,272.607247524426,-20.9531728586336,333.750345285479,-9.83178079820552,757.007140234955,364.785363665394,545.748457072304,14.9761046943785,729.120925284191,-6.58458254470721,565.455889168994,157.756094659422,257.372103003149,26.6975545375619,778.10045183931,-48.9170600664824
83.2386007441653,13.5127230790897,292.330369536334,31.651947743262,100.915285496122,8.20103969696948,451.673088241569,22.9192254064558,741.298166311009,37.8409170847199,290.593089862179,-1.35579127155458,1184.52251362517,49.8513051713086,277.598936474122,-21.8099559476201,341.682805461945,-12.3903260766971,788.075189267069,367.445242229943,557.419298024223,12.7248325384929,740.983709511301,-6.98463310348226,582.026886520295,158.579417790206,260.879602448254,26.3543451114284,792.653323465148,-54.0031651585511
81.7946117447701,15.8014401183457,292.354230048246,31.7737678411952,95.1879205148866,8.13706995440349,431.778380239485,28.1726000232088,719.730919479098,39.4610131610924,274.572756981114,7.07017504028191,1156.38484380043,54.1141639130929,270.962267303425,-20.6833140817945,332.933123936286,-9.74055619681853,740.432440604394,363.234558173639,535.081932118759,17.5404386976444,717.47808996117,-2.49525565592561,552.789521930686,158.852851437148,254.747140554035,26.7663734198783,766.909520485914,-48.4287955529986
85.0423199240515,9.49873084734503,288.983155154205,33.1926175667826,94.1775615986113,10.2977845100493,439.298197963025,24.3130166114357,720.799169372408,39.1177776660358,274.712369976412,5.5929328440799,1162.1907036224,51.8051379681336,270.192262098453,-20.2446995687264,330.144930614979,-8.66542482374667,747.853865202527,365.196676938299,539.530067609283,15.567409390885,720.371639328208,-3.85044143688202,559.84880655109,159.523398835703,255.790505597865,27.0466442974296,775.85971867947,-51.1208990325454
82.7554297500196,14.8365098760973,291.952127513302,33.5074293702688,101.605467595335,7.89203193450412,438.34167184072,37.2210345662669,736.328828632077,37.970381753427,276.236044900555,7.32147495534157,1169.2889515515,54.5030997013753,275.387291556321,-21.0736592671527,337.905908677038,-11.3345419622379,779.707907919248,368.484697794712,551.04224088962,15.9849307444788,732.630564193223,-3.76150190113932,576.140471261198,160.343514842337,259.822972583903,26.3617930790593,788.329495668139,-49.9587961283859
83.2111717959264,14.0355524356382,279.357584525401,43.8418922663969,106.181315725681,4.8151762854349,443.923099713139,27.3449913151224,723.073606384581,39.2109920093743,276.68343267047,3.79364506249207,1157.63319989439,55.8487118117818,270.752818497229,-20.2890837157566,334.250785466364,-9.91457013167291,748.284493988329,361.693692625858,539.109634249976,15.9304301821746,724.630844992715,-6.23911382526904,557.23602366235,158.648698932222,256.642325587232,26.6422021246566,767.329762986273,-48.5234228423296
82.4287656487954,12.668407502503,280.151636396602,34.8250066008422,88.8164209756025,15.0799459670657,426.340817107162,35.7224493899429,715.958474483824,40.4793932089381,268.271593030294,10.0784892404094,1152.74129406544,55.821735586382,269.118658317647,-20.0491598347893,331.195281547137,-9.15595832734299,739.573410861758,363.30307984749,537.627204767885,14.6837050188811,720.930161765511,-3.27459251909238,554.850325159143,161.413135153347,255.404192317871,27.2786235315065,769.617659935606,-46.8534772545411
83.9820243665972,12.2939318574006,281.014960114626,34.8238198833527,104.041615794509,1.28084880181067,433.570805453216,35.9280564728132,729.214327292681,40.1040862276661,276.039574838456,8.08593605021324,1164.05587937183,55.0308347896069,273.246283056922,-20.7531093663516,333.980110912761,-9.80354115553985,763.788624936104,370.548666697676,545.427607175873,16.6989557143824,735.043218906313,-7.69982804538195,571.763189853316,160.034451454788,259.217232063382,26.3492044955529,787.717728017563,-55.2821662002049
75.2557999858,14.8016338732114,292.15205496905,41.4289937136742,99.8580818677228,6.46333476875281,441.34163575138,23.3622324710923,717.846123433632,40.5392902670208,274.430428215678,3.63380386582879,1156.31594097042,53.459378863158,269.371585079541,-20.1001418905911,330.164858419633,-8.85515688285973,734.377742755333,364.937999541859,537.106173698112,14.8046006082742,722.403414184213,-5.58016829633589,555.640531841485,159.405935487881,255.048760857681,27.3376690725175,765.626009826522,-47.9372601678883
85.1739426673359,14.0906548024696,278.42656624583,35.7593492086049,102.030664112961,3.92506761355213,429.263145414295,31.8866735065539,714.746050358908,40.6736140700457,268.45423709539,7.33074064377672,1145.72996044476,56.9235010075936,268.632628049619,-19.6528651342068,330.933667283313,-9.61544834310362,739.870310986922,362.971516799603,538.208429108115,15.2257877684707,719.856882580628,-3.98912037692829,556.251053547358,160.080755779471,255.156308805778,27.1197395626858,773.548794359841,-49.1658103334164
81.8617113514458,13.3642234287227,287.075313687314,38.4018134599436,95.5597381590137,9.9155011326812,433.855578646239,38.8215205161727,728.535772255272,39.5547163898936,270.559710538029,4.4632141504404,1167.34519296356,53.6844494058192,273.539185102402,-20.8022817552174,333.686186303719,-9.09074209454853,768.191761266046,365.419804208962,546.739929674319,15.8505055067625,733.598206933042,-6.18127438753663,574.51694751314,159.456287588178,258.718432316123,27.0022421117546,786.764709055465,-51.5283366027634
79.4480692906455,13.7119192818482,289.94581593536,32.2842049448507,100.024811754857,8.1578542401241,428.851223302706,28.6820159655076,713.570541061861,41.5691426271057,266.642007244276,11.2594474882849,1147.6077740061,56.7953805694113,269.336343974093,-20.0663940698387,329.86995396142,-8.64812004896124,736.346480740135,360.982156508063,534.359921658585,15.121003828327,717.115564281775,-3.1482105351354,550.814725717016,160.084277291743,254.971467282622,27.2357900719659,765.955021709121,-46.2791224312406
90.594157674972,6.47547104034659,277.642992464009,38.3061311973053,99.8779166847953,8.03703199674259,429.909136234448,28.328430080989,712.229835883665,40.7220551756928,274.265080805035,2.04831451669862,1141.75576459616,59.9831782699816,267.935438579748,-19.8298359457883,330.017298894381,-9.78382828954269,732.676520218189,364.301930652512,533.579010974108,16.8396732808215,716.392206366259,-4.00711799368014,556.343543811446,158.542235287347,254.538564889845,27.3719940017977,770.5303836782,-47.5703772481457
86.8901655404997,12.2061332803536,283.915017794083,35.8496488100861,97.8191168069454,11.0780777698004,437.847833094431,35.05428626298,725.83179683275,40.9109631905977,275.079705490853,3.16342687461729,1161.91733316465,53.3125425370517,273.680178464685,-20.8782204186708,333.803292846237,-8.61223857054211,767.970517450487,365.775177587599,547.066137077692,17.0032064750401,733.841002633482,-6.63468320656965,572.637885176822,161.972997156286,259.210981395595,26.6549277839715,786.125842701774,-51.2329945765067
83.7476776235555,13.6577378711881,288.809978636805,38.5695794192827,101.827504322419,5.45943838140962,453.287832648022,28.1918507233804,742.11097907965,39.1765761633102,270.820691103768,13.7172288059297,1180.99869069666,51.162119161575,278.392723342014,-21.4099426636909,341.281480523647,-11.36632200998,774.152660225081,372.568073949743,546.459045120204,14.5667391668601,734.748522088765,-6.23711421143407,570.380098889909,159.167606688089,259.11665601481,26.6202743642578,774.276941258555,-49.7730189353853
74.318389903616,15.3018343123378,280.299648760235,33.9643976861961,102.094862988697,1.76434852564165,432.793617407945,30.2841883620028,708.156796861372,42.0460358085192,270.386596347982,8.66743737480544,1141.52280971339,58.9717096938088,268.76516476769,-19.8676167307791,332.009362555531,-9.34211299303021,729.284737574973,364.244052666851,535.428196192081,16.1275296167479,720.628661984814,-4.19800288340355,554.992060064541,160.908479430713,255.585928713528,27.0679565819873,767.534960480405,-47.360219063022
81.8082457439989,14.2011811003074,287.728594469878,34.8497857628661,96.9254747407723,8.18373528402629,431.464870575329,28.6010245141267,718.899718563931,41.3612659653118,270.902391855145,5.50194000784195,1157.15517964248,53.7292763581988,271.966258974941,-20.7759670112078,332.955442877377,-8.9116053802007,748.176710710962,366.808193388363,541.909002836296,16.7116111491105,726.858889338336,-3.33171626819149,568.769145136983,160.260890584384,258.337336010329,26.8925732732292,776.691865904478,-47.5105672199269
87.7697310136745,8.23506272765335,290.306499881862,36.5977048747959,96.5827181904231,9.38661848350244,455.065598252958,27.3029361619595,735.015873552521,39.6647952367213,270.184105728594,10.3888909789167,1177.89135825905,51.779841621895,277.600458443006,-21.2111017940609,341.122389378017,-10.4319422105718,778.165501539729,372.206136472595,556.801232770564,14.7624390377516,747.555514313347,-8.25705513267855,588.127302801613,161.477815772005,262.623441076505,26.8673065427398,791.931955677467,-50.9964958003767
78.526310400835,14.7650276783057,286.973522609278,31.2716408206681,94.7994859389078,9.03067526844278,438.539741472847,25.3610907175019,715.94090340042,41.3876306067223,272.882364059076,6.42899354839696,1151.64725925127,58.5045912223528,271.839330075784,-20.4790851108654,335.757600668949,-10.1305374070012,733.744769397121,365.089806248947,536.115432348714,16.2784795234036,727.112914889733,-4.80111131903301,560.616559930543,160.270178846979,257.527907970792,27.1622396167243,763.035006996915,-44.0809849887182
