80.1363292337702,12.7180267355937,264.616290968174,42.8786777820609,94.4286393370083,11.364376620373,422.729939068617,45.8847352992145,726.266437233246,43.9620829124123,261.393206028355,12.1196367833436,1125.73674112046,65.7986221774835,272.338861413476,-19.2933726296996,329.085438356486,-8.26159094218841,767.611745180877,375.871192450861,536.219423277354,18.0600238605979,725.451743585052,-5.46713427401941,602.495852157352,154.651779535228,258.536627781228,27.5878373379712,772.120266040864,-47.7683264331848
83.1197025286969,14.6525491074816,273.530961770948,37.9453562811859,96.7685329770603,14.074890226432,445.303864666652,34.4942897222945,721.656042871122,43.9785144264341,258.611322970774,15.1031707136019,1116.1893372891,66.5842638427442,269.421517446721,-18.8652395701024,327.883448960735,-7.71767491194948,734.854509257334,368.989852809421,521.520195339225,18.9021141586059,713.88443645359,-3.90892857146229,583.522225742173,155.130599494947,255.361260873703,27.3952280782673,746.332765112202,-40.3305546488406
78.8843534730138,13.4150502837222,265.263037447732,40.359632149635,93.9700922906555,10.8388453542696,429.002977123641,32.3788952619203,715.272618704124,43.333067279702,261.776800013388,8.25216233397129,1107.54649166114,69.4859013128916,267.66917669113,-18.4403171219518,325.305920855085,-7.84273850792838,736.098115167816,369.27175785494,522.572931606219,18.4362740675448,712.212055870246,-4.7392417979209,584.469824041056,155.235387544739,254.817372780776,27.6740075054885,753.336137950478,-41.6893795329563
90.2506818451627,6.85378030148021,265.798558781888,38.7871009788007,101.958432165294,8.65251806478726,442.660585267,30.9632589947823,726.701913232522,43.604245202034,261.662873523901,15.6877970192073,1130.54562875001,62.483442411198,273.444402519202,-19.6372570636303,329.193967959292,-7.85901808539864,770.162451460752,373.369852107235,533.311541614601,19.257718403951,725.156174872522,-4.19719571987818,604.485873952623,153.677057861142,258.162224488494,27.3247178661553,772.232260360966,-47.2210717796138
87.1829211730929,12.9310214179965,269.398107115871,35.5369828366771,102.858365962007,9.70619435400206,430.843155760113,33.7722387697278,711.636397861202,44.8416745668444,266.106840699055,12.7020581129508,1103.92232522318,70.337424725037,267.199553342886,-18.6214324170991,325.111659065865,-7.94247641623812,730.954234014074,368.312277462488,520.108911688301,18.0629389713792,706.4023335604,-1.02053267047442,580.642525328415,154.100715148496,254.406243722397,27.5725506547375,748.717079329538,-42.5784884733409
77.3116629924325,14.7003209895121,267.126448406586,33.7239164126412,100.481629243707,7.47126985710142,423.080028852804,40.1030092922574,715.072839806984,44.0789968851629,265.724988168274,9.67516293307982,1107.72605219691,67.3139198062874,268.759313144077,-18.9131108092592,323.586464968208,-6.24372296840291,743.201765011344,368.875523685631,525.929360136565,17.9317843290532,713.164562240559,-4.54082046932766,593.536111086623,151.671009810555,254.975993929944,27.5993025551911,757.531581016105,-45.1550194801544
84.96361625602,13.8564976168635,276.583460371028,33.6036213788487,101.209835425086,9.12611388396445,430.378557699377,40.2064515464705,731.156082682666,42.8188489338265,270.365964832497,10.5848434948987,1134.32469856593,63.0505402774235,274.950064970813,-20.100528799945,330.096199144506,-6.62492040772055,778.826857717437,375.539196958833,536.667967473676,18.5766765609202,730.321946408886,-6.08138244008856,612.88193297413,149.499910507198,259.162366657341,27.391054365654,773.340618887638,-47.4421082742767
72.8213668499468,17.7078950818774,265.983610799292,37.1510883522753,92.6679322321843,13.8477535187267,425.9618814568,34.091125480045,708.583038236884,44.1754027535105,249.412602429759,17.3537349593218,1101.89427465064,67.6182950419823,266.284584273123,-18.4303349151525,322.851348783472,-6.31552975536621,725.986617593698,366.872431792981,515.541385182721,19.7240425202984,705.797214681401,-4.99712399084111,581.460418754862,150.272141344298,253.228921055336,27.3945110243371,749.266821138542,-42.0094095810514
88.4464135768851,9.23525240237477,266.493712900809,36.2356656106642,100.543325180837,5.89649712271665,407.250624630277,47.8212323067239,713.800883851146,44.0231199761391,264.289543905889,11.6271161715414,1104.54022755409,68.1381021694138,268.345523433176,-18.844791724309,325.552279943398,-8.29566640565008,744.430035492829,368.962263909378,523.405836232162,19.4419569213632,710.227528385808,-3.16243774797732,590.511044093779,151.678360373807,254.312298800706,27.5789620889644,758.733715592222,-44.6648102166947
84.7004321635079,13.543354389543,281.65467330221,27.8751710571726,103.689497511661,7.33871629997017,435.883635429558,38.2749777068013,728.704954617005,42.8564483976613,268.114678775173,10.9534717371855,1126.40404461572,65.1830300362491,274.274165200413,-19.7993674476574,331.381607154588,-8.52460825321458,769.407784847673,378.23623000056,538.633617595763,16.946876205828,728.591963599954,-6.79845521134,604.888167176633,153.409814714963,258.775316406466,26.9290687515158,773.411028061369,-47.6240304624793
76.9472637363786,13.1175111902717,258.828162062479,39.9353440578261,100.790663438339,7.9537602456009,418.669273710012,37.877468249907,702.701435540131,44.6263146582435,261.400461457726,9.19349401882301,1098.65649191522,63.7995918787286,264.466737140888,-18.1038532222477,320.655080608208,-5.92583483073196,720.386832248464,364.965440931007,512.826948773678,20.5155179288084,700.927882589315,-2.66961389977375,576.1903819487,152.196456474064,251.914313263447,27.5722164300572,746.287653523948,-42.0543745854603
86.2982632292587,12.7030879381704,260.993710487259,37.5540706219015,99.9849016886055,7.2489418821609,433.167444802962,30.3955578333968,709.733245788957,44.3093813646804,273.003920654948,5.99085735575425,1102.47718021521,67.1313795722509,266.928477369397,-18.5108158780615,322.073676621838,-6.6526916025619,732.699254035692,370.249302469809,520.491644327185,18.501310170811,708.606676051529,-5.04508086351631,584.281992768329,151.746131448255,253.257492880169,27.563647553674,759.200486782884,-45.2813560400627
74.6698461721667,15.6676580908885,261.542699665347,40.4839378155247,95.8339024149305,9.84640086656217,433.375891404453,31.5134896713534,724.203387871213,43.7844225351112,265.359326468581,13.9345428420272,1127.0046145473,60.7278277208146,272.858688107233,-19.6830222507435,327.869368488164,-7.53918004167681,766.759818352336,375.18222849935,531.258596564066,19.6970457816372,725.086376302303,-6.36148265552772,601.559652987301,152.383584074483,257.906896465702,26.7804834902464,767.058093334866,-46.5183524925477
74.0295135677491,16.0733936715474,264.282353035072,36.2509524239997,89.3905271911726,15.1820340946288,412.844816157095,38.1673790197961,699.461954597126,45.2799310728781,265.215721981388,4.98984977971955,1089.96526770333,69.2743622364097,263.09531561899,-17.6845416413879,319.448418318196,-6.70299233689986,714.676650387191,366.19878443488,512.058841777222,19.3131246871565,698.89545588596,-2.64910004084125,570.570464943699,153.935343343131,250.659848574744,27.9981183394527,744.740807658137,-42.2772336121695
82.4233216330307,13.3603209222692,256.443866734637,37.3719385639217,94.2342257430413,9.32859393905545,419.125291271849,37.4912856149505,705.943581849597,45.6128751608485,255.049728902425,10.8306372772249,1097.96381257053,66.661276799964,266.088829904017,-18.5179212134065,321.841427357314,-7.51449363241684,732.370819473038,369.838978419692,519.317346356112,17.9901988750762,706.098222742228,-2.74756006490401,581.881363760861,152.34448716029,252.7418184947,27.6195084031437,754.267405433503,-44.1085237723269
81.2725249046025,11.7626174216385,277.913910740079,32.1499620155562,103.281463451918,5.42672540181498,416.298925737875,44.3583428139877,721.302992879066,44.0394825063226,264.535478166973,10.9898595070003,1118.36226476863,64.2634509319907,271.299130431415,-19.5040102810058,328.82219066577,-8.78303772607834,765.035133092095,371.587094048792,532.64656981291,17.708100947195,724.80502456835,-4.86804663775068,598.705056102092,152.032502497485,256.643508376701,27.8691035169602,768.940345730968,-46.5671455452767
79.6870944638441,9.43118265524608,262.657395122981,39.3550111026328,98.5256883908417,5.90898985692301,409.318432782219,39.8065413865282,699.410640470031,45.7867327018144,250.447581016722,15.4688734553959,1086.4640732352,69.0303200475622,263.396716822357,-18.0110765036543,320.161184572873,-6.67440526031613,718.897066492538,362.721189992222,514.073600214441,19.6639181321199,697.684868917782,0.286657463374924,572.288005544202,152.884818742923,252.694903665767,27.2081032161974,744.788236274466,-42.1751987740633
75.1808267250697,12.9889231380722,255.410083211355,38.4259278932258,94.3761778301273,7.11679441593987,435.076754243561,20.2280384026103,706.932948652917,44.6880093860729,257.1206477264,13.0344525253742,1099.23524637052,65.8964328076291,265.932953712156,-18.2822857822764,322.48088902351,-7.62716100000476,728.116808811032,370.651230668744,520.068639081253,17.9078990510536,704.730280309718,-0.881529335885502,580.961612112511,152.919191159356,253.297902435289,27.9952375630006,753.337701627233,-42.0069848687001
84.4477902227507,9.0204178471484,263.813459880631,37.925019866678,97.0616224018785,6.36485364398984,436.672599312823,30.4854161373543,721.375984389349,43.6748508421936,267.658524180615,7.99070687203525,1116.95413162944,64.3644225488457,271.378135652791,-19.177680734274,326.755968199072,-7.79390490684937,756.150216102649,371.881979235111,521.803234280757,17.9686054111448,712.673403573985,-2.96570474552654,575.413810984713,155.478551574491,254.211962541958,27.206692045325,753.059631580465,-43.9179078915262
83.1270737902827,9.38666199324282,256.957792092097,33.6919390369118,91.121061306271,12.2813647940544,408.436645426226,33.1823834153211,699.336055231313,45.5589431598032,255.009690716058,8.59683837504407,1089.20546310854,65.536991836503,262.545949958421,-17.5480883372677,319.049605342092,-6.21850867339301,713.776196242291,364.510857886357,509.848801808514,19.4780681758062,701.144394991964,-1.67848726691992,566.42407330532,155.3510748394,252.454802744652,27.5168593751424,743.341438901568,-40.4486027770997
66.7538092113944,20.0143928750885,266.05464213774,33.6039015721692,83.6607846790932,15.2443919372816,425.524582099832,32.1190325127613,708.282871004419,44.6248092836535,247.873867970679,15.2597843026177,1096.51353289644,67.6657799171121,265.602005432966,-18.3640946159068,320.260660454005,-6.16300797578047,736.928252832084,366.648161517377,518.894365452999,19.5832370530408,708.890981638086,-2.77092957882567,575.205726701289,158.104861134342,254.628649625703,27.4538102375115,756.164016860099,-41.1257876546072
76.5347813676827,13.1432143427874,259.764824097749,38.8709091104035,105.157996195926,5.85392986676581,425.025289327954,33.6316521189693,701.070662450649,45.3282366648192,242.669334082096,16.8255148175708,1084.56833301013,70.491114718177,262.292737887006,-17.7379212263999,319.3511178908,-5.62785369444138,707.899778992497,363.223729347007,508.012359866726,20.0446560754012,698.974322102824,-1.91761464942932,561.78926816166,156.284696602199,251.720290080432,27.3274946069838,741.479931301722,-39.9392804569623
70.124011831219,19.7407295250578,251.461889605223,38.2286217113791,95.1579312586364,5.49593512212464,393.578803534657,43.5567739987446,693.904984531934,46.0523818285368,251.392051900652,13.9580398513571,1077.54031451114,69.5629123614677,260.348499858659,-17.6102872197099,317.093270168705,-6.30127491586769,703.377786770217,363.262947886066,506.050585106793,20.8054977061878,697.560917621041,-0.977398845616461,563.020311188784,154.606785503524,250.735680288186,27.9565914690422,741.640404777789,-40.1490087091065
84.3052311294637,10.5847339672086,257.991180016913,39.1338203183704,94.7244984876569,5.02009469889298,411.936840247199,34.6207275842269,706.179210916764,44.7303660081166,259.341584830187,8.31911637777256,1089.15350029342,68.9811487493499,264.31433964312,-18.1918866884654,319.6094859459,-7.00956161203399,725.473926986264,367.820484862654,517.8852758146,19.3076195844654,708.047183472479,-2.88120843200455,575.428661556307,157.234826367029,254.04600052997,27.9110058440172,755.41946688056,-41.9937394148811
72.6977667181263,15.0052716953003,249.3615624391,42.7101613943351,88.1305084192294,12.3966504229727,402.724918021343,35.4698232523824,690.613550736931,45.8294991369369,249.592081108881,8.70351918896687,1072.97391909357,69.7034038104308,259.098187830212,-17.3641624278705,315.75789620947,-7.00273651324483,696.975805639879,359.782740237454,502.255890976721,21.3803797900298,692.48603035478,-0.43519712372757,554.132050223477,155.416131490909,249.784847324052,27.8954070539129,734.849944501006,-39.2592676621573
69.8515333329996,14.639759056716,247.971153276014,42.8216204608127,93.4227512369121,9.73692152185222,399.138895122565,37.8197058543051,689.245130491887,46.0423639028332,247.477661120982,10.9266320928555,1066.26873908466,73.2853956128076,258.521825161839,-17.351037230146,313.916206301137,-5.65850506301213,699.436762064747,361.91863065411,503.100558563258,22.4784336185346,693.376068723356,0.0305285847295193,555.537829146145,157.149973994563,250.639206880332,27.5499143052493,743.231583829285,-40.8895100129747
86.7643177181525,10.0185244930492,259.449992049113,35.8946439062723,93.464709397288,8.11150616902489,421.047023037403,31.4110769258652,704.827180201032,44.6606023525131,250.464620369099,12.2880475177729,1090.56517516648,67.693548229667,263.717898560585,-18.1653003717169,319.255152580327,-5.93599786080041,722.372063472827,369.040019329015,518.773096127591,17.7458649653399,706.171206997924,-0.733548081963218,569.08605022733,159.100829463674,253.82090431459,27.5918196359595,752.433630228741,-40.2812807199576
73.2777191879464,14.9650111354293,256.508636695623,38.2248178157637,92.0995127668753,7.96977092360749,408.84616510408,30.1384168827097,690.25181539061,45.5083207470162,247.913858790578,8.18254128051219,1077.47459121986,67.0046210877143,259.291250771691,-17.470662840335,315.7104501718,-5.37000876578189,691.091440459418,362.204858505054,502.105513580653,22.4757860915436,691.064682783177,-0.417814982816753,552.633039126415,157.979846307111,250.636936823027,27.6030726860416,732.139960227631,-37.7589013938758
70.8994358751338,14.6473721282162,250.674561717055,38.6959733184101,84.0119455935553,12.9169670920143,386.415018615278,38.6806784359522,688.332177042627,46.2936079498666,253.251604949631,11.0555315730954,1073.27452325821,67.0789027757315,258.982270300376,-17.6001967655439,313.92218467888,-5.14399241871024,694.360551891431,364.677672804558,503.019488999091,22.4911116563303,693.690409388964,-0.74450540873749,555.245886851712,158.771972638305,250.8626376301,27.5299482034318,736.064757937757,-36.5096424852399
79.5994494489871,12.0866043186823,253.054946725904,39.4794878895672,88.9925382387877,14.1696834474714,404.794944102362,32.7639476632443,704.307213500077,44.8928744806968,249.075077925695,13.5228982183799,1091.25817799358,66.8771427718214,264.171966882188,-18.3161770239732,319.277972805489,-7.05276272133614,723.552284665959,368.711954552454,517.233997330274,20.0662842430324,708.872568676173,-1.26902708193276,571.505368273035,160.260205186314,253.917778792061,27.9555052388312,754.079748172367,-41.658042627287
72.7356429306277,16.087484708873,261.348142538911,29.5834866379327,87.0432824490479,14.9375612481279,400.018383969554,34.8357688624549,692.408097604373,45.8161642610636,246.793755421488,16.4636962800781,1081.62729472544,67.8566914626248,260.051474984541,-17.6275211820959,317.596476428159,-6.20198364722252,695.646199448659,362.19623497994,507.535410938716,19.2761956126306,700.627557952425,-2.72753989732932,556.577507205445,157.559204131989,251.675829765876,27.6208209995802,736.454361495059,-39.2730547584283
81.4089368737847,12.1674988970293,258.270839378548,32.5721554744786,91.217443503029,7.55596451272142,405.497432024069,37.9773906972635,692.005746809899,45.4588923272248,251.370769150755,11.4768047130909,1080.21287438286,66.6357805914586,260.408630861933,-17.714471901982,317.504001257092,-6.46283596387676,697.530331455152,362.789252228256,510.51135679889,19.2867973645989,698.389010738216,-0.512587066902129,556.758044358661,160.085814985283,251.448637164417,27.9034898846008,746.609373734076,-44.4367881106706
71.1473148318054,19.8070107225814,266.434291148609,31.0518699237092,94.9276289227213,6.5794720101937,416.118116821203,31.6422898384408,707.163489717567,44.1092578864521,254.636750496002,13.7491538137926,1099.72259474792,63.9200144840138,265.209323238764,-18.6717161819527,321.876455644933,-6.45784617139689,723.312096257875,371.134556252249,520.471609424676,18.7875403504177,709.383724431343,0.302124365799056,574.061252651443,160.816331290309,255.10434059798,27.9041067257388,756.266976405916,-42.9529434220634
77.7132190274306,10.6248157292403,263.199613778677,29.4064617779647,88.8721793152219,12.3039443097921,411.051313448402,33.411787174997,693.67529376262,44.3372123898157,254.02518048266,9.36324125135811,1081.2262834117,66.8935110279362,259.842603515813,-17.442837541131,317.272320638195,-6.66053762255644,698.39462344857,360.914477364095,506.603283891664,19.6077538470508,695.300758510601,0.603788080424873,555.612666756894,158.548897256135,251.700927712902,27.269692305327,737.19688092535,-38.5749852353715
69.484223832783,18.502973495281,258.895465371756,38.825740388962,88.2515004729695,11.972775586227,402.48696651784,41.7294090897491,695.316402741494,45.1455344687274,249.602742754728,15.6248657256635,1084.3012938018,68.8095134150328,261.387060367669,-17.8594464824444,318.066865773051,-7.17073353405484,706.590397270312,361.467543154153,511.891616049986,19.8567917063037,699.236075327497,-0.440186464706891,564.413166928548,158.168324840369,252.338825082154,27.5250847428263,743.723909148854,-37.3216862817072
76.5331655836188,13.7061757695049,260.565502883223,36.826316469245,97.8030550956391,6.57994200603509,428.224106159935,34.0940389897362,712.551786510846,43.8648945001282,252.624363348933,14.7659306135977,1108.74361109713,64.316914769991,266.996088838311,-19.0345335438681,324.705909572656,-8.38428578716531,736.956285001004,367.211794649874,525.514911818418,18.2939948346157,716.902365132485,-4.06817652843562,581.931337919603,158.259105837652,256.453164270156,27.1650169036716,762.348746782476,-44.3476108272339
81.6474149029335,10.1089375069438,262.189313766777,37.2955156270686,91.0025897128716,8.5360200550824,411.904204447773,32.0866639237164,693.426711739194,44.8448358262169,246.248886515778,15.0669497120678,1085.72636064645,67.81368290241,261.289154981541,-18.0894854974436,318.729209727866,-6.10671277697435,692.171385201922,362.918170206862,507.931647892222,18.7901438128424,696.527558827244,-0.60711667425865,558.518282185858,156.574117467361,250.930225162068,27.6184295455359,740.766969795757,-41.2971170891814
72.4184590760894,13.0397848915092,264.582650106683,34.611546870612,104.555336142166,2.02634061442886,417.995955977551,32.0011763016641,699.608880035082,44.9181555577855,256.827804301778,12.2066485613942,1096.66303212958,64.0631112316922,263.057443644454,-18.4048130762883,319.710961357336,-7.41753754731199,716.085123859378,362.574824283131,513.387120018546,19.4393153305314,706.109699804764,-3.85160275842241,568.660223013521,157.585173458486,252.528304327726,27.6954148147103,751.463927107425,-41.8315927730694
77.5073349515429,14.8178444240879,271.593500954065,32.7690398359938,93.2102863082598,12.6233887446177,430.721003136427,30.3380441893624,717.583524663174,43.0815511146028,251.395012875751,15.0097952290053,1117.851319605,60.6423196629382,267.310235479283,-18.6120710648446,324.392621477165,-6.60787775846349,743.300676732615,368.567529661391,528.439640460722,17.1014709142156,722.495431721737,-6.03979986556473,584.678741514648,158.891126193295,257.180143062265,26.7256176691551,768.310228115917,-45.4956337689802
80.3823076532562,10.8288872890536,256.871633402869,38.0283964549291,93.5977180164487,11.7424350206598,406.535890691158,37.2468170819289,694.594504111453,44.6838992580945,256.122440925289,8.83920913150678,1090.83753706416,65.3700583097261,261.443254378765,-18.084068493825,320.073174412992,-7.86050168168014,697.649318324077,360.067689297087,507.064824618986,19.9438443389992,699.211289055908,-3.11905762355929,559.983303095776,154.588017194731,250.754001065252,27.629229863167,744.758032943523,-41.7693440973711
76.6219598357517,13.815056175445,263.220114747633,32.9383995861371,90.8046061401742,11.8803683758983,412.824722884723,37.4369737430503,702.956152866164,43.4840418181163,255.460252676458,14.8436241070631,1102.0202483554,62.6391408428872,263.046799950811,-18.5171752063647,316.561799187203,-5.74173034586961,718.396925528579,362.944765248839,515.688501189011,17.8907474323799,703.869024185533,-2.77686152078252,573.230162197936,154.80483563682,251.684540824278,27.5519600661194,752.456588467094,-41.1675096576464
71.0315210272486,17.0239206034378,264.782668893767,37.732749095478,91.8190360634372,9.66875422240581,431.35991524936,30.7058603886683,719.451405369788,42.3732853215373,259.351277851651,13.617372663185,1120.76839783401,61.5830637177122,268.722487422604,-19.3652777835878,324.130607144788,-7.3055118099937,741.245403408792,370.089347217236,531.418420864299,15.1293685615425,721.36686225588,-5.79658314579031,586.720014569379,156.857237327875,255.348114063985,27.4526112337768,763.71220519275,-43.6431900838279
73.1532470438802,17.3228748965167,271.792165180348,31.9939647321697,95.7482392596832,8.01427413639197,417.793723256997,32.1424109864281,695.32681219547,44.368883060844,257.616899936698,7.61199085921182,1092.30639703612,64.4244275816319,260.503090175415,-17.8283901220393,318.027459018432,-6.91190659678876,701.031814330262,357.824299429296,508.440173785155,18.5963407731205,696.37446051701,-2.15828181377884,556.829975758301,158.219332657941,250.203450465461,27.3146878490332,742.778557349259,-40.5334137964353
76.8243053188415,14.2401046421147,257.108399006923,34.0560793335789,98.4995500321478,9.33051924506722,413.171258704624,35.9116953532111,705.067426375583,43.2753913376145,248.900082499643,16.0646180739902,1104.35661148846,62.4126257295725,263.758449747428,-18.6690061804947,319.246645187264,-6.66060539889618,720.412181742252,360.524777300323,516.895441857361,17.4986490503252,705.681464854187,-2.67357053018041,569.052440739773,155.91377295654,252.644828436655,26.8193138992859,757.451540411578,-43.6871165784999
76.2272017444613,15.3562409765496,258.563181302684,34.8259025516784,97.0012971348765,7.10821574546177,428.768030644808,28.5435378599157,721.780667082954,41.9180890569181,257.828285274896,11.053474122884,1126.9797936006,58.9177586063262,269.166978033552,-19.2203607351012,324.490692857218,-6.93836887443236,748.022184475557,367.209325682855,534.030825382253,14.1470401561054,723.030844761482,-5.97754669602461,589.734791207466,155.45562932416,255.989236149822,27.12975101177,770.997896318211,-44.1677259091225
77.4982534534985,13.9860578398246,253.529101627094,36.3604281558312,95.6589926331538,8.41927775631436,401.995414377208,41.1693279624009,698.584275687298,43.5111849135123,247.485861326872,18.3744541185208,1096.1557456506,62.3578814642811,261.897698316005,-18.1686407709383,318.831332478179,-6.94265652968946,699.443263608822,360.342734131651,510.005235370061,18.6065616976465,702.436048822617,-2.76725693017346,562.36127763762,154.253427409485,250.884247003263,27.3709615642844,746.851900997549,-43.8778019064981
80.497703352753,9.82438697744941,270.424210671013,31.0041499683494,91.6050715579859,10.8263281458343,403.214186032704,42.3221826840222,706.47572938407,42.7979337429785,255.918989759088,14.5645427344987,1104.10443170429,63.7161459740896,264.658141018328,-18.9250030231228,320.585986705008,-7.130583001456,715.326240894116,362.953857754988,522.186234220323,15.3957448001692,710.051761636147,-3.36057291034107,572.845168046793,154.737699959718,252.803912918439,26.7945583359547,755.278957988897,-44.076065431484
72.453047198591,14.3426958510509,248.193489831144,44.2041939161307,98.9872748010442,9.15813342707181,423.004989469944,36.7237785132362,722.739958045241,41.1810354628731,252.939833402123,16.9834443793655,1126.08722614071,59.5962304704938,269.225373501612,-19.4388671792515,326.248452728492,-8.5019899844404,746.691068623478,367.696334130804,528.083521217039,17.6002514374663,721.184873427749,-4.87874674258963,584.835941388682,153.618593314394,254.713005859763,27.0524216877777,759.911182706526,-45.1018434868592
76.0388592821181,15.035078813432,264.635017865437,34.8773604584461,91.7120184046603,13.2548907027733,411.331598317279,37.741862751903,698.58825260285,42.7927741336023,255.829624931911,12.5568865384329,1102.02174888748,60.9877244679456,262.381102770124,-18.4675292011861,320.166535863396,-7.43013860136056,704.821774202108,359.353356470875,513.489897167021,17.3209679339743,701.385105681978,-2.44751258874444,567.801986467588,152.435078428793,251.264783373493,26.9892720642952,745.611465049245,-41.6786862636472
78.9890350167812,8.85885983595014,266.771615458672,33.5281344601984,95.2648964972407,10.8299956543671,414.686334290151,32.4384999216484,711.691652056117,41.3822662271383,263.032876920893,8.83736848006025,1113.08858051638,59.474547342345,265.740680545647,-18.8151433976628,320.300818726363,-6.45464122713121,726.708603486931,360.362686820724,523.883416699015,16.5278367936828,710.698514381144,-4.31359083009496,581.092876372866,152.261945551938,253.41126702329,27.0991298599112,759.10836333002,-45.5680560022299
82.8192434376501,10.9959250347941,271.396456389862,33.3542632358755,106.775448387004,1.60615050882153,430.166141278854,30.8685497570118,727.815875225382,40.0156263159025,266.086207785281,7.95221568382912,1136.79188773785,54.7111454144726,272.262162280914,-20.2998059310031,326.919154391147,-7.33862835584155,752.729695904862,370.184670611915,528.672907538684,16.0551550508616,720.141297456471,-6.09782498367512,583.652158120193,151.707919706721,255.317440610332,26.6753796584249,757.981027566199,-43.9128674870306
77.1844890974406,16.6499874704107,262.063735756096,31.5118683342346,95.3236354806892,9.21952567074679,409.258207334295,30.5040040565036,702.579987976794,42.3648856530682,252.779154943169,16.1936563139918,1103.78149688223,61.3172938011069,264.037417346594,-18.8456898775239,319.794774998688,-7.14438307668149,710.845422730932,358.427754232277,517.46124484146,15.9507494267083,704.546750733116,-3.05442446846884,570.857285323649,152.248280056895,251.825987292129,27.3330540959472,745.22954534005,-39.7997251712684
88.0189794620859,4.72251549490056,257.900635681731,40.1159404783323,97.8136776316392,8.34580861371216,426.20392545782,28.7991195222532,713.28848961246,42.3001714508301,263.066267402885,9.04123329573814,1120.42273638186,58.1880797390581,267.445755527503,-19.0770174997161,323.075885421246,-7.16127477926403,734.219470741135,361.431822068429,527.002682578906,15.0927785330309,716.536415528765,-4.55173847555132,584.037553121899,154.684666313671,254.880652997638,27.0152924386715,761.435964370707,-45.2268543820064
73.774163793767,18.8793567705632,262.882958019331,40.6142669421913,101.53876357378,5.73356628856413,442.902462365178,29.4728219626468,730.839470210304,40.2208704126419,264.220017666611,11.031934502797,1136.19455636026,59.8844165899228,273.779570373456,-20.5239938622628,329.668980510051,-8.53716077341734,760.594291979357,367.890883823962,536.61889578008,13.9026793053389,731.50340539581,-8.94577177962274,595.083729299765,150.59442067699,257.317230470258,26.6207885350691,764.248062880438,-47.0795112060907
78.2995656660355,13.3466919493219,258.269002540211,39.1871227152291,99.7701564597826,10.2567369224265,429.470693416052,26.2134004005981,703.976039542851,42.0450433137706,253.3489411082,15.6998103219692,1111.05312918316,60.4382913722661,265.740075314714,-19.2636455033329,323.887030255978,-8.16847587267619,715.059836244399,358.471599596443,521.084354327182,15.4397084516283,711.53435717472,-4.34773990913497,577.58261388946,151.108211920278,253.88824960466,27.1614223500019,750.924378269205,-43.6542993509881
79.6986938252416,13.9656576635308,264.940712857193,37.1270515495158,100.348265322193,6.78703771941798,439.162253890208,30.9446084703727,717.679444089123,40.5343995037497,268.930215914396,7.10021749082272,1124.37811788924,58.0086827686101,268.694276299247,-19.4775063086018,327.597136331648,-9.87607060505273,741.157607874104,359.483636948453,527.916341568096,17.1344026704803,719.768173037339,-3.93543526459319,591.13639543487,152.063920076533,257.071590850921,26.57902792583,762.412515259835,-45.064624129424
70.4017953587762,16.0028029702072,278.693269913518,27.6549950346183,109.223897872994,2.25845102933129,445.397248075262,27.5456417308512,734.203582312604,39.1802576644357,256.820603452672,17.0725074072684,1147.75470314137,54.9751460183239,275.687771157421,-21.131996417967,333.084141808069,-9.37287703709313,768.392234336917,368.486143728682,547.270100885817,12.4378265485451,740.254795858658,-7.91711450037519,617.091577712741,150.686629092241,261.92688066236,26.357068605678,782.086505262707,-48.2984472752084
86.6950210508782,9.60511896096898,272.621181644229,31.5998059088063,104.331694268244,6.63260193546127,427.962404786102,35.2413101568763,711.442144711295,41.7901357613956,266.058493911691,12.1440687640727,1123.48899019802,56.5955019429095,267.051501897824,-19.5957612399168,327.571961851496,-8.26999007698054,721.329993300615,359.418313070869,527.148483493059,13.8117323239125,719.373752913816,-4.00863893442306,586.623674025693,149.479555189082,256.819685856819,26.6408663181728,757.359688570359,-43.973009673885
79.6437087624832,18.4419519908522,267.945164680195,30.2435678431602,96.4906265571478,10.5563649366417,442.367919893482,26.2997205334895,719.586872319539,40.8274087659285,267.92381723298,8.66692295880124,1133.55406510633,56.115891943453,270.825855918574,-20.3208487283188,327.795281461395,-7.72500501930142,740.385264945911,361.953120664617,536.497022436777,13.0365779284197,729.795721063611,-7.72250753825198,599.015660114731,150.58517693559,258.936925300367,27.1488711756304,765.040060546871,-44.5842279377333
79.8741921170474,13.1398194499717,273.401987767138,33.2360489226896,99.2354574964939,9.92172619814066,454.086556802666,24.4857322817764,736.316584333427,39.426415721209,275.543126641219,5.3833553595671,1152.18579678322,55.8661595422675,275.160036396386,-20.7929891141378,337.640509867926,-11.0397428930257,770.02136151019,368.80792552269,550.828239547758,12.7151326260913,747.003923810599,-8.67254037287095,620.291082683564,150.476260743721,264.237151935923,25.9364255468692,780.673905033137,-47.816369730314
84.5394423849868,11.0804698990683,270.443375866312,33.8318228392814,106.832806597906,5.56953162136274,439.06765897799,34.5216526729719,717.790223375486,39.6719935502831,265.852223685922,7.93195761383746,1135.1032425686,54.565082907074,269.053520352871,-20.0975794000284,331.579927305508,-8.5527478349118,729.594119510414,359.897414825762,531.366782439405,13.5336579703812,731.232986915715,-7.81637088072295,596.555340127198,149.124849130282,259.732717453532,26.487498967993,759.416270127044,-44.2064829280271
72.4451495325984,18.6990240797781,264.3975148215,40.6570318998831,95.9292471853809,9.2390366167216,446.859366193873,27.2174749732394,726.091808229384,39.5266326057935,274.513607444833,7.29075516901469,1142.51949346066,55.6858750524771,271.783444937779,-20.4249306164919,334.5997995652,-10.0652057192432,749.825258574309,363.730270582403,542.871074482125,12.3754569223165,741.830200069693,-11.1125976213814,606.541317285975,148.733862408189,261.32468605271,26.3010594849653,768.144179578743,-46.952460756405
73.6496535560167,15.7934850874797,274.225146944081,34.0641871321552,105.280406349944,9.28601920486798,445.809183492556,27.4944565047728,742.941145973433,37.6945025688817,280.030935769141,3.23195901672576,1163.11966760976,52.2823297159619,277.58651059256,-21.4198204404108,341.559572960307,-12.5343110307565,781.622993535674,367.822626360939,551.079508243026,12.0139288467449,747.950425304795,-9.28569384388831,614.58275948742,148.582080069367,263.642772820907,26.4001259739096,773.630967358844,-46.8267183812364
82.6922133332857,14.6324967824976,270.166654282949,35.7962445753374,99.3094875521659,8.39922475149064,447.893728991107,26.2422636515578,721.968659379668,39.0809487489482,267.554225010165,12.0158143349903,1143.06060925948,54.34119763218,269.735581645189,-19.745944509166,334.102063613232,-10.6711676745,738.723768963353,359.85300641169,536.990340972118,12.7737992305653,732.290313873355,-8.12493972093359,599.576282197189,147.853095521721,260.538449213859,25.86400910723,763.749259316113,-45.7368579243248
78.1251110369336,11.7266527687902,260.970519000201,46.2144273992127,99.4941673600317,9.48011525024646,447.052970407033,25.9406381853627,733.422356567317,38.778530963748,268.327822077683,13.8651700167397,1152.43494563567,51.6379680421953,273.076193462284,-20.6455311154965,332.625455474309,-8.25803557072784,758.59910203542,364.307239954091,546.650749102079,11.5007908092803,743.525122436601,-9.15577792544406,613.208104687488,146.873915563783,261.922787289277,26.4025447338919,778.13730782799,-50.8987657747396
85.1940887875363,7.10454936999513,278.3239192565,29.6524756870558,101.561534872295,6.66466544153546,468.244938741329,21.934174763821,749.366303312175,37.5552446491062,274.244709935544,9.24294209687465,1168.20400687676,51.6517113678306,277.693538079722,-21.6945138118622,339.32813389344,-10.8739341713858,771.346433461885,361.783542302933,545.198189345531,10.6441432224708,742.365597954643,-10.864735888505,606.182395120352,146.928058130026,261.491078324362,26.1518691241113,770.859352421295,-48.4143110149707
80.4194882628479,12.8245505905431,278.143855080874,30.2536539679617,103.233225326761,8.92997967918509,436.828715868969,25.7795726583486,724.521970396572,39.1486480700072,271.607411312678,5.19282986828797,1146.74913788034,53.1336281808085,270.489372708849,-20.5459419020416,331.359060895503,-9.08146379158961,742.24354666867,360.378928288361,537.591776852122,12.1180908600584,731.745822854397,-8.9986920526363,597.224168377526,146.437732523948,259.733851354449,25.6920330334073,768.071537874073,-48.479293031849
83.6321340181349,10.7447036462698,284.775121665138,28.5704136025453,98.9463334587686,8.57581401831051,446.738381083164,30.4063067392206,735.469197361278,38.690133219238,277.837329536344,6.98896401892722,1156.22579821292,52.2894195094936,273.550872180689,-21.0137526658512,334.201381829921,-9.82504143541704,766.594637276809,362.670819520409,546.921892478353,11.5472805247811,745.000231451558,-11.4198688834215,610.50059515062,145.466674373327,262.167393160415,26.0450035131742,781.625490244135,-48.8236003581601
79.4387517114692,16.1227579647531,287.267753520542,29.0446554054013,103.939223248328,9.09116151241966,454.779446686876,31.9243688293901,752.244321692223,36.6974966043736,280.754887185231,9.16466085212255,1175.2744649638,48.8006136934623,279.590543986451,-22.1939415320118,339.603974778714,-11.0859312926068,783.511285731144,367.401954189751,550.246487752388,9.43285784269225,748.574170885667,-12.4139644909069,609.395414314617,144.853858634176,261.618365680381,26.0155199266896,775.332443820152,-47.899228917887
76.7823988806695,14.8770566484793,264.048449125813,34.6520516392845,105.586770709858,5.83866474628966,434.036153881125,27.0598249109812,724.237759420382,38.9374312816553,269.830563272282,10.5231913995898,1144.11691792495,52.8235981790166,269.706324645044,-20.1445178577195,331.144692431957,-9.34837685241327,740.247226834901,362.409031307325,537.32138802104,13.1377255144426,731.755403830831,-10.243040573983,593.152379446945,146.1024303996,258.395083487124,25.9605377823027,764.18851212328,-46.2658516200567
83.1309678576595,9.25579013289988,273.045971067833,30.7476904411399,98.5010189753702,8.4435763600235,446.690486228184,22.1783625470308,735.456889837441,38.0941662983418,271.637136424562,4.81609262525633,1158.26574561279,49.928922895933,273.804420353361,-21.4005682235935,332.957733927188,-10.0627437490484,761.756894923771,363.995814461056,544.558757069582,11.4382357922344,743.212145058172,-11.6943844884343,609.541311316922,145.18875527319,260.535826451214,26.1778190491677,781.58638409772,-48.9210525950071
78.9045349992655,15.6481503174989,278.700108678426,34.8009352956282,102.905194135898,6.96407182801057,457.507883069332,25.409694659137,751.380623875963,36.0844279628368,272.507083387312,10.9715998769054,1177.86665110568,47.194718744561,279.467690052601,-21.7033879146343,339.169447626985,-10.6511033122804,794.76753933453,369.951870607404,564.649393939859,7.51512454356604,762.778988014386,-13.5984204410479,627.375622104118,147.55300463876,265.103384512684,25.7897656272835,797.691440776726,-53.0854325505409
81.9463753417633,12.599378846165,263.63150565498,33.3610713492482,98.9323197917324,9.59554885760465,436.385834376573,26.0510966806581,727.630604022073,38.6848236449958,271.760751633747,8.3325921100727,1151.52732246671,48.7953690131077,270.572613428832,-20.3153477443752,330.526293578229,-8.12984699373578,738.639920613,360.021212731183,540.207102394186,12.3058897030912,737.554826007756,-11.8957794336686,598.961455132057,145.47937615576,259.308228631886,26.3348841694626,774.671301149331,-49.3056020594046
84.2667234727905,9.73592940912627,273.701203815633,30.8512876781527,104.108949170861,8.16743612737645,437.657865278599,26.4002506692392,736.060767993965,38.1067832515027,271.225593367073,7.51100988579466,1156.42645697846,51.8364119139259,273.562100693683,-20.9253892769286,331.591346087901,-9.10151318742495,760.201058906943,363.951712520637,549.117229247467,9.67409947012733,744.316649877384,-10.7994378338259,605.170418508566,147.504206442283,261.08746063254,25.9400353918641,784.331128502749,-51.8569043157067
80.149076640458,16.2775198451495,274.20607205061,36.74290762008,97.4822620900073,10.9631787430545,457.875317532368,21.0063492245319,751.752256701661,36.1421548929787,274.242110454212,6.86012012811432,1178.91381506087,48.739834023978,279.306707900613,-22.1209481785242,338.111093630426,-11.6887958477583,796.418279449726,365.316076510535,562.013296101028,10.1536724088063,758.952834646794,-14.0374128170892,622.316202608992,146.171658572811,264.097706742108,25.771843101861,791.450451341517,-52.2710892294337
84.34975413918,11.5993715950947,272.413045047292,30.932583808467,104.348499180303,6.23922085493768,436.59202199663,30.9368209324835,729.785000593972,37.9313221771255,277.265193127314,4.33852321742715,1154.9862311562,50.6622898082483,272.158698068031,-20.7939617044588,331.618986874223,-9.17718728805591,749.330848727651,360.617408144002,544.05769654522,11.0261875773978,734.496568304413,-8.38542061996705,597.956327468941,149.776548766837,259.773203285059,25.966690356238,776.861901341299,-49.9257257841146
74.8611140980173,13.2983231680406,278.283928535446,28.9557478666635,100.564680885417,8.46979324473425,445.627589110811,23.0165707430531,740.591607527113,37.5430675019975,279.516294516562,5.90025150744964,1164.50796291661,48.207719961663,275.697379591789,-21.2724341522417,333.759891828804,-10.1864088433301,773.15305687455,361.319077664276,552.313760741366,10.5302662280439,745.029643354495,-10.6136725344057,611.486866092702,149.223623165891,261.672078235184,25.955724564623,793.554260734459,-53.693429286824
77.6848289444945,12.1748930601482,288.800968537828,30.7561421512793,105.679705362482,8.60802686250403,452.405674040053,27.0698289533303,757.429541539219,35.7101500132081,268.392151064739,14.4839429830342,1183.89644599634,46.9258271047751,281.686774427469,-22.5160036239877,341.700606765767,-12.0973841219541,799.152993416203,365.82042580492,555.047689752814,11.4105780850807,751.880269389153,-12.0478213536211,608.535375984556,149.005758133277,263.143330908983,25.7896329204252,783.973406764898,-52.1672624708749
79.3886423003627,16.4751422190177,276.176685869842,32.9949496656542,105.026030745452,5.5726131080798,443.912528628514,21.5392059675122,734.879709031653,36.6493606090628,270.27441377151,12.3853779762873,1160.26602667851,49.5854098295428,272.570164092421,-20.4255904619017,333.173850421643,-9.84408316598729,757.999537315607,358.22779162545,545.061886998393,12.2224261635569,739.336685478598,-9.90444612441977,599.665705800352,149.602969079847,260.90169206733,25.9744539805115,781.422507955693,-51.5721646377572
82.88430661625,13.2613997146114,277.372563555172,31.3695170498726,112.853543146498,0.0420963536565232,446.22317692005,27.2636684732305,746.812888645009,36.2987130323446,271.766631002445,11.2106004174601,1170.30515583273,49.7391516287276,278.17850736541,-22.0103888987989,336.924199838598,-11.3815661274716,776.676248298275,366.31581892485,554.29134488589,11.105954716278,752.581979976253,-11.0201271548045,617.646868809189,148.384038155368,264.195826277508,25.8079964367454,793.492970859562,-52.1723122416045
83.5782066363747,11.0323898230435,296.490772876592,23.0467909978103,92.3116675481272,10.8531931443861,464.254211449684,19.9255027950535,762.709934532459,34.726959357471,294.797931394911,-0.160428306533495,1195.18658419934,45.208063546538,284.578791307915,-23.2446360091555,343.581388326468,-12.1821795923157,811.728085188114,369.130269275951,562.858781544178,11.2380525229711,765.025766680042,-14.7772429031338,622.408862665498,149.562196798884,266.237315013408,25.7249039214926,795.251960200275,-55.0979888056398
75.0777499111728,15.3916588116712,271.987387942606,35.9893859770239,115.781264659879,-0.261015385760973,444.616463894801,25.2186910184053,736.549242449363,37.097539063286,267.040640012287,12.0592221941994,1166.11477907515,48.9500869472375,275.198032121929,-21.3202653098799,338.954411256476,-12.2156606765207,762.039579721154,359.97457474855,548.414731810085,11.7621126366855,744.497873249079,-10.847358662663,608.756071898419,150.167204205585,263.067884105502,26.0224884020505,785.385312485941,-52.8196368801694
78.8767129405223,14.8751608021875,287.475778162579,27.6794864906903,109.808095715087,6.77665384794062,460.984243288624,21.5539407415746,749.430488858268,36.2590255122501,279.597708768585,6.27128377864394,1178.07247988544,47.3965111954149,279.873816613388,-22.1819263469582,339.97136131142,-11.5463479413525,783.365717273453,363.385563250354,560.586956103834,9.57620604090002,757.81997133858,-12.4493155773348,622.110431998402,149.876775791561,266.528743687008,25.481533742347,796.381376684374,-55.1876355429942
93.0891691322903,7.72149935951298,286.167094629717,30.604029176487,103.037489254236,9.79406635373592,466.323147314353,23.0740329116512,765.654467723803,34.7898175399963,287.154679073169,4.49658811809583,1207.21080377454,41.4594891351702,285.470079174857,-23.2963760691884,345.573210477216,-11.6401679275588,818.200336217269,372.966712464847,577.218623563558,7.84018724996868,777.904746154992,-15.6825387812787,644.106128856105,148.974266580554,270.784434886161,25.2721703783047,811.446233071424,-58.1388716455082
78.5669697320089,15.500584087031,290.614910116624,27.3214164000611,103.770487367275,8.49764718342676,462.670054960596,16.1296187052773,743.152624545908,36.4919400353865,274.768633061634,8.44608540826087,1174.50384438482,48.5514356169537,277.00105550529,-21.7925962874102,340.724190365752,-11.6235062796814,768.949085447413,360.744160084617,555.011160912404,9.72678242615554,757.565047722191,-13.5643202396368,617.47770804475,147.244728020614,266.889985129914,25.0670244163764,787.195692419309,-52.7951121963121
88.239500264492,9.85893937664122,289.156017932995,29.9703045075969,102.684852534702,7.87329351303427,460.974223759124,21.8328377158275,753.792371009701,35.5589308957308,285.304193634668,3.46442886864839,1188.83757847416,46.5797932653214,280.597758468374,-22.0845658840735,341.953605746003,-10.428257914402,785.861832181307,368.030945010092,561.714755642385,10.5877526784117,767.977090851657,-14.5459517786928,628.142520357012,149.508069757981,268.848983675863,25.1518224605125,796.121171061085,-52.970679280605
92.6811034328079,6.28010052215619,286.544913663787,36.5722022742087,106.608512159459,6.11714000167041,466.945654350445,26.3075793022525,769.213227132757,34.1407794163851,301.496423523966,-0.889237550080177,1208.6630479393,42.4454666834421,286.902729884561,-23.5107470276648,349.022129113234,-12.859936575234,821.604665597369,370.613544770613,576.848026648666,7.9397925761758,781.387247538192,-16.1243663328557,645.068696280815,147.077576052439,271.921136830362,25.0065221035766,802.376010337193,-55.3140212185191
80.2937971934049,14.7331400240989,288.663462505504,28.6262814238479,102.508948795568,8.45700183428923,461.038605133434,24.3659675841,749.070436559456,35.6726184425581,285.500310673973,6.34306726080905,1185.27749245964,47.7588426711648,279.288918713761,-22.3357046830374,343.399665895585,-11.9818761346521,774.513379458551,363.850196122324,558.100950300766,10.1093208521767,763.286389492533,-15.2429639695813,621.675074399764,148.229084081036,268.483291774663,25.3527297216953,789.725105654536,-52.6967477796631
83.8802424614934,10.7031498046886,285.402675731413,32.5621074693244,110.340950966724,7.18058060178861,471.504534930317,22.564129483059,760.477309638987,34.5906704693764,287.791253621233,4.33742233296922,1198.95575495444,43.9223135932999,282.926535506,-22.8016733329673,347.873117694209,-13.717313900514,797.308346689913,366.50480764812,567.530990728158,9.1947740236231,768.809803969695,-13.8507488792517,635.81189488707,148.984883401234,270.398466065113,25.0942143040744,805.86713761606,-57.4295528186727
85.5923910599068,12.9768856698472,304.102988501777,26.817188068753,113.396954663361,4.20937612011567,492.521954768237,11.3718192598776,775.299426716061,33.3025761562898,289.106503929987,3.9750637228137,1219.46225778181,39.8970251020791,287.425818695879,-23.593610250634,352.499815119451,-12.8813209725366,802.946766441967,369.818178292796,563.026807009044,10.4878920973602,768.69705736422,-16.0092212884775,624.501547050504,148.655993242048,270.369788943122,24.7221179262002,793.425076167824,-52.619365097573
76.1535991946499,17.8741530514895,280.403857898279,30.3612237174244,105.84505990219,10.7531633448015,459.032848789024,26.2517882767359,753.121636323758,35.6573866474631,275.324632398828,12.8113958876735,1192.06155972483,44.7392621966235,279.829093371256,-22.2822604768014,345.131723328263,-12.1397971442273,781.002315131515,364.793810504631,558.378185943501,9.85385573073669,765.577814977762,-14.9584259931091,620.008396098742,148.406960405699,268.37374457863,25.1238813864619,790.924909984767,-53.3124298535117
86.6017817892811,8.2363328948139,306.584615637915,19.3820229132612,112.975445709539,4.08274804575232,471.501804812301,17.4677922317502,765.821485999816,33.7153669921181,286.470350132883,5.90335831499633,1205.26203721624,42.1818611688464,283.946383666256,-23.2872800184149,350.611103564513,-13.2813533925176,809.560823981081,367.054890500663,569.472499879039,10.2634986595394,772.020945981175,-15.3186175281627,638.6128097013,148.414784263488,271.390130127976,24.5514981383148,808.322144182644,-58.2756305392773
88.5056368645345,13.4609652969367,305.269108521226,25.2410193931729,108.307922742037,5.13556433775494,484.467579714686,16.1353611379969,770.107913825233,33.6166560274504,290.584717307685,1.27075527001875,1200.68680784285,45.1233980185443,282.841152240705,-22.7874937459041,350.000023157185,-13.6015301041325,781.510965979939,365.052117896847,558.502678384159,10.4589546912772,763.648115058796,-15.3342922287745,620.109940151703,147.609682401597,268.408069704513,24.9400763803261,790.302221442553,-53.7892275838348
79.7025385453212,14.5562402971524,291.910019237489,31.4010756659721,110.701357669291,3.34046190390185,457.737348282332,27.5313465848388,754.971627743335,34.4699190320399,284.571508272944,10.0822785150739,1195.59034310937,41.8150258391793,279.382080154948,-22.3987540026008,344.589590491384,-11.3265142075785,777.206085888472,362.90590444415,557.774169455284,11.3531226853917,757.826142300334,-12.7344586533916,620.436217108597,147.686037618836,267.28699526534,24.9499482960675,794.33511144492,-55.2971843851191
76.2362200174142,18.1897538993017,305.507559575751,22.1789145863039,111.99367540752,3.11914530381192,472.271761805321,23.0470330714834,766.744059837006,33.8407040823898,282.655608793088,10.5894415957245,1205.98142876092,43.3815454675703,283.768100651192,-22.9208037864356,347.468330017817,-12.3493273777273,807.108357694396,370.195788189081,571.431787771846,9.0154860346469,769.959894326553,-14.5389884914602,635.799006832529,148.038537481248,269.618799608353,25.1410286963065,814.90380642508,-60.6403149259769
84.1303633799092,14.2585387220151,295.150896932232,31.6060113422065,109.544820582975,11.3324021732987,502.263539010118,9.52500108791277,777.238318049772,32.1303242488213,295.167823432886,2.0186122306893,1209.94554530184,42.0897723799922,285.02254867792,-23.7389349308923,350.621642336346,-13.1571268450244,792.59214561462,363.172615322123,560.106412986697,10.2776239786042,760.232974360754,-12.2258992123346,620.915241281325,146.86027997785,266.550848821318,25.6306102374398,796.00895418099,-56.0496831492531
82.1309098180317,12.2199469430843,282.915648131963,31.1962782778015,107.248007754311,8.92321595407523,469.454250652956,21.5920996215826,756.063426046939,34.7594371121412,292.677349892041,3.11772188924472,1191.05469724044,44.7446233042466,279.9849821329,-22.9444829660934,344.695908477393,-13.1935090558965,784.670236180364,360.742702153457,558.364787443199,10.2394880372558,758.483080050957,-14.0157824183545,617.093837654201,149.014337709792,266.119526721471,25.1104629755016,794.555509939145,-52.2623030167203
80.276638642334,15.8662281612894,286.676010887435,32.3461538237697,109.462814036164,5.54033409282278,471.386536825093,21.0072334890529,768.132528677744,33.5978864248379,289.147423961365,5.8768393788984,1212.57949096564,39.3355522816405,284.546559561064,-23.443612665155,347.91521195388,-12.5644975861962,809.926708026344,368.929586292441,573.428633990317,8.36001396893778,773.472527834108,-16.3289506116406,638.252072810722,145.826723660323,268.765696999008,25.1316933422455,811.571073025949,-57.7516646835811
