82.6738485471791,12.4228924617521,273.307577899375,42.2024505410811,100.838577171188,6.96198336047238,419.112234418931,45.7010795683219,712.594249117151,44.452164276794,269.800654458724,8.05458553769663,1134.73690328999,65.072737693985,269.026965937739,-19.1982111970753,328.522615511216,-7.13764991425219,750.326688816213,362.593219246242,539.744784235494,16.2977357388178,720.841993939263,-4.40855733245847,587.844535201917,147.574487142178,255.046616762667,27.8731079327582,774.022769678384,-45.7850711843323
81.7510183025279,13.3153352499156,285.874055644701,35.4732587508217,93.3345802527456,12.9805191863953,426.508633161839,38.0677492868121,726.01983362813,44.1403079755991,260.733674573556,12.2832332595987,1149.23087897209,63.7824418966676,274.405270310248,-20.4246336860575,334.610203767859,-8.86293726456945,776.415985598698,369.28301803506,552.437152956017,15.9619000450861,739.451451232576,-7.89787309815045,600.392700401322,149.737873319945,259.360081685082,27.1064929060752,790.490364025378,-49.9097175197459
76.2962759409942,18.0487279532978,289.766687343874,35.2728946498167,91.964667152879,11.3725213265135,427.124512170676,39.7911123896905,717.372104947819,44.1721528785354,257.269759911383,14.5011913131708,1132.61273812995,65.9550747961163,270.434790776435,-19.5219659833918,330.499554880023,-7.50462137781219,743.794045065099,362.593464915959,535.923277492719,17.9416285357855,723.482057489535,-5.20288624778858,584.78985300777,147.8603291883,255.435923314116,27.6677222246948,771.535398031234,-46.4577803727137
78.392915968116,12.9778539881838,260.53837497217,47.5830849572728,106.271212569022,0.532852006535433,414.943928169028,33.4750120882437,709.644251609636,45.0260901796945,263.33147120001,13.0411042279126,1128.19653248191,66.4814901935283,268.673760151273,-19.2603056494382,327.898619854123,-7.30514320933237,742.650263703847,360.515990995164,534.677783680621,17.917024982526,719.749093351801,-3.78762658419869,582.11575709717,149.341296562423,254.593211449716,27.4223152956387,769.892065404533,-43.8342123678011
78.8721616857107,15.1204297409694,277.65716971736,38.0707546175518,100.243753208074,6.1675952109708,415.26636136439,41.3267284383547,722.870965007162,44.034368431733,262.181216955341,13.9652406063888,1142.47603832688,64.2873834159402,272.116958401445,-19.5116653057501,330.856841027668,-7.98905522464031,765.516959970358,369.730023764032,545.486818710627,16.5975451108453,730.09121757378,-3.66223607884813,596.949943650616,149.779646756984,257.397669498225,27.4246368464819,790.894582060069,-50.8476224826409
73.280713591731,18.9568154390996,282.665905581562,36.334532672455,95.5286787897635,6.29408777062192,415.690910461703,38.6975434583382,709.985247616638,45.0536103685624,260.219768379969,12.850603965681,1124.36354571051,68.1455540599307,268.245995514452,-18.8191793611984,329.231334693123,-7.6717270435425,735.623033616515,362.486708199905,533.091571396197,17.9595372430674,716.831993137569,-3.87377490696563,575.525639574995,151.154774239572,254.950807042018,27.137596280798,768.214706282718,-45.4825000246337
78.3062687992997,17.8385335305922,267.823599694524,43.0801406749455,94.2577662620406,5.92943354295719,413.043920912943,35.6184114118976,706.350434169442,45.5880047148288,262.717239368207,10.7272152865508,1117.26314141207,70.3829308819272,267.133290216261,-18.5849565991048,326.45743609459,-6.98690464446655,732.602347535543,367.832121863583,532.708839661436,19.3136071142462,714.074524359442,-2.31500397149324,580.353213569859,150.622587980578,253.277922150767,28.0606432030752,773.157105956549,-46.543059932188
79.1811039614845,9.73076512020179,275.598350590073,41.4933357830101,89.9438535399801,11.3759293628966,413.760912158457,37.2845649931837,720.838605813144,44.955684674465,267.336968449259,10.4601850603197,1136.13386558449,66.1082985348553,271.111175958566,-18.8659165933059,331.815645546971,-8.05076590265288,763.393168348258,371.144877379646,544.341458204998,17.5983673918705,733.703074715953,-7.5120240846357,593.243554819813,151.380339612201,256.987262174013,27.6576878386228,789.820390375815,-49.9429043708289
75.8069673948867,19.3588656087805,263.206178788868,47.3986134102772,93.4464523839019,11.7649370346724,429.980531050689,35.3209746549845,712.366108570101,44.7074377434418,254.593023938333,14.7724332937108,1126.04250055368,64.9092255474573,267.566599075987,-18.4195221756598,328.176680664675,-6.65342516919135,733.239503190281,364.132963874817,531.524923916139,18.6221274485658,715.442826301931,-2.94142648999047,575.383754233625,150.229697577901,253.994649698506,27.5003007813197,771.405777217407,-47.0495780932796
74.3935977634277,17.2851825443942,270.388429766953,40.6933540806768,92.5208062024501,9.12715471853508,413.400064525633,35.8707570778919,703.15584433106,46.0627512173533,252.372405776744,16.493673947556,1111.48186242941,69.8770265882158,265.676962344609,-18.2443670296089,323.311757170774,-5.64614838863639,727.877115117954,367.001171722391,529.528878275492,19.0303767498459,708.98464450036,-1.36602214242541,571.361981654178,151.468355272566,253.394836024654,27.6895563257265,772.366581667239,-45.8972368608253
75.8032965868653,13.3753603359671,275.993935934115,38.8441994803979,88.7827228131145,9.36533700835272,415.355235730687,40.3623027509162,716.337799580086,45.5663386089979,258.869055241046,12.5862456666339,1123.39899491324,69.1097779774225,271.023357901882,-19.6080019175961,327.62769145354,-6.78238601160624,757.287515420711,369.107618855273,538.538001843413,18.1985669662693,721.785444071352,-0.951211358900012,587.407645859598,152.849857276849,256.270056182552,27.8025349169889,784.243510802338,-47.0239705814079
88.0041165891595,9.54529193488149,269.512693579434,40.4187036907911,90.5727707430891,12.7063205759127,444.115437129725,29.6661650923942,728.647793212552,44.6553069567673,261.866168458155,16.5328869430897,1133.24327468997,69.3474616559571,273.107105458329,-19.7005945883996,334.236501318409,-9.03379714086428,744.433749948052,368.722866814085,531.340320694806,20.7003459524893,715.268723980256,-1.28601164838725,574.885048747992,153.022806361085,254.773264543523,27.7371270924393,771.622066589486,-45.5479969559306
79.4371556200951,14.9716814958879,259.780128496207,40.8748378264056,92.449512342915,13.1851511607292,410.081463858243,34.8186194730644,699.804691608968,47.3495885522006,256.629565662063,8.14014536267802,1108.51612815965,68.8777171633679,265.619341894975,-18.4981195798534,323.932947875184,-5.92574909473131,724.963121900722,363.98780088395,524.071647886219,20.2176775351156,711.559944318546,-2.6084939266579,564.829103825367,152.975523255079,253.094337853066,27.9913762303173,766.696866624368,-44.4239026857442
62.1779702090291,22.34499438463,278.648268122742,34.713746201724,92.2640323954559,5.63086131978592,413.316928585318,36.5261075514062,712.077638711692,45.3600087666296,257.512465782291,15.8878154741554,1117.52523711856,70.4803723258396,268.786006475754,-18.5057500648924,326.916651430165,-6.23236155857405,742.212282566026,371.203084470022,535.02031024767,19.5656630538106,724.160788562501,-4.21357627898556,576.977081338155,156.169025289505,256.093461855446,27.6424423873553,782.253730760831,-48.1639714580587
78.238943145926,14.8302811848262,281.048224504254,36.1649316833753,103.501790373108,3.25465820312863,426.93994857447,39.1965151737465,726.668790465331,44.5666826289782,262.756345922817,8.97147198587891,1140.68769486246,66.2127253422198,274.766386001744,-19.8527434880453,336.00392703647,-8.1374980231252,774.457128847988,376.686866352825,549.866398170111,17.5184927171836,738.58123278621,-3.7664745854966,594.025484322721,156.432578427818,260.468976348867,27.3101012706384,794.685006465332,-50.3919428683798
76.580710371998,15.7148813422863,271.202488036684,39.4155000268818,91.7524382736328,10.1066052035689,407.893328779998,43.5810673439485,699.892061821484,46.5925623646554,257.496906652346,12.2274954517,1107.00214522648,68.9976819668172,265.444625731532,-17.7946804741618,324.459950009831,-5.37411126548637,718.553783973952,367.541656550856,525.869816679188,19.7393945694876,713.64146950123,-1.37631183901716,562.317778257736,157.038190637813,255.134592682782,27.5122108122684,764.849058402585,-43.6616963913058
78.2243654430897,13.2713784016314,264.737852464646,40.2816084658376,94.1990495410759,6.15694008345577,424.78542572068,34.676261510808,707.419037478135,46.3872550100089,255.508762182626,19.6940196848204,1110.34726818851,74.5595063838102,268.239921021235,-18.7566227443853,327.707765512899,-6.50160146452408,737.974182412832,367.907220451124,531.674753628462,20.9698959814489,723.385895467674,-5.5143246690168,573.3411359539,155.041670579325,256.300404717388,27.6764483832805,775.892193139372,-47.2488846968971
81.3536423208042,9.31991555875566,279.114885289379,36.8859208507275,90.6879170773864,15.2846398068117,433.90912948303,34.3260020524529,722.147164533598,45.6724897396567,261.524378470462,14.9889677949989,1134.86181065184,67.3782408279134,273.501969935806,-19.1883792278054,333.613319866824,-7.40080363317969,768.778858032336,373.563378494682,545.516911622057,17.4921055764066,736.081514269633,-5.2505326519495,588.525549651856,155.373305070559,260.16633984928,26.9527367193391,781.677430077313,-47.3883588847123
84.5189140453139,11.6863217322042,273.376228318037,36.5853961241312,95.4710320503632,8.72330569302536,403.40407295141,47.9977323954878,697.991583699143,47.6498479339859,259.273254691504,10.786842643888,1102.78691148699,75.4552656141003,265.41129012875,-18.2106020310628,326.90078237206,-6.90565577954045,713.192653381566,369.758603522843,523.796847575617,20.8571468572648,714.957103816166,-2.08555381338781,560.301324636109,157.302338076984,254.621557956872,27.7162508837104,769.0238755683,-46.0022058430279
73.0295677197998,19.3704784038104,269.621593287222,41.9858012815232,97.2168953993531,4.82008994012575,415.557429630416,36.6947931124576,709.173402895746,46.4979157205162,258.408710931249,9.81372749040639,1115.98242971118,73.1744303372909,268.523065441846,-18.560311100384,330.119871405918,-7.3451891910475,739.018811776379,370.427300949717,531.327757307075,21.153937920667,717.294104697616,-0.147402368037852,567.617530997257,159.898747431397,257.023914290082,27.4060243000078,776.74171033752,-46.0105842819002
79.3351241413076,13.4805240583032,278.555994997555,43.2271826236542,93.5684972373912,12.4012060287583,432.246681187118,37.3035377259996,724.822670647796,45.3895093097171,268.395974167708,10.5708413734871,1143.96446957546,67.4446932592785,274.611329637811,-19.5203542700787,335.431238786923,-8.39762425634212,766.88311022722,379.229306885582,546.609382611583,17.5480703152021,734.637919348934,-2.88050366574651,585.096144697578,158.211601952188,260.608803607366,27.2549036824011,785.447767831017,-47.6036780931483
79.7627357849121,11.5137165526011,273.680967168868,39.4954580740994,91.0143794112542,6.577590893762,405.974714661804,41.7528401518346,699.594251562276,47.0018821954972,248.253364185385,17.5862214880725,1106.27951411895,72.9767319272755,265.185272075347,-17.959063234902,325.897120926852,-5.908183263445,715.119554811572,368.857869276294,521.304500616634,21.209562471879,710.416332011481,-2.08482283342923,557.001312736958,158.072581670645,254.722905987999,27.9060145916222,766.264698779175,-44.6855303820391
79.0831457784782,12.9380017853553,275.799814874186,38.5079380017531,99.3975694728003,7.8023692370178,418.941397535234,38.3653621731908,708.095271212112,47.2577928764932,258.708746344878,12.0804163046177,1116.3958506503,72.3425501412677,268.333629741477,-18.1203449948793,328.429719434113,-7.19972085451212,735.529641163995,371.372574488767,530.527840333185,21.1917265967038,718.264450069948,-1.81143387141563,563.880667811134,160.121003166974,256.300888786133,27.636252404285,777.523971305826,-48.9158568480959
75.6045997898133,16.3610202490414,268.451633372741,42.8439168373361,83.5769592030535,16.521549209557,424.631277256886,42.2559504923167,724.5475562568,45.5449746142057,269.436938752442,11.1238802700951,1136.07488451727,70.4090359477882,274.381429184895,-19.2944894589552,334.543659897058,-8.44034088240834,769.266702428073,375.867687090287,542.356015722733,19.998690796732,734.272944889408,-3.96712735533782,581.39106793147,160.937028931625,259.705659715651,27.9563569110354,787.72554874975,-46.8787619740111
74.7988069170184,17.468691446227,273.409159703329,39.7096665632427,97.1574787426336,9.96815290403106,418.279873493006,38.3309554351164,699.151120810919,48.187118061053,255.580958963628,16.9345167038718,1110.87708133716,71.6034352119753,266.607298139673,-18.4781944297835,325.322130890182,-5.92965382435935,714.898966740565,368.675016570009,519.519235750582,21.2526708597896,702.567983905948,1.65609366722041,546.385411755235,161.983090225076,253.381727197495,27.9188279029979,761.322498967067,-43.5144324666841
77.5632833335502,14.0686490714331,267.414437656872,41.8412810726991,99.9498735783866,7.83393192785117,417.321486770189,41.2894624484814,706.081289847038,46.9053277256007,264.55743878717,11.8496799875921,1112.24467116403,75.6448732832703,266.857868539075,-17.7877101071961,326.040561074595,-6.76597750942667,728.334870988357,370.839165002674,524.877015313606,22.0692719752524,709.810431576465,-2.03189518781254,557.066481906082,161.441249031502,254.576982520482,28.0998670906803,768.665830288749,-45.3271068943387
76.6891737325443,14.4948140614927,285.856272901543,34.2573594191034,93.7666299533205,13.5219430650119,425.102950869537,40.0676259121225,720.853030268293,46.3657974916733,263.998152772149,11.9039119634387,1133.68213937715,70.8361410663957,272.676628644196,-18.8131851291779,332.774732712853,-8.0574154671364,757.2312938488,377.612660001125,538.197843018474,20.5164777600839,725.715831270815,-1.49152951719024,577.183717459018,161.922900082519,259.157876386989,27.4602751913768,786.83912282874,-49.0909768660546
78.7633484298033,16.1393131943542,273.097728761976,41.3787684349203,102.752718452148,8.99288501940442,426.256943816004,37.061908967585,710.697392853545,47.0175660664969,254.124572603353,20.0968546671385,1122.7753022589,70.7539878589006,268.673157925092,-18.2097450500202,328.547292115356,-6.53332848850514,728.456084121163,366.738428642106,520.188461586587,24.3878382580279,711.877959036332,0.609946115547879,553.052703830736,161.213272436679,255.978463340192,27.5856026200106,761.391781058471,-44.3325933276538
63.9260052334034,21.4597980077586,277.984344596182,39.4770295896797,93.2320953163503,10.3850462403517,407.319214897805,47.7309037677002,703.846425607296,47.685914484228,251.669723670738,19.8555546485599,1111.41254885382,74.1483422577816,266.721108712223,-18.2605801402534,327.050873790454,-7.05278346046847,720.960494000524,373.076316059381,523.360469039795,21.5695802515687,707.836659808139,-0.997376962046678,554.095273187686,162.091337914097,254.526212082191,27.920864379849,763.360307424814,-43.3291841232306
78.3020157176453,15.7801482189874,269.736478141367,37.8108709999727,99.5000361441691,7.63807509766675,422.476639476532,44.2393277099612,717.51970428971,46.4122852367765,267.662811241493,9.52995950154414,1127.9518498831,71.8546282709546,271.29709107829,-18.5964389998895,331.854254794292,-7.76697525040892,750.12305747436,376.846621470468,530.690511619923,23.5255442422762,719.855301091698,-0.346596454674632,571.644858803409,160.82626339786,258.267572610158,27.2326608114786,777.358019999296,-45.7463233032168
76.9617916069654,14.9657290461455,287.599567504801,32.8943215874528,93.1684920527017,9.34099330861059,428.885159510774,36.8050009084661,709.191054371226,47.5404829199198,263.297523459671,11.4778296966006,1117.51209589369,72.4703807382637,267.746462693471,-18.1055197409027,329.544593805143,-7.18333843660219,721.043810264626,370.741307747088,518.248138028247,23.3826677404089,707.640209367534,0.941148028534109,551.759176888054,162.328439983764,255.289757058582,27.9182064198505,763.216193177321,-43.9587056071929
76.4210340029742,10.7917601103295,264.232989160181,44.0348491912498,93.3359214540896,14.4889359408902,420.849363261046,38.1353816103833,704.412478005729,47.6618164935994,263.048153122036,11.8831142483952,1112.4678727082,74.3183358858124,266.886165622294,-18.187543160623,325.693998110292,-6.49895220072175,720.771417070647,373.302692387029,519.582644962667,23.6325067528362,703.281893486354,1.53869806743777,551.30395065416,162.853451937771,254.386158124334,28.1678394889207,762.930736406799,-42.8527025604122
76.9451206142613,14.9425306496736,267.530135244159,39.2956240309649,94.9135846493021,10.7535939099407,431.911474314951,37.175004952935,717.396987925448,46.8128885642871,270.657033641635,5.29809122757567,1128.76762123496,73.0432459805674,271.390279551326,-18.6906589258195,331.319799455921,-8.27211786919748,753.410687871342,373.945134237849,532.101001926005,21.3538889947812,715.478773771889,2.41549173450752,568.359519897935,162.932739845955,258.210214761792,27.7612677260482,778.108002504138,-45.0295192563983
82.9105713480783,11.6116941427644,263.830943276042,45.2601593456953,89.9975376705658,11.3370253098272,417.654826030056,40.5733320058192,702.233682204685,48.2743951590199,253.114145877857,15.8795029305859,1110.17886980492,74.9198534153895,266.251127498729,-18.0892414637074,326.145448872934,-6.36679411103878,710.950997881988,372.818856377653,519.64795684619,20.6950282954398,701.181381130649,1.46004604381183,546.684008319715,162.501757338182,253.606637000698,27.9409244140931,757.678600847534,-43.1374685095056
78.0468433410329,16.8213011812096,268.124363066808,37.8580956781622,94.423185599536,10.2493203245977,416.716433123503,42.1834252198466,701.89058757299,48.190017018242,263.000202234019,10.1890916745939,1102.90154124399,76.531814579447,265.701935982816,-17.6227929262067,323.058437123113,-5.93773909269505,724.838562151969,368.771206216287,515.875204577797,24.4868378676857,700.766904615494,1.84740316427873,549.499826350139,163.431265570989,254.436229323089,27.8369436754987,764.154164457721,-42.9303509237219
83.6525016663655,13.3720640199069,270.632074475963,39.4871034716748,91.724541015555,14.8015772199036,417.824108884245,36.1523471913197,717.214918766502,47.0562646364668,262.070460829219,12.3023068471867,1121.99260003589,74.8580458049156,271.095004467262,-18.7363496758266,329.754904834904,-6.54693250409802,750.406526877015,376.457060192363,533.548335323631,21.2406540188001,713.597620550241,1.49064971987045,566.526183868783,163.051860295441,257.610370221307,27.9827191557547,779.312580744382,-44.4912954798451
79.9732042374013,10.1781669426046,268.25859345279,42.3149051703202,92.608590407686,12.4824724794176,423.90917914169,41.4270170569226,697.074307733482,48.194679834917,252.896837229657,15.1292791431628,1100.72383711627,74.4797136233039,263.907158982018,-17.2355550128693,324.372891827437,-6.27961941320623,706.581824275178,370.623903798221,508.343563397371,24.7587119029613,693.091419081981,2.53901505982201,535.680573451375,163.218046496183,252.29819220269,27.8537136172811,754.311434710027,-43.047703209337
70.8431672433084,15.4289931148885,263.127595458563,37.7198922009788,86.6218821653346,11.9731542569362,407.573257199742,44.8891433219744,697.568308585051,49.3871538228899,259.796050464016,10.1862251844157,1101.1239663694,76.5354696322234,264.083403189284,-17.2691356909622,322.38559847888,-5.82376409074224,713.548140269973,370.16911325673,512.96827580558,23.8686384887929,691.861914980513,5.42919704221023,544.071476767954,162.909199778442,252.241304469735,28.1034665594188,760.745749407933,-41.8020726883281
73.1013171761717,17.3762747181426,265.991490553339,42.8803352911079,91.9297595782378,14.0123171012095,427.83526350816,33.4408001220902,714.067288184573,47.2414829703445,247.520177599455,21.2747339021807,1118.64666207208,71.889464018643,269.376462296894,-18.2267191641931,326.477676542734,-5.27984164633874,739.931457928543,378.310985850217,525.848728204318,22.7435959126105,710.268003333188,0.504618648094579,556.418212574996,165.524828361432,256.090733042,27.7898261873556,773.052874403069,-44.7573577452149
81.7470881719216,10.3341659046297,271.305396148381,36.4074580620998,97.0733036612977,10.8781824652238,414.845861063341,38.0905273064714,696.330505513248,48.8709243118314,261.856679603827,7.21264753431887,1100.4984352985,76.1082644461509,263.876098406237,-17.3740655622859,323.426954733888,-6.2017495302131,704.714818818054,369.473290184917,509.40249207383,23.7270494485246,691.958603051268,3.8484183399409,532.911676553669,165.78084349085,251.505594609432,28.4836498638716,750.654384045146,-40.0347765215969
70.7505428423267,13.8712911552056,248.675249229136,47.6630683248401,95.314017901853,9.46608018638894,399.228034851692,52.5242173686675,693.19105193741,48.8619602301397,246.782745302628,18.4102387430538,1089.18139307136,76.8501515441548,262.11574273749,-16.7544791750149,318.400350721747,-3.98037807202448,705.607557472375,372.191777473019,508.825169803905,25.458952426325,689.725874574059,4.18546071999197,537.429718715831,164.606213665648,251.513255956585,27.8742523246171,756.773152539559,-42.1861755432809
80.6123045507938,13.3124901207986,269.600203746502,43.4847604199354,99.5621626101807,3.41886736251801,417.09200192418,42.3573999515331,706.333142396964,48.8553135146209,259.410928056243,15.9231816813483,1113.5532765481,72.4548877316387,267.446181482255,-17.7960203420726,326.629538351815,-6.98903200907253,733.522468481948,375.388454184303,521.77242630416,23.8875202695515,705.038029758804,2.34677552251775,551.443237706696,165.938241892878,255.19668898517,28.2433010867584,768.687177726767,-43.9175841853455
78.0117508092047,17.0358973393168,275.285412954354,35.8246868407022,91.5720329306458,12.9332957083842,431.934671277883,40.9303942908804,722.707845943087,46.8779476857166,258.921965467089,17.1919128548119,1128.87256991461,71.7510355409075,271.879556804097,-18.5948278319033,330.879254000413,-7.70603149268187,736.039226593463,377.860649265242,516.946748418994,24.0111531132646,699.969690309008,3.91769869260842,544.364599065806,164.988187928234,254.834701194524,27.8693623772518,758.221339043732,-42.8121639010679
77.4927296064247,16.573406021692,259.980432390429,44.3482619758527,95.5001604754645,11.1745490618164,412.598648372621,39.3462207675964,694.450999944681,49.3331119384976,254.489078590309,14.5424839946867,1098.09820809493,75.5703835530845,263.659821312516,-17.2911349914587,321.492685702259,-4.66472689194451,708.217558436913,371.568130037181,509.252807285984,24.1473461848452,693.925503711747,2.45007880079199,536.687585479726,164.131386914541,252.704273021182,27.9867642574002,753.040626066428,-41.8785539275185
75.2436333480333,14.0728008524409,270.717589082273,38.7730175776909,89.9771773011522,10.3312910891794,418.294990915984,38.3959221658272,704.203313058485,48.7326733379644,261.464124308128,11.7246717672347,1112.85976460937,71.8182397052457,266.035675762551,-17.2638771047745,325.406094546017,-5.47708960977282,724.079479346253,377.741242058431,521.313569944545,22.5747352438484,705.380187988245,1.33603394220826,550.551193136079,165.542146420876,256.104437264213,27.4310488268276,766.832235016193,-44.4040857908573
77.5882659103781,15.3385592525766,276.629011852684,37.3821279178413,95.6505655895887,14.4402972632506,433.20025030438,34.0275410734815,719.237954999271,47.6047513175111,267.219314034454,11.7497361845975,1126.30272674908,73.7626803388527,271.365099785047,-18.0917974103486,333.283000830064,-8.43995090119817,742.236411700268,379.868481138307,519.13616215698,22.9583398953825,704.78813188767,1.37556775220887,542.503646161143,165.837063256176,255.384879750911,27.7348798137473,762.271148110464,-45.1975147686007
87.2280246435363,4.94441086518284,268.623999983975,36.633081855282,99.0783769729683,9.17373892062113,404.737877832735,46.5481217839399,696.464390780833,48.7071258687413,257.719467359665,15.7426490309691,1095.43449030985,77.6780279509226,264.354858344847,-17.1208411610327,323.314067980489,-5.17579555744504,710.899130640842,371.629961096706,510.237703235516,24.7803160976419,694.654613415563,4.67648674524205,534.432841789463,166.855266839572,253.231697938155,28.0281196465205,753.109740954565,-41.0219828267425
81.4393012655777,9.68544020784121,261.534500908284,46.4889456224378,88.8029193502266,14.3640706908519,416.777707028677,44.8585521658306,706.911618419306,48.5505221945891,265.61097547669,12.40502755586,1112.8747056035,74.5041039090893,268.275689424964,-18.2189346243374,328.717224041624,-7.65383131038817,729.378254705555,377.091796303048,520.161434253874,22.8587265781918,706.808215247609,0.896098419070758,550.009070669019,166.819618833859,256.614517411182,27.8869244642936,770.57889625106,-46.4257460252874
78.4003294658758,17.6632534084087,275.919343291263,38.9846631466006,90.6095405391508,19.276466545192,430.41614919765,48.2990248016981,722.03276030195,47.1866181878336,270.639338458029,6.45258997727886,1129.94175809718,72.8891371764564,273.213422242905,-18.6003795312379,334.803437310897,-7.63935667884798,745.951236147749,382.987030244422,519.167301512814,24.3878912268328,708.253670925988,1.84305660507833,549.27199584876,164.132236470244,256.211097616414,27.7814629246851,760.221712981091,-42.4567441093705
81.7874597768081,9.5255344337112,265.697357200548,44.8537835927156,94.5224017125883,10.6126923746007,410.900760440878,40.8777688655697,694.848616533749,49.4734013438867,258.184272605515,14.2050057153688,1102.1043603767,75.0910044995215,264.457770332562,-17.4517378195888,324.711264446559,-5.73126349820267,705.253172940251,374.62936502553,508.640410233272,25.4759588374127,695.472899495905,3.2522305942809,538.306294226429,165.071802154886,253.574502701211,27.8861069245118,753.751005128094,-41.3436115310494
81.4053852190002,9.52087118664076,269.220436130663,38.3591492271594,95.7090396576378,12.1543315352338,421.631104795582,38.4377355235626,705.200207585465,49.1178204684082,255.474276062964,13.8499744330938,1111.91180497054,74.9696801963975,267.707948209464,-17.6499223884331,328.414482261023,-6.97864597988003,731.641714829421,375.132688287568,517.964168949934,25.4881247673229,702.871619081987,3.92988888248043,549.802130265203,166.481821467834,255.998307974276,28.2396087778309,764.755093666932,-41.9630215944268
78.0256682245371,17.6444150505039,278.668188148273,39.926229010173,91.1508086121065,17.5383487276682,439.960000206335,36.2237135708603,722.140231194321,46.6160048724885,271.024331859846,11.1249954795208,1133.22287916282,71.027308642834,273.904319099752,-18.7520657211065,335.717157145862,-8.76463634294481,759.277020807349,382.359753658829,528.204921439323,23.1917368884711,718.81046391922,-1.73666529828273,554.472247345775,165.778847343172,258.092180623573,27.9007478223135,767.646259113205,-43.5576946440848
77.8133902925909,19.0601472200751,259.834293504514,43.9043200059958,99.5771920800901,6.01215349088105,422.005925649824,39.9959403848772,692.357806324916,49.7358886659097,259.1544795853,13.0960650666678,1098.56082944726,78.0130044718205,264.800700210128,-17.4215837023495,324.956945254066,-5.97586253546175,706.089054133456,373.915561166299,509.848814114629,23.9312567487654,691.858374110318,4.49621649277184,535.512040819335,165.294274560273,254.168279179638,27.3539169247665,755.270677328938,-41.9734558074135
75.7836288789217,14.9401840696651,273.555973217964,39.8991882679019,93.2664674447167,13.0455474393639,415.773764700606,48.3411881923999,704.413747951839,48.4164593304308,260.58158147825,11.5909120606408,1111.28513713323,73.9106861182495,268.242950720521,-18.1479161718016,330.05421372038,-8.03820867872941,727.776828791456,375.46567027575,518.311153330509,23.2815450405918,697.084179438737,5.41401903660945,546.259249253821,167.96709095916,256.266293244085,27.5688837403323,765.68523944065,-45.8913082632242
83.2810902763101,13.0117163500868,272.634266288318,38.4537630266887,101.389093098961,12.5720631138965,427.586283868243,48.4046682568629,720.076020455287,46.81683427624,263.679007967065,17.8719045326911,1130.28540976383,73.0171679083825,273.898696524296,-18.6670969914205,334.63788208132,-7.74851058085095,758.714658324434,382.785803024781,533.226126740824,21.3444034690511,721.195163757839,-0.613123434485454,563.84288168308,168.429116839639,260.394870398008,27.3299900966516,778.221857716725,-45.5809183542386
79.9608726161377,14.8650828585722,277.502454378237,32.8488982712861,97.4867866316512,9.73461958465029,423.076951462018,43.0761534154788,694.270970193391,49.0317668110834,272.390734994778,3.83364828310961,1104.80178126575,74.9554242635841,265.285673438529,-17.5630924584298,327.23722431052,-6.76930817131933,705.598333515204,372.517186235475,506.765005137223,26.526766318436,690.501232044589,6.58366697660876,537.100669883111,166.076065353407,253.971048247948,27.7799709282363,753.163049486923,-41.3234204436968
78.7996215077914,13.2223374855066,262.964988957324,45.2246710669686,98.8020490093883,9.63564263013758,432.087888631726,36.713923888775,702.101972840053,48.2210932830748,267.215681881166,10.7053010792488,1108.08983991876,76.878313309985,267.52540913152,-17.8355565339842,326.006963693033,-5.96796969206531,726.443800309291,374.372149104874,514.363854397628,24.8939465131493,701.560267097224,3.30327931830841,544.3843257401,167.095814621326,254.852068065954,28.0305613434906,763.244991440684,-41.6304343964807
82.7444367784351,11.7388117017071,266.988420836272,42.5165881554754,97.7379962680133,8.81191191962812,443.606552330455,34.7910253002922,716.952332544013,47.3455277762962,268.431243995663,9.08966601152712,1128.15412082004,73.6584550297352,272.702407217457,-18.8348834092892,332.502831321979,-7.22652372429818,756.328268040941,379.062264566112,528.262315550452,23.357025587608,714.537779208187,1.62491738564335,559.295382152954,167.739903645194,258.598030900537,27.698447958296,777.743371615377,-47.4068112792341
78.4262661116004,14.9070192232876,263.395632412393,42.9350948601805,102.822253711429,6.80136126191873,412.056530725644,46.2631443085619,692.40733497577,49.708242779218,262.991035020116,11.2140215190742,1098.10050688727,77.619692708752,264.676825522696,-17.3387687408008,325.255196862851,-6.36899609376008,700.641776883715,374.95886510219,506.301208244751,25.5375921515902,690.233469077881,3.06644699988239,531.644873437013,168.447784005413,252.655527017823,28.3146577829464,752.306529315615,-42.0709516772037
82.8114879895891,12.8626818924944,273.50929160841,37.1962693165232,98.9547972182095,11.4067394711894,427.984664723581,33.8817348134882,701.583302828033,48.0943675181452,261.700926410856,13.9954530322926,1108.31052852621,76.025235443839,266.708395819721,-17.6632878026064,326.657355561874,-7.16242376995672,724.025003027278,376.203947037774,519.228927210442,22.4832161080033,695.982724305048,5.28816460337341,539.775039290829,168.322519859496,255.080386054338,27.5481637215684,758.625962481007,-41.6607524386597
75.6905127770834,17.0178204018687,279.186870069768,36.1659862342043,103.91993302364,6.48216247583574,427.882458581017,41.8370859637683,717.040451059396,47.4113083650622,274.161002957474,8.09812574250278,1125.86128993541,72.3273063489836,272.225267662856,-18.5086168478011,331.146052012503,-7.47530522451423,754.704383263104,381.003434874989,527.61665141241,22.6508658002941,712.688667768048,1.39654608514572,554.763615924123,171.769396117451,258.960821851658,27.2048488945144,786.317140691122,-51.492138164821
78.5999755820112,14.6787682583247,267.560012594602,38.6661893527557,97.5059381871705,9.80091437896777,416.408685680893,40.2168178645924,692.695732180291,49.836445834408,253.626531730551,14.9269567202756,1100.80851970209,74.44082746092,264.431344767243,-17.4988469645636,324.172006126116,-6.98327379966866,705.076954843231,371.021514644999,506.567874131415,23.8131538939491,688.333278598662,4.25894045285436,531.148032900809,166.221969296452,251.425714064353,28.6076043499461,750.205975794619,-40.4708242812015
74.9039081756835,16.5638270804117,262.618411717783,42.2307258590853,93.4025320611383,11.3033977192317,423.697668978219,36.644241729859,698.885484946544,48.8344138655862,262.969806906073,13.679077354644,1102.20896676018,76.8687092873112,265.391293949866,-17.4321684952461,323.012457414793,-6.03041992326103,722.103346964738,373.923903575456,512.373243712536,24.7293870483354,691.721347763864,5.118253131518,540.392861326348,165.527336160368,253.564573224552,27.9061740582998,763.323146891896,-44.957588636205
73.7782411413929,17.0022611374185,272.937678964965,40.1942151396621,91.0717643489208,10.9160724240839,439.348395311485,36.9207235322925,714.979904725492,47.2405180145985,261.260321709847,12.5613785917366,1122.6248156789,71.7812504620834,271.622341930468,-18.8215807076962,330.744591474489,-7.61607946155968,748.576562834467,381.018881256174,524.288068400161,24.0427661289377,710.729048782038,0.642203439207725,556.762620616827,167.9334238041,257.337021672082,27.8518472564232,780.347268573655,-47.8026479692355
79.1664821325198,16.3862311976191,272.019271009771,38.0883080195554,98.7658635355431,9.97662166709205,413.216926709972,44.6714144694833,701.318750424368,47.7543270927218,264.943564866322,8.90284363130078,1104.38649227701,76.6143585135838,265.767752639495,-17.5802759780883,326.408859060097,-6.98750714833184,712.519467015462,373.57443199595,510.919876505919,24.1470569112425,692.516188660069,5.73210508842775,531.322137376235,169.178942100571,253.697389246591,27.8746146744134,756.00741657303,-43.5628830807648
74.0927759325818,17.3914414884764,263.770826405116,40.3916184292237,94.5977339286767,11.4279803825707,418.988638646609,39.121724147345,695.457072043335,49.2657291796372,257.266258731061,12.8396415168928,1097.92560968625,76.6825576266412,264.908185815416,-17.6089408078778,321.576910483012,-4.97669689370649,719.568746862378,369.593506384015,509.085203927698,24.9404396533573,693.41630649682,2.38399378898162,533.912054020022,167.576732784999,253.34984807746,27.755727078182,759.460486732815,-44.7242517635659
79.2572595994096,15.4351724044753,272.384396262477,35.2254512705846,100.801250509369,11.2869471849434,425.425747704075,39.8024342032074,711.673691587574,47.2776141418107,260.619297014355,15.6479242199375,1115.24523786589,74.3089559924472,270.191759399863,-18.5364429649952,329.829775343332,-7.94339962833544,742.240665821784,381.793928857983,521.77943713189,22.8217301510908,705.682496909417,3.29816600837084,551.606923026409,168.541960257429,256.206587112363,27.9164733119698,778.463809783785,-49.29180125645
77.7534221589766,12.970984434695,266.497129378379,45.3576098591298,97.8978325579944,8.86846166516684,442.265954867426,42.14794389726,727.233030350222,46.6978965957902,269.028278750781,9.90656247472929,1135.12259561088,71.805624933392,276.987965333905,-19.7190061839778,334.317064641695,-6.96347049395006,777.016516064981,387.208581300233,533.057531961764,21.6895799375544,718.088746915817,0.214922579946529,557.329280165864,167.708893834618,257.877343172619,28.070010778143,771.939865925063,-46.3404020443996
77.1842214898759,14.130522641611,260.860260179515,41.3446967045499,98.5006310860347,7.65406900629423,406.935294872604,47.8987913203671,699.185880501881,47.7333759103059,261.243068808549,12.05096224678,1107.64535792943,73.5742519388554,266.298392045478,-18.0100635591511,326.464536942594,-6.86180277730531,723.333081708626,372.289971740558,516.181065727112,23.7273368956168,697.476726085476,4.25090568061722,537.907879675123,168.90027755583,254.584338745623,27.8236262965088,762.271165737259,-44.827111287143
85.0717458334058,11.3504247235714,266.636270520979,41.1405940956458,93.9785388229585,8.73333355511661,429.021787884128,37.6556160758504,708.514150217952,47.9195452940966,258.385929952223,14.3300398061903,1117.2626347544,72.6486014388363,269.244052781749,-18.1476230586547,329.094770482838,-7.53652928123607,743.115814371703,377.38812360605,522.626673518249,23.3426050587814,708.766470105416,1.89364358569541,553.622338518822,165.350442270049,256.976592345998,28.0627233694271,771.633021711281,-43.7859630135266
76.979814773626,18.2436749313592,273.825168847693,40.9765146122784,101.536446417234,7.94531233095718,432.400773645637,41.3901970947481,724.781250433642,45.4402527850505,262.457880405917,11.852613398888,1137.5080742007,71.1138550029091,275.349607457769,-19.2056276413512,336.418042575933,-8.14386001922731,770.356099308834,384.748172094434,538.108881043012,21.3313589875834,728.034098837089,-3.9344312252553,570.909753171534,166.735599806814,261.211660549846,27.2307452999326,789.843099262176,-49.9185686107622
79.1598766831551,14.9050726156321,266.859433459979,39.7609436103695,92.4024985455944,11.8636615420456,426.725313729592,40.9847654290937,700.510715552714,48.1725897375107,263.354135779053,13.1643177650035,1110.8250873239,70.8948051406175,266.234705266169,-17.6832620320869,328.193037892023,-6.86019538764625,725.593817876121,372.261883593844,515.285942148359,24.0047084992276,700.450378917809,1.84812486021834,542.243396020518,167.798902217954,255.47884779527,27.5226329426592,762.136124679317,-45.2506644907522
81.86429644188,13.048592667964,265.086485071054,46.9538525636158,104.776274855629,6.49693629882677,428.401230648523,34.825846346067,708.817821976642,47.538950551654,257.538469998781,14.6128550777978,1121.10107158713,70.4905320365074,270.415461014149,-18.8853634917854,329.182471928976,-7.14803957813792,748.438657150614,373.227773484664,524.502902073732,21.547453674881,709.710431475658,0.882519449195418,554.253547054469,167.495043700429,257.563936992663,27.1017424920527,772.999342794433,-46.1970908989198
85.1649396817115,10.9717200223494,268.437774326625,44.0648101211066,102.785487944551,7.47814711544009,434.803876945945,40.9735084468019,724.968929320146,45.3692302425638,268.796562071451,14.3229006271392,1140.66630276698,68.6881362152105,275.960266054846,-19.4862258112304,334.482162934735,-7.77488861913221,777.634220044176,381.649550319696,538.201410385293,22.1831092430756,724.874196434526,0.40758099033875,568.41332794791,169.376657982443,260.551615749386,27.4125668027368,793.49704029629,-52.6960832339472
77.472404466304,18.7201389942029,276.109124504464,31.8815384839819,96.9849369966061,11.6088753007823,416.611410306282,46.4410439727003,703.412083827747,47.7025131409095,251.862714796838,17.7842115703556,1114.61473595048,69.4198807803402,267.527132211469,-18.2139331597289,329.218328178347,-7.68042678885085,723.881440941348,371.234071028598,516.668844876159,22.5197951774517,695.040845504081,6.36721826779123,542.170247721946,166.834813118202,255.231725856709,27.5971224491064,760.729619227182,-44.5637656864877
83.9724806228839,9.87254455519926,270.410098076375,38.5484622476176,104.154894541184,2.95914027308667,423.427353120571,44.1815817308497,708.321515581584,46.4519045910229,262.407235551646,13.2158194447678,1117.97149450104,71.7838519435113,269.814565337064,-18.9241893955596,328.863670782005,-7.80834875039932,739.084837805825,378.229432502185,525.243859100993,21.0447740083092,706.882187557747,1.49819817335295,554.080611833448,165.699678843113,256.974363902942,27.1966590245498,771.766184327614,-44.9345776271204
83.0571652718167,13.117119375995,270.450153038773,43.7770357209443,101.138760442206,12.1424347938253,436.908542990502,40.0620426358868,724.077623561031,45.7400723607837,273.949306339867,3.26691642782559,1135.06026102932,68.7170848875916,275.377819028294,-19.4805696818165,334.895911566877,-8.1939358301918,770.419372381431,383.094876796055,538.569645407474,20.434780684531,719.834347203037,2.99239821127342,573.152055183595,166.216432686455,260.674019804305,26.9987371215614,788.069455402282,-49.0208726614678
75.6872837606206,16.9568698273812,272.253489954265,36.7237520799041,102.283499998386,7.09610712068219,426.539457515621,35.1695283566529,704.498995561643,46.9374676503277,262.561740141947,10.6440535039232,1113.52408652499,73.012706317291,268.301272547653,-18.2687878536943,328.931394983107,-7.26952620830194,726.010696972324,374.843090317093,516.703736195097,24.1655724766429,701.90667671921,1.35834808162876,542.009115909595,166.07848137019,254.830176737138,27.7657147711002,757.306105168734,-43.5144621644988
86.2298314540426,10.1563594981454,263.150893157531,43.4920546283735,103.933353344721,6.27910636991117,429.336095901693,31.5345470202141,704.20579234854,47.1490702573799,259.429125242307,10.3520672597118,1118.59250617076,67.9773447411402,267.776276395918,-18.1954086815062,325.242839029649,-6.44085675970637,732.629308011905,375.391502288367,522.371855552315,22.4180813731693,702.838095390843,1.86571534543559,549.721170172944,167.767695144243,255.333130067073,27.8087197119311,764.919403899632,-45.6563482907873
76.2554460697671,11.6070802973784,276.325180093642,40.2921447920221,99.3456883269365,7.16463405532642,441.264610390541,37.9304147706416,719.841038554683,45.566729880966,269.21326887784,9.50273949725094,1132.01393524256,69.1799135458934,273.259903051452,-18.9054696903479,332.510680326698,-8.40428451110001,767.715039371776,380.76966582478,536.043567762829,19.9558333257034,715.677001201017,0.351254301567919,568.160142658629,165.817583978166,259.003383524276,27.4441502158485,783.011563681969,-48.5975728030629
80.3079971546462,18.0482661155327,277.93973223795,42.7631560515587,93.9799677236229,10.3950278733438,447.508144289253,38.4795177177906,718.273745271181,45.741286258207,270.029563991727,12.3253016274253,1127.55019630528,69.4969654480322,270.727272865757,-18.7672154445203,330.446045690733,-6.86245424262735,736.002337690429,374.806126158963,522.769797375302,21.0006167467356,707.849229364868,-1.43868624692168,556.028894639669,160.826400614462,256.903389244132,27.1408825504283,764.159154732305,-43.8438922562934
73.4827372160486,19.1885199897051,266.194512411808,41.7824148767968,96.3026030574597,10.7208217842927,430.90570921664,37.0797456236107,702.728710130175,47.3752609012575,260.946795212684,9.41523297330095,1113.4453966061,70.7422625150331,267.43304660498,-18.1239337904514,327.101745150259,-7.50231142331939,731.311708536814,375.073757548548,518.024785769914,23.8287511521748,706.020383927662,0.156076099223131,546.424174285582,165.409479884471,255.425720352105,27.2193734690204,759.213773841056,-41.7298281850774
84.9475319785682,8.02215755747692,275.044338466742,38.5026591262052,96.4245410129557,10.6156630474477,433.857611319395,38.1917650207852,715.554077127006,46.8615715223635,256.202066035883,14.5472377459078,1128.40292759445,69.7484025407476,272.532330067176,-19.1478120956067,332.722109589095,-8.66835866265351,759.622756129468,379.615355441202,532.57850633696,20.5964366825683,715.216513596095,0.2573854979094,569.565624398904,163.901016906003,258.535600493615,27.2413760476891,779.734308610643,-48.3035034423903
73.3299379059438,16.2494293222436,275.42040255572,45.2510537583927,97.6834043610818,11.3922919712512,444.904107580745,40.7632546623898,731.463107219494,44.9290555495637,269.993813370818,11.0331010255397,1140.24488139313,69.3783165181151,277.406524031152,-20.1599058889383,336.254253820127,-8.19221426840217,765.634142821933,378.620238216013,529.824682137359,21.1867171633036,715.318176071481,-0.154901397772815,557.833015993875,163.145986546732,257.747343277493,27.1988030867964,764.929639831732,-43.4806055134712
73.1701186482132,17.0379320995192,268.311977592642,39.5596045367776,96.9203968413437,10.1130951798956,426.984116179368,42.1782607032408,707.273851687155,46.481283253574,256.449722842262,15.670365671573,1118.72256091577,67.4660430755742,269.027986342313,-18.5908071375176,328.596165163547,-7.84214327344967,736.955963803527,373.644851134349,524.271057011832,21.1428957513509,707.377359918677,0.0798750565862705,556.830501912052,162.85888032702,256.702719528226,27.3586056273692,763.304455982802,-45.6140154265432
77.6300405231013,15.7760956945749,282.291454760581,36.6063085070337,99.7946247514792,8.81453179519334,431.190421462746,36.773568337624,717.172102199488,45.9011847967942,267.011768407636,10.7549683079257,1124.86750136076,70.4991378385013,273.293867563256,-19.3716139355026,332.346771100051,-8.48792457660433,761.385891776005,379.100466888707,534.776321123757,20.8635926128709,721.35661354004,-2.56286761578538,573.110898869664,162.228197205388,259.795713546648,26.9741489436297,773.464406584623,-45.6532757091852
80.6539099242238,13.9043037174918,284.02378217434,38.5687388393211,101.838700194426,9.50498763865685,442.030151547959,36.5836139610548,725.541368040558,44.6033351328508,265.074084363573,12.4718984293265,1132.02219266253,68.5597698346482,272.740562527431,-19.2400756616955,332.722578216516,-7.74132072989912,739.311937776663,380.172065104837,527.289460876053,19.8833758819025,713.863525320567,-0.629425625550955,559.025735958215,161.680677390624,257.648633147422,27.2424639162565,764.835536357027,-44.3961260911728
79.6798191276391,13.692166766169,270.420165135788,39.6952642926738,88.8013855412329,16.1172122857606,422.415479563016,38.2761891881493,707.299309739146,46.463723458434,260.431740225105,14.5140570584136,1117.85505786373,67.4726276238396,268.917789077774,-18.7132676289983,329.714987991704,-8.21453834082476,737.720518663601,375.175962967254,523.375143974138,21.7405799924572,710.352476868096,-0.641726404471577,556.799005537341,162.974894795377,256.726559496152,27.2293281217538,766.058598928365,-45.7424182690231
90.5648595256252,7.2396668292235,279.792354863579,37.1232537753036,101.68727857946,7.06465071145423,434.630375638019,36.7326539914265,718.584416620899,45.591474083835,278.166840144621,3.79809863080793,1127.65745093741,70.8207025924493,273.353689720705,-19.1239060600063,333.171643252,-8.89006618772468,763.45564596358,377.716268272985,535.288704209631,20.6816032148436,721.740391753139,-0.692780862746045,575.667763796543,162.688129904817,260.245120292732,26.9008518874921,779.183671280027,-46.95406101173
79.6502320464225,16.7676833576554,277.365774663005,35.2330891123403,107.281240888319,3.61451570852979,424.161116398791,46.6395594099303,706.180094667898,46.4797898761732,262.695953941465,8.23244455044788,1117.22017719237,67.796375320908,268.778611315582,-18.7493030956138,328.278009679218,-7.55947595523985,732.956884028429,374.475283760422,522.308411371686,20.3561815991248,708.827812785762,-1.1053042278507,556.377918328366,160.756960109404,256.54949125811,27.3490695746644,760.741261661494,-44.73236360744
81.3418285062416,12.9030507734899,279.730295671409,31.8613481484148,95.649355724209,9.29911495688242,432.951108491797,28.506704820198,703.906647140269,47.2136339494253,259.314583407797,14.2286575198721,1110.48563873073,70.9636548285295,267.683995521157,-18.2387681595075,328.780279521947,-8.35179932609078,737.384606040197,372.692883709013,525.857700202051,20.5637426009843,709.385535923649,-2.59426971746914,559.362450998037,161.345792167301,256.342156872708,26.8952948560631,766.327069051433,-45.60395723358
79.937305610584,15.2954929942908,281.769359166231,34.4654323144925,95.5617034758576,7.14117731977098,436.08161554451,37.2815618884089,719.259791585161,45.3290546549967,263.600097107912,14.6540866109442,1129.27636891161,68.6076999690978,273.410202818862,-19.6486353069991,332.033991532361,-8.57848424292348,765.343175421382,380.461974456906,537.66990558824,19.2403807095187,719.009289954581,-0.242817506961664,574.181993453202,161.954600314069,259.627293448666,26.7808447478053,780.470247169668,-46.6004164640199
80.7958000416556,15.7597292337954,265.409507084193,41.1810401544964,92.0600234896687,15.064711665989,427.01080578682,30.8496207087553,701.969105588511,46.5496271508929,262.557228247494,8.11007276556343,1109.25777654631,68.9934573202139,267.265013459461,-18.6561929096913,326.564200690332,-7.4327243649329,726.663914916677,371.55661900674,519.196644043495,20.9540023718921,700.650398976301,0.181053659829757,547.979297009414,164.430964319734,255.033704106828,26.8283109327759,752.976259543613,-41.1084635486007
73.2611735576818,17.6739271182087,258.107354812101,41.2417277461048,89.6718232736674,11.7334280511748,434.961769760796,31.4704322775345,698.649876536356,47.6190726895384,260.214904266631,12.0578711573205,1101.71949167376,72.6570690004902,266.740310170023,-18.5253810111618,324.160744965405,-7.05376162057626,731.318380539135,371.996344077805,521.719569263414,20.0035351592443,699.049849436977,1.63223073500033,560.018468391291,159.631929177226,254.935971392805,27.0738404654933,760.392269550597,-43.9525330306215
84.2873386325244,12.5155142748107,273.002685534881,36.1043050275536,98.9931190701623,10.4789602020543,431.292579185011,38.6249703276246,714.284909345221,45.9648293405435,258.202794237131,16.550302041507,1124.31030625812,67.5044932491937,270.900845375319,-18.8548314630841,327.936524685054,-6.69246134758653,760.72522653824,375.716007171677,532.464604474593,19.2267515163724,712.622641900899,0.45665822564746,568.784286667137,163.67394534714,258.260192497783,26.8367391835787,775.013971143738,-44.4754925872876
78.7214699375749,16.1809685586629,271.010982652354,41.8907934862225,97.3775662016224,10.8988466459319,422.923480993716,38.4894599896163,700.515617527904,46.6528877769277,254.693184753898,15.182855591383,1101.86866044977,69.3574433174297,266.65651814102,-18.5289580822079,324.341369915613,-7.35955884409307,725.793768333067,369.778290910435,517.163931898341,19.4658625192922,698.841421497911,0.201057170782235,551.722434925832,161.64158641259,253.976854380526,27.0621101076161,755.925896012172,-43.2329401305541
78.2763324119164,14.1533496189972,267.715099764451,35.3740433255381,96.3548016431377,10.0954052978462,417.546274908357,42.2488663593076,694.708232535976,47.2390071867406,259.808295159906,12.8765689317594,1100.23347681724,68.041255677024,264.088167633059,-17.6042569961215,320.636295268903,-6.23500590485007,719.23773298583,372.691600827751,518.703225360583,19.338555649679,693.376835343024,1.84940714706373,550.660952376708,161.914727817849,252.986856050873,27.1989576384051,757.061408406792,-43.3258033696895
83.3988201374104,11.8569021225872,266.290954624398,41.1536056946994,92.970773671872,13.8030832919908,435.947729765705,35.3278256181797,708.967689125407,46.5688144738227,258.647480583257,11.2824649319052,1111.72176008562,69.6703959981255,269.303180574603,-18.7789830512136,326.152850925833,-7.9460570167463,755.284579273392,371.515561625761,532.931056295989,16.2286571111551,707.853431967163,-0.373739922278197,568.061991983661,162.178658130583,255.987290803808,27.5472508840632,769.077471465852,-44.3105235108518
