82.5447611663215,14.7862024186236,276.255444684083,32.4885028821669,102.535921870502,5.42813380304651,428.606914516049,38.5826438850005,711.376265723764,43.1244533360949,258.393177034627,14.5311978443896,1117.27222515481,60.955596540408,269.775344982067,-20.2518493482044,324.160229484649,-7.28581733126855,748.704277985782,366.73014976352,524.567999470125,16.1535861591217,713.897561500476,-5.6565178832751,591.602075573839,147.30022288958,255.469980481369,26.7475874806983,762.26654610054,-45.6509629347511
83.3987344685445,10.5420173731385,278.704763838634,32.5498026140981,99.1140043482801,10.8265522663199,441.793127175495,30.1619670339125,726.751199954602,41.9638427921688,259.688035251558,12.6479407368459,1132.79945667417,58.8928739818102,274.300691302177,-20.7881888751129,331.709290106516,-9.52687407454635,759.82618204672,368.741248962016,523.155412485225,16.6738722454852,712.437425849498,-3.78212907971439,585.706448003022,147.285365139799,255.062857777509,26.7927053550065,750.185988493672,-42.1301972184977
77.2272438169207,15.1405847217471,281.713455056137,26.9724343672616,97.2406960975353,9.00885604009557,418.267565271008,35.9854181947492,702.018477365209,44.2582989687502,248.381272625874,16.8975103947801,1100.33761788973,66.425369796095,266.415802554626,-19.2420633778268,320.311402504251,-6.79254946928562,731.815871536661,360.796958896603,513.954081745482,18.7974710880857,700.46728304097,-1.72919657813892,576.17323016564,149.21636301491,252.979234029732,26.8170450489029,752.041632890505,-44.4242204523619
72.7688192028444,18.0917017533853,261.9499266384,39.8587299662449,93.2819553985153,13.1580758650989,431.640247169568,34.9929294907004,712.751685210827,43.3420365419981,264.476227385242,12.5359590434581,1115.70938460084,60.5549866689759,270.453449775869,-20.3542884394377,325.351739666223,-7.83181240607313,754.755612106542,366.173423740081,526.341797311382,15.5973401903741,711.266425823215,-3.54558019692412,591.665977729149,148.737467711631,255.3170594249,26.8525370339705,765.709233072753,-46.2899009104334
91.9861438100047,5.50050591099675,274.014538813896,34.0412900233786,105.547700109661,4.78839604023154,427.908939999545,40.9736066674991,720.843159248172,42.7881524890995,263.352578291595,8.84792020850594,1118.45066544154,61.250653232001,270.242166294051,-19.8371108777635,327.133571350054,-8.70608784810025,740.971685414282,358.290750966094,514.470374545606,20.3658963519244,705.076423851722,-2.00674996874697,581.252218049659,146.912417035548,253.173185878715,27.2255418803998,750.446106700301,-44.2435110772244
79.3877710812633,12.8398685119021,262.513591574658,39.6473081067986,99.6362607993868,7.40271368935036,425.317020770111,34.895118092721,700.57094404951,44.4387814121636,256.41145493968,11.1631935404028,1100.19068368837,62.2777969539448,266.450508738124,-19.2949347182752,323.553890397892,-8.45557174395978,730.826744055454,359.440512233632,515.042779168851,17.0830596882284,702.599609359282,-4.00224497599643,578.705702227248,146.68203264324,251.569373771314,27.4296196340361,750.553501870608,-44.1352422109147
81.6095771829555,12.9322990633936,269.205786844779,38.3522837951929,100.700538572232,9.01276489171954,431.093484818853,33.9567125426882,713.613046121856,43.0223725245593,269.221401709345,5.02696128111139,1116.56611146119,60.6456355224544,269.584485864271,-19.5229753832708,324.455667738196,-8.00531898050439,748.217843674233,367.889972310241,525.161122508078,17.5531126257914,713.66962748819,-5.30354603821135,588.816890380485,150.625125688624,255.621447545794,26.6667826569256,763.024561622119,-43.9123852402081
79.871511762943,13.9726280599074,282.889068342485,32.9121448876897,102.719523402759,5.01314107189542,447.988279484197,30.7861061418377,728.598741220934,42.0440205533853,269.048078139583,10.2099862435234,1137.66904104536,57.105469466496,275.640408724515,-21.034706574901,329.67681080679,-8.9513304398783,772.980157587263,367.879328622052,526.227183187541,16.4675671979183,718.467670280603,-6.70922705183331,586.453782547457,148.873271964786,255.255164170672,26.9901267401526,753.499160440242,-42.3647224606157
74.84715980818,16.7555772256214,259.730972810239,38.1935738954393,94.3608283506097,8.94888692751216,429.057851825179,30.8433326364115,699.794346416301,44.4628627703253,255.56642240119,11.2792454488663,1097.6725454093,64.5768104264683,265.444584477561,-19.0842918863644,321.126639079994,-7.96944241961153,727.449220736984,360.756763404608,514.719045938356,16.4208073871752,700.78192013438,-2.59893821367779,567.825886229816,151.789006499448,252.125573155947,27.3334150804467,749.932987902905,-44.6870904310918
81.2789451248443,12.5024681510939,266.989472715943,37.2151774963596,99.8572538139117,4.98829157142137,431.62181102783,29.4590212590678,711.064804320961,43.7443587395351,260.30079919323,12.8938377872229,1114.65397151464,60.1419324403105,269.7308322797,-19.959012681953,326.526737538778,-9.10789934354718,749.852492548414,361.869233590609,522.643124085656,18.9988278903546,712.500673960037,-5.08060179287809,584.840911063514,150.811136377863,254.323391619544,27.3493661171503,758.076866955848,-42.477774045767
77.3323592706386,22.0530292968259,267.899486546707,39.8776848913422,92.4615931441221,10.7846365234086,441.349296431535,33.1842387569906,726.896292778271,41.9905826184073,265.873088510233,14.6231517362963,1129.68424750375,60.3166897704716,275.467389110874,-20.7027939725445,330.934294712622,-9.36487536670326,782.018658531057,367.722948531882,535.852108063037,16.0766606139745,727.357388032168,-6.04497270244699,597.830686952268,150.961780115694,258.30511152479,27.0003418915338,772.147460581111,-47.4682444072509
77.837987132909,16.3985360694568,269.541213770262,30.6108153084571,99.5055816146775,7.7995741894249,425.449312535516,33.5575005009595,700.836849714312,44.2358803119559,261.223913136758,9.63226328951582,1101.45442774811,62.3917192639532,266.398492819084,-19.4898988597907,321.681621092191,-7.59525929693998,727.311619825364,358.293639016747,512.658727059391,18.3842639523274,700.201375649275,-0.214096302264186,573.01148378366,149.339621195653,252.845648925028,27.1622565464058,748.589478716412,-41.426975581473
78.7251070436766,12.407010726674,275.648320956902,33.0282601160594,100.353730082133,5.08952785984856,427.873977616135,35.0411054906007,711.492660698107,43.4246906321453,259.871009735931,12.0816749775258,1113.217278412,61.6903464014497,269.967157091139,-20.0293352975112,322.478702456164,-5.37908587777656,741.852100703024,364.28791275484,519.793968352439,17.7745585322692,711.08464731634,-4.03870932551379,580.838907455779,149.811670737523,255.009838853603,27.0852475210654,763.72446186468,-47.4057812219521
85.8446945084807,7.93666205069804,274.285663108574,37.2929137524508,101.903740544009,9.38382230284339,445.578573421335,34.8084751949322,726.611892050173,41.840455517817,266.984518017306,11.9675699818364,1134.61223012962,58.3584411900053,275.731865577784,-21.250306972614,330.718628488249,-8.19650170985384,776.838537593113,369.522552552703,536.396211303124,16.7134308102107,731.600700892615,-7.21300331174243,601.117770284874,149.984874391661,259.219275601549,26.8451117302681,772.965475845117,-45.3418463766838
79.4121568222921,12.6655086660502,280.436795744435,27.5776519395616,102.693395332306,3.53133936155842,419.849278006889,33.11133840945,704.642781509672,43.4310935865912,263.263421403083,12.093156546039,1104.49215261901,61.8394242933059,267.395641222948,-19.5331672682188,323.427601341549,-6.88086802647919,728.403270405396,361.723788120468,514.004124361838,19.8633080108784,708.009952050015,-2.36489328539604,571.245384314353,151.766944307255,254.330253547135,27.2431492952986,751.657338735937,-43.3458548773128
74.5897136986483,17.5997033535468,280.324957707448,33.8048029654304,95.3473376429063,12.413388302838,432.543133371971,30.89883066931,713.614586179229,42.9271142964307,265.736251920308,9.19013791407731,1107.77790476876,63.3660270916895,270.210001458797,-20.355751005875,326.573467319511,-8.11816979320103,745.648302876045,365.112359056131,521.329546948006,19.3052748015923,711.685228336199,-2.62730853707279,579.900429841716,152.101989806876,255.984946665493,27.1652981548323,761.643145349903,-45.7462561404666
82.1567738523448,13.2873951981953,287.656299495727,27.8551443300191,98.3785883808388,8.73625120046754,451.869982107954,27.5878727352342,727.536240255297,42.390617715408,267.47800447402,10.5029318329597,1129.52769955108,62.9634371387012,275.871922733949,-20.7156039713872,332.167631914112,-9.13008209054217,777.315599684045,370.758459910456,535.717032067022,16.507793352237,727.400100619244,-5.98393765079819,593.732168574574,151.795552484818,258.009766710029,27.1162397606208,764.401007549268,-45.1932819162212
79.8989661281218,14.1921596275757,269.506774054519,37.571504100051,99.8247588317131,8.83976404541479,438.667240997566,28.6305032443564,704.627664658557,44.1531771423981,254.380563496343,17.7355359715322,1103.2672978791,65.3944412335999,267.372585624469,-19.5674372393679,322.620368048289,-7.33888898473144,725.470032115128,363.830716231574,514.62384873089,18.653200502068,705.284539913287,-3.94120855905065,567.542351061908,155.048440312234,253.296052146706,27.8309937116228,752.992631217857,-42.24481022337
73.1232461669035,16.3082461065467,272.487030435815,34.1210911400771,103.601208783792,4.74698496498599,425.267388555161,41.5139905104858,716.076395391577,43.379261638995,263.657717515894,11.6083389183598,1114.89550383696,64.7566158466782,270.678027577607,-19.683608204374,326.799233424363,-8.66487192275459,747.80943386837,367.210252193063,523.732107627332,18.4107207288178,713.138401655652,-3.18853485203928,579.239881337069,154.950343912026,256.480016711073,26.863566448421,762.34309012548,-44.5084797776776
75.809768375214,14.1973964327341,285.523405868982,27.9332517657425,101.267844174591,9.95598853239662,460.348278486657,27.6890397751652,731.762722286777,42.3724610601018,271.695781965717,13.5509800725953,1140.18190657611,58.218069712935,275.481510549742,-20.5026096903796,331.28572672917,-8.93528818649982,766.076778400209,366.168922067471,522.575686102798,18.8037022287062,715.867331081168,-5.2094830893341,573.691473232429,153.574672357618,255.825197185818,27.2164006715576,756.436224905473,-44.2731293931991
78.5708339091004,15.6036149256356,265.28107575391,36.6463627960777,101.904568325884,9.04945583997363,434.159460784429,31.4179498704629,708.252690313405,44.047440460096,263.195805845102,13.3093698222536,1106.46820498473,63.6877178161247,268.37737992976,-19.6435651312157,322.786045159823,-7.69275032337589,730.181042851879,364.934897177779,516.262767067567,18.7963881956643,706.605232347399,-4.61191693992716,565.556077859829,155.637635845724,253.960139542127,27.3200376283933,750.08926056825,-43.0571868638073
85.924085027619,8.70935696880892,275.723101627002,34.9622609822796,103.155333128985,4.3273779352224,442.064869331226,30.3164000205285,719.793591023531,42.662124197128,266.244454347921,12.7084699257316,1121.47542449193,61.3125750884364,271.674713266241,-20.1396036453966,327.45415295795,-8.51972301161837,752.053593649174,369.884958465559,523.124027235413,19.2071313687383,716.112115560446,-4.15957660224549,580.386741741168,155.456201250265,256.453022579644,27.2621667888323,765.824713121318,-46.6021307132645
78.7520887027198,18.9862749325348,285.706826716067,32.2666337351286,105.01317001402,4.62088943171583,447.351500162752,33.7001330916244,732.1343619127,42.2832864975866,267.631421350282,11.5078819821939,1131.83232605585,60.8316459434873,273.43603750625,-20.3803119789441,330.633800044805,-8.85732166342606,741.333317033996,367.843365956562,518.487385845937,17.6473397917883,706.461067425974,-1.81963794046799,565.164923217492,157.343453741923,255.10824569116,26.9200321244159,750.845823638243,-42.5650100058986
80.6844637057585,14.6957504272532,270.116717956687,35.7111047602867,101.134630248375,8.22776079611952,435.243434828024,35.2836783363406,710.011666152694,42.883015355309,262.341898980571,10.1398943903796,1106.09421007061,64.1007875866037,268.321768300404,-19.690269643716,324.080009528701,-7.37243677624867,727.61403217911,363.409038750457,513.03859999469,18.8115349907344,702.263974671327,-3.53120908178929,561.718912478942,155.217364452236,252.903064847664,27.478680485782,752.103444117393,-44.2710480332753
84.0890231711532,12.5075449673111,264.128731201163,41.0532411150825,101.139660903477,8.4367383057738,436.453909689401,32.6479170215374,721.654925894628,42.2046413772993,271.404852365332,12.3760338212381,1122.09592303095,62.0957404247665,272.165144746778,-20.0756954361468,325.873296012598,-7.10230808088487,758.397874744886,367.283801779871,525.622796429113,18.6245482599391,711.848819673962,-0.963120297611266,578.186302998498,156.909749276856,256.078869999109,27.4733432671534,765.720802212859,-45.3552455738052
76.8385974255548,14.4553228535414,287.630086689937,29.1244768340287,104.828584975807,5.32500914656423,457.728814606603,29.4446910541097,735.238008906481,41.5950835496041,277.785608338209,3.20968689903676,1136.27694556883,59.3611867189253,275.156892854681,-20.6344776142282,331.782791011197,-8.29816771605467,751.478910630925,368.883812925426,519.823149972111,19.2335792409899,708.955506907415,-2.10980230545154,565.42840108074,158.05760040309,254.618448657026,27.6408813068836,751.059867956043,-43.6962027391421
82.4203862846541,11.0622216420174,266.545426659972,41.9099893720106,105.21232291099,5.64910957683681,429.482032642179,33.7587174247325,710.674228053378,43.322373148785,260.470008542471,15.8485539447759,1110.50327676935,60.779045630451,268.422194661367,-19.409612578544,323.944997717304,-7.1164226639832,728.111027381883,364.548047537113,511.565994417667,20.9126921835832,701.976469445958,-1.68446262531811,557.693494394557,158.577220954685,253.53939734638,27.4597946068692,752.350662200962,-44.6546896583206
80.3231904341958,13.0044672194358,264.087881330036,40.4178867617056,101.577025577179,8.31454142653218,444.866684114991,26.9494685318215,721.405241951181,42.7669681794831,264.540833716501,14.1833243422432,1123.71975906748,60.3243963285971,271.854591667534,-19.8112752033344,328.767206154471,-9.56199697109392,758.555112955832,368.456382246728,525.425957254023,18.4435716619921,713.768773874309,-3.61866699733957,574.805447250784,158.839635263692,257.007898248863,26.9142085870326,761.852582129417,-45.3786915416533
82.1066421198351,15.329364420723,271.660916485358,38.9005469971172,106.802371430269,3.12897941159053,450.744950711052,30.5338798432063,733.708687926738,40.9157857880208,266.474786521261,13.9324845365938,1126.7569535481,63.0054897410621,273.722330638263,-20.4103717546497,329.694992107106,-8.16372233526061,744.306092246913,365.972387657478,515.924540161065,20.3470800972305,705.967721105954,-1.62380958374094,565.458165124385,157.755869770315,255.033124827738,27.2746510636559,748.875281416218,-42.4601554745052
69.9480891018959,19.7261811822318,268.35783981342,36.6666616474293,96.9962378675878,9.34942377403551,439.895879052877,30.5869913635825,713.005626416873,42.90816882593,269.342346735999,9.01476203826407,1112.391506514,64.2994790366946,268.651836891144,-19.5446128594456,325.889976971387,-8.09926211867181,728.743209994443,367.823855800176,514.12213290935,19.4029052133055,701.685565319426,-0.698335982759449,561.857513621985,158.499513434724,253.391992438889,27.7272745639139,748.435719514195,-42.7178025214012
83.1417495667931,11.6591129613808,280.254127089813,32.0975461091833,102.71940882711,7.68154948638184,451.597661474053,23.213345754047,723.709632133127,41.8573611934785,265.615085515176,6.7627920214603,1124.85760484661,61.2129648799003,272.185722244015,-19.7946790006235,328.498331855906,-8.7349751075892,760.049873441582,370.166953762661,525.817212747138,17.6637557833522,714.269760838119,-1.59015283076192,574.676583029812,159.449425159861,256.830935029458,27.067399267794,762.093050411412,-43.3050838896793
82.1344675097927,10.3212108794318,279.830359489791,30.9701341653449,98.2549725537858,7.09823660521523,430.708391465341,31.6997297473908,717.059936059858,42.356062265687,253.511120669829,16.0877847538413,1113.3716310099,63.4930893232454,268.861020477657,-19.3260668791034,327.038474705622,-8.70739035113339,728.525342662378,365.317711127574,514.625093397347,18.3014415179838,700.705759422614,-1.98188545472345,554.147363377125,160.45601008156,253.842854908214,27.3628989399906,746.067347261999,-43.4359080178396
81.7666473955791,11.4462304525275,272.882073840899,32.7536211342433,98.2053280669166,11.4923804636627,436.070542655073,30.4389201843946,711.890901735424,43.2646486726136,268.20951473085,8.688895321196,1113.21801494126,62.3529042667145,267.502751823365,-19.0854490698021,323.22961154149,-7.10400441362695,732.882841013586,365.689042676583,511.051180360455,21.5704403097073,698.324040606007,0.443166634773453,558.600930270641,159.612610860454,253.0021161272,27.7345515963734,750.895339289062,-43.9595051637436
84.6314310724034,11.7115997582984,282.076561570227,33.3882492666008,104.352791456982,9.89088617690139,451.120890657972,22.786497802706,726.360540137502,42.1198215218256,264.471033404245,14.5504525252259,1124.48370146014,62.8542834387643,273.198774678208,-19.977076086379,325.767645352001,-6.48885160185584,762.819407150406,371.32693445415,525.712144560862,18.6771949140708,712.149487196977,-2.51997080646872,574.778943866312,158.537469464786,256.251475343733,27.7428059083515,765.044332102357,-46.178644443961
83.190959237259,14.2180785158875,273.223687279082,33.7521335773147,101.139664189369,9.34062982098785,432.798553056414,31.9659696074861,710.00448886148,43.0428361848294,257.217485645488,14.1748106077095,1108.8952984431,63.5601953287623,267.260291600255,-19.106177213563,322.893549385717,-8.16830696634061,726.289858222484,362.720508879067,509.379193183333,18.6576460003467,694.563029965996,0.0152948750153752,551.634818408244,159.820116838685,251.927889956007,28.0882235656857,741.647457661553,-41.6812569521801
74.5264991174815,15.6359997692716,272.1168006173,29.1310297961849,101.608338467715,8.75919511028093,427.702572176506,32.8881754203656,711.893143492038,42.4136757678577,255.892898617839,14.8945273452664,1103.41175857632,65.910974764341,267.222502711708,-19.2854621193565,319.931419522866,-6.15743470812376,733.317194621273,366.19554301247,511.144972588636,20.1160671569911,693.259509182242,1.70918214481168,556.075625125786,160.706621251307,251.984448636026,28.050619466319,750.760363895273,-43.4322243465881
80.0449498232191,15.9657260996205,264.333143647674,40.7997212526506,99.0555345813502,8.19565378030493,437.728063421723,34.3374476852624,725.993261582583,42.0566467771016,270.652867419343,8.21855275266807,1123.83994736766,63.1407828624472,273.510086388809,-20.4676147072699,327.565921906324,-9.09582147152785,767.637618406509,367.606181524699,524.833121110643,19.8159659999087,712.261343508729,-2.5905700359385,575.496782439483,160.438915084712,256.083787530933,27.372537663022,765.19198747159,-46.1847631075764
79.7705814250392,15.9065882043689,270.438967148233,33.087837229473,98.0523381886812,11.4122149000802,427.278533693261,38.5515246187055,707.523679896804,43.3114188969915,260.856163121894,11.3768373914926,1103.78713666275,62.2257591454873,266.709414391996,-19.1600227803127,320.587787648499,-6.4479636541288,723.976606752946,360.263479881345,507.099032393761,19.223959466737,688.04750145142,2.12854400901254,546.194763304654,159.175657033182,250.078497046259,28.1445062918965,740.852369092251,-41.1743387843684
82.4933936212171,10.2109207125808,275.286913260201,27.2476579430861,102.600034565227,2.73677014808517,435.780901165712,31.3636507978604,709.270334928096,43.1087250209622,260.998910099417,9.87286844025828,1104.95037430756,63.198525607066,267.100488281177,-18.9209534264175,319.076254682433,-5.52128427317786,728.950228562728,367.549106532729,510.820767374125,19.0743406296187,692.214581534269,-0.602342777129589,551.667606381601,161.208860728845,251.718259321444,27.6762004453641,748.900107277037,-42.6277386439721
74.9246279400849,16.7027097184754,279.613026864601,30.9431340469315,93.0799365104142,13.0005434113386,440.807220488008,27.6362051091624,725.305048546055,42.2229518147588,263.057095181657,7.72952465351298,1124.58598041616,62.8743162908742,272.524897677545,-19.9623350853906,324.782526564042,-7.60448842463665,762.297680074603,370.090557842698,524.412287946449,18.5958875701991,707.400169000067,-0.770438677171826,568.866734342619,162.196409529647,255.034310801079,27.7981741587008,763.397675335287,-44.4043427911772
80.0188896188964,13.3203973362729,269.752568394441,34.1685832122894,105.084053001105,1.95069575819447,429.803821576545,30.3223848051669,707.305491072786,43.5976696516606,261.338968369559,11.2474264885254,1102.03385022326,64.0862625350221,266.796055747997,-19.1240835638748,320.315702265175,-6.44213959263463,722.391949861069,361.522517274684,506.605755265414,19.7748259053915,684.614734819592,2.07802966219038,542.269796289339,160.551870376271,250.283050376494,27.9839192517269,735.878963753038,-38.938328175597
73.8281096445056,19.2151935000766,272.063067368258,32.0258433307107,90.7155263327087,15.5898368411822,430.693850199964,28.1348462687964,709.616719559911,43.2447330657624,268.847288265882,7.7269549253522,1104.81722093396,62.6048607831926,267.128817020616,-18.8451412787782,320.625666065901,-7.56412686602116,728.185207328281,368.158357068781,511.292817774454,19.5073674592848,691.023560635918,2.39918599367011,551.365891383756,161.591594591491,251.157591462059,28.0661458956877,749.755982813871,-42.6308809012164
82.0044866428197,11.7993743143428,272.443355787519,33.351081219179,96.4684273527992,9.23125993046852,433.725896935872,31.3079134737447,726.573624893676,42.0023785820934,265.596421985133,8.14360794255682,1126.68890262759,60.7095224639595,272.943634963861,-19.9231937100712,326.050485989492,-7.55025944206694,765.225160063031,371.175893113205,524.224632443395,18.9808239762121,708.305341553674,-0.620865487067923,570.053117393115,162.028009141534,255.21968807766,28.0646519878234,763.946787390708,-46.9915168094596
78.9503236121519,14.697422832899,270.475592305097,34.8757343911521,95.5755608386838,9.90139219291033,440.223038739489,29.5594264625426,711.939923068771,42.7934579733907,259.435030827834,14.968455937893,1105.34909420178,65.7754212494161,267.984951999625,-19.4846372743057,323.648431558562,-7.89352415311319,727.32881160127,365.538923755894,510.980078698879,18.7156765225341,691.388452047164,1.47226244738422,546.391292068848,162.009320742576,250.939492262206,28.2296844346887,742.941968651951,-42.4492138857759
79.3211841145069,11.2342337747947,270.925720587316,35.5843352295976,98.0834093010291,7.93341400325609,424.689593767473,34.8142371048439,712.153453624139,43.1777781157649,275.005220093146,1.51077566275143,1103.15664856592,66.9006343590651,267.722085817271,-19.1472790386744,322.055609442339,-6.81059251442126,727.799643213712,369.647526455336,513.401598146382,19.3572876565754,692.571895635117,1.77780988556254,551.461215022279,162.258643080842,252.21178446259,27.7794218058245,750.495271345795,-42.8618894651798
84.2045660695405,12.1134346454097,276.416471562783,34.2354169709849,102.816574756663,8.55417653377467,439.954734080001,33.4052951486276,727.728012975415,41.9640988230943,264.317204131406,11.0390016293986,1129.84273500382,60.1385868604845,273.977704205096,-20.4702055548254,327.008836663885,-8.39581503430233,761.694437959975,373.784265017585,526.725740483809,17.3385825730634,708.537029908517,-0.689514526450369,571.754211184254,161.466547572012,255.428033623788,27.6335220835509,765.885077164555,-45.0416343656992
77.0250918751271,9.28236098747767,267.36897480757,36.7500354376485,99.3167348608465,4.88937466941492,426.681239643041,34.0290808846391,707.966448333044,43.9735767650595,260.115247116931,13.0254384859985,1099.58354838221,68.1137061576972,266.780848732551,-18.9653498433004,318.890884319418,-5.88711636729207,725.096625684954,364.224888792972,505.790449602534,21.8008877166287,690.113482363036,0.130682396122397,551.762012381242,158.922491945107,250.584018898324,28.1239105151502,742.625633267868,-40.6616580982735
81.7564808099323,13.3977288747866,270.800847150147,29.7730548096073,93.9025971849721,12.8554418263726,435.492868637106,30.3794301618542,717.218866196234,42.6503004217758,263.346613841141,12.6737164850674,1109.74370442924,64.0575578963772,269.886867734249,-19.6914737252573,321.302952112299,-6.46004259517556,744.649472684376,367.918245868063,516.792468555356,19.4853376876543,696.131423388389,0.664997890076552,554.80213651032,163.2058116155,252.444107199905,27.7044437961476,754.503779953976,-42.7817373476427
80.2685008161713,13.7905438754589,287.745599249464,29.0211558948979,99.8657924372995,9.20223394814454,436.618190455636,37.4118918498123,734.068988016588,40.0895677200059,267.767026835378,12.9954821990694,1133.04936496505,63.1712865341558,275.292419337757,-20.3148798539937,328.348980414029,-7.63128488025802,779.818519168616,370.10291685629,522.765324415438,18.3980146084229,706.607804572213,-1.92681401991936,562.007117746561,159.847142116572,254.109088485722,27.6047588277091,756.087528964029,-45.6016195586706
81.1200651109729,9.83160370240832,265.771255086394,38.8569306078854,101.199623915632,4.90179579384023,426.299286074108,37.3366130588717,708.753746499307,43.1339733784438,264.127060265818,9.64363945192337,1102.02930247599,65.4298340325993,267.123599950156,-19.0463066038292,318.367787838039,-4.89586665992599,726.869054310674,365.338331841958,505.108551404614,22.5656848842485,685.425932589734,2.21749856302105,542.677007849538,161.496091379586,250.411350842883,28.1492397762374,744.837032475163,-42.0715892664417
68.2203558538182,16.7114606150092,268.766465248865,37.8095537852961,108.492108682624,-0.37120878876226,439.404376668123,24.8176175136041,720.417387093638,41.487126569297,262.796700900499,14.3339810965568,1116.63278695847,61.4521795633838,270.085924073398,-19.7670189354353,321.969001234975,-6.31476347649711,744.781897506844,369.655565935463,514.236829326623,21.2764024825921,696.023846359468,1.01156649269475,559.041695541332,162.163113612848,253.104475526579,27.5783872989709,759.071753554499,-44.9571975388294
78.421804486854,12.7818480464933,280.30777621408,26.1942223225285,93.17339771701,13.4826780170652,451.683372777744,29.9345633036187,735.850446823059,40.2200502411574,265.181837989293,8.3610288813983,1128.20367705352,62.9736241157081,274.844921527707,-20.1490094417841,328.42060462821,-8.14213161566199,756.338485027281,369.523757179571,515.059709633632,19.3151135287931,696.095683749387,0.0572370687418377,548.664648161534,162.156795028037,251.799746236624,27.8279220666646,744.769179122782,-42.8384003212779
79.2214515091104,13.7335196018141,264.432721109439,41.2930815890176,98.8708140238932,6.35625593800034,425.59776065402,34.3247563468959,708.076474283174,43.263349158885,269.892198220391,9.76046170156033,1099.64081693247,63.8620402481749,266.884536949318,-19.2789514628705,319.263993454362,-7.04738743756135,722.385280972563,366.82469361356,504.243142389337,22.0325043185932,685.866108028303,1.44497016241896,541.089637014061,162.612543191877,248.898648164889,28.3583085092094,744.217395557032,-43.4933963622798
75.4937227309518,14.6004271578662,267.833680460315,35.9164964810616,100.834350204442,4.70082815545387,437.350573630109,29.0063351429446,719.697689778777,41.7694673309177,261.966989419545,9.44607569778347,1112.41249907581,64.0136972630606,269.98957210515,-19.4607535971036,320.063841512663,-5.82537148040136,745.990429400005,372.105261378581,511.964357310689,22.4958347842073,690.892435293793,3.01170460163049,552.004612106004,164.227283739462,252.007420083985,28.2970080438438,756.051035718164,-44.3621449377678
85.4300535037256,12.0582665607413,287.128653302305,24.1912680226221,104.079381886577,6.03056015058051,443.606049156674,30.650232415074,734.006485768855,41.1083979351126,257.619822170243,17.8500114921324,1127.99188854457,61.4742541189767,273.930352487861,-20.5268759143214,325.646818696618,-6.61382518572426,743.625494148158,371.079019354476,509.529178505219,20.9601718677829,690.972952596961,1.85119950882974,545.649034209931,162.219934528447,250.532935118933,28.3104693251267,747.671453877336,-44.3272095707309
76.3319059858099,14.4081233965328,266.372616870274,33.9851431217378,99.975588696081,9.43743763365206,422.659971429714,38.7088380037861,708.738603690637,43.4696563701917,271.679012226337,6.52799404157839,1098.13109224348,66.4385890626898,266.93459547785,-19.2256940310584,318.998459118228,-6.7745021480403,725.57792760984,364.789406445515,501.55232457406,23.7190810680907,681.061263878331,4.41296287248522,538.809807667653,161.801944218279,248.851976233196,28.6170257177116,743.692627111039,-43.8779880889521
87.2865673164749,5.71182070951704,271.545884261213,39.5895729792656,92.5635144254276,11.23866451669,442.70925911506,27.3505214464483,720.478210443798,41.4460863661123,263.58751268793,11.8096051421361,1112.85808499197,62.9625967901254,269.810788376485,-19.3097133468117,322.125102336513,-6.60515045565807,747.04695151729,371.022414979521,516.805174205424,18.8684120715317,693.461919116495,1.68412321251003,558.182648983649,162.767302057897,251.785073177888,28.6670021375565,756.468941407135,-44.172622393439
83.1538438696165,13.1605729162928,290.606988887288,25.2811226534427,98.8242869555349,9.53834487966763,434.86891332153,36.1846887905412,728.333924868198,41.5241749804156,262.697642508792,15.9389047231332,1118.42670427341,63.0830913785463,269.574615193159,-19.0971092471188,323.927692335311,-6.80236292738113,730.390881839389,367.373073410554,508.502602202191,21.5433906022412,687.424630878407,0.906396853562661,537.813940097773,166.939012803295,250.32388932841,28.2804123139455,748.957945087085,-45.3805821502286
79.0043258261333,14.8829955014278,269.109391878293,35.9448341260805,93.9855278197492,10.7588302618727,415.258431047553,39.7269611968371,710.033304812228,43.44038213772,262.603048354294,9.49117582743034,1098.79379850307,65.7278897488462,265.94752457664,-18.6698672514882,318.752571248659,-5.95004915747435,725.475832979724,366.433289676249,508.697378219498,19.978253970584,684.288018715167,2.66888210063754,539.17094032653,165.862737144597,249.706160944095,28.3287913364212,744.795051351837,-42.7441268928319
87.0511291542572,8.95078028105833,262.708535902107,42.2211063521571,96.5810676846799,7.38003627669681,433.788826029526,35.987259345893,723.160794038049,41.8213099123862,269.189529678206,8.45246194313613,1112.01910343058,66.1279521121863,270.482084765377,-19.4080559432362,322.433452863653,-6.18667389144599,749.49912591236,373.442180707371,520.741197910814,18.1568617950616,694.875324603137,0.695195799897447,556.539985793559,164.664619992374,252.626739978509,28.1465812701202,756.605121207224,-42.3000611801368
76.6548494241019,10.7312514316428,269.956042118202,38.9527378027987,97.4826658966561,10.0697810067349,420.720999605658,36.1012231792736,710.456536965476,42.5064222208146,265.203092786261,12.0540141063163,1094.37611692264,70.1854140657312,265.2615260522,-18.2165739046852,319.201820584474,-6.86184596601386,725.536934315665,360.774699202567,506.176815645724,20.5516289549376,683.077520425753,1.30584012827804,536.960384752168,164.702363690589,249.021161869532,28.4854799078319,740.107294055348,-42.3120764590912
81.4115325379923,15.1363597446657,267.717938325907,38.0107893515244,104.154720284674,0.47086173054347,428.071520239964,28.5877402343838,713.264465093709,42.0866888296866,253.388414848079,16.2061596589323,1103.92971243794,63.1080275364435,266.343977323832,-18.5798408885348,318.129515583118,-5.8291171387463,732.927096299897,365.81343989614,512.304204989562,19.3467329372529,687.260375918974,0.848951713574068,544.481373791767,163.129645898727,250.225335972652,28.4107806917814,750.576035517018,-44.4963505048034
80.5004739306492,16.1609649555236,272.314704231407,37.2542323272037,97.3370591137494,12.1998563204643,438.12135796973,37.3713275365812,729.035905481043,40.8027390001657,265.902253438909,11.8824020623145,1122.62763359507,64.5644396883509,272.609712690517,-19.841886577083,325.676543034525,-7.52623732645837,764.274542986786,372.485534105557,526.104685730161,18.0059881452198,700.005345408826,1.85213664861966,565.246560525054,163.47373650673,254.413931703761,28.2342016560012,764.407763180752,-45.4833793083947
82.7081998633864,12.1433362612588,264.403929272996,39.093384554607,91.1472424948656,10.8844415226679,411.69001712199,38.2892823131641,706.264254465285,43.0923924837518,252.824317935905,13.6044391416026,1092.86773064554,66.7254633985374,265.075721262992,-19.0830261828965,316.258548917286,-4.92102557931445,718.599996203604,359.788577960687,502.852093141533,21.4885941452338,677.039255164823,3.78441595201681,536.624208441623,163.252331240111,248.688806570111,28.4731641106455,738.020732129775,-40.691591667974
81.6577546301535,11.6110614386231,271.026299894628,38.4234119964989,97.6066744670999,8.46493057802042,428.517733411801,27.3757416277502,713.731979755981,42.5159308113011,264.750211070525,11.0725708014646,1101.5398674929,64.9392921397476,267.00930465844,-18.975476834361,321.070303437742,-8.45170250604274,730.741775423927,371.152813520347,509.359481253545,21.0380266501544,687.78449168394,1.16936559660131,548.961776266355,162.705200928714,250.654521754216,28.17432028023,748.310392159134,-42.1380472647125
82.4517211204159,11.5062353700014,272.346391218897,34.3122531025559,100.848643611916,7.28311334451116,442.481211407581,30.1765727020159,730.161248482079,40.6921753578263,262.107871825063,12.3501285068908,1118.15309126521,65.5663309628622,272.54201816288,-19.677730399622,323.154172998917,-6.25798144259475,766.054412225665,373.649362077514,524.167913762156,19.279208898352,702.485320798414,1.23875380772363,565.625332873612,164.919468209888,254.261886184886,28.355346907181,761.028872176937,-45.0567903027849
82.5125445422193,13.0418624816123,257.197843587496,42.3745529581165,94.7667880109639,11.632728382879,427.077411027968,27.5874130735008,702.777255087855,43.864105139607,257.084024022229,12.3660326419241,1088.75315755577,67.9542002543952,263.340526895759,-18.3499485664408,314.016055756046,-5.20088477624442,712.775721901272,364.965355587365,499.996880215424,23.7627686881483,676.014626794799,4.97720185158403,536.944541472109,163.784773667204,247.741741677959,29.1288269197202,743.088651335512,-44.7579295423711
83.8040844939842,12.5539224981304,264.499029234369,35.8364591338476,92.2787128991183,10.7118118688358,415.923843165821,42.8059983615277,712.049499702349,43.3966962816379,258.123094072258,8.46207185840702,1098.71522058886,66.4342509881153,265.8250291079,-18.7435932515115,317.878657368816,-6.66625392608467,732.558049822809,367.023189563999,508.263664069359,21.9068228150243,687.285321897533,2.92333002574366,545.244981882777,164.364379335551,250.179671963201,28.1245945288954,747.243768953829,-40.6591102542135
85.3334565773343,10.4858254498917,270.202014546439,33.2573898038181,98.2802120465661,11.7096644813044,435.521382049871,27.800177746219,728.56017092273,41.0020952036076,271.45237822942,4.00766264557499,1122.96935420504,60.7157473692102,271.911201130388,-19.7077304620445,322.449801611474,-6.12568844164882,765.951596499034,372.237846952478,524.596299688882,18.5643453318084,701.17977531759,1.52339117780989,562.322631305306,164.475040529903,253.32243938182,28.4854597014379,757.805981212528,-43.4112661418363
66.9079807416623,19.161162560602,265.433599608416,33.2261099898111,105.208521374327,5.24340390912436,415.305073352134,34.8243351942062,703.749709824283,44.0643728567699,253.283263299289,14.2627105337575,1088.13797151939,67.6801849968009,263.184561875618,-18.1941890581516,315.705488687166,-6.74460871992466,719.971196933593,362.214281479236,505.946540154539,19.9595598637808,678.993525895143,5.20501665706666,537.127025142147,164.836493033602,248.733454329008,28.6099043290983,739.18723525406,-40.6234397520394
85.6922398816327,8.944719056965,252.835367712677,44.6611714141628,92.9084449036966,11.2738972088017,423.185445804919,33.3367195724679,715.248287057328,42.2917251569209,257.957886905186,11.2554101992542,1100.27310026144,66.4586878993407,266.397972440999,-18.5693308054078,319.65179008559,-6.14330708289068,738.596850245447,365.68698570395,512.10722960245,20.8720637403238,686.09614552075,3.07444518216266,550.229910689995,163.902742501812,250.051789949389,29.0867588456199,748.092224190103,-40.6109600449512
78.1210903426155,16.7808418815348,269.102831075175,39.9408313393293,98.5865938330381,8.93636541342544,439.294267131766,33.5978408264816,731.60664808676,40.6937082714189,254.979849935406,17.1601189097131,1123.30169548333,64.9071587589421,272.206052233783,-19.5767582374403,323.357326299864,-5.85528928234263,764.907751146352,376.119461467619,520.515806426552,19.8283154941257,700.960502137165,-0.699041295136257,554.918463544855,164.227836715521,253.062714021705,28.4467461618128,750.594639566857,-42.8446409743786
83.3457174419887,5.88497451975279,264.175765103038,35.6298386804974,100.638921845491,7.35525861261703,426.313520506931,31.5320770340113,707.751004820394,44.0348030571806,264.013194467157,8.26197964056558,1095.37004672057,66.8123519511701,264.504056486713,-18.3718188971527,319.620276071741,-6.74631809480152,723.543391329512,365.619694014663,505.276678912056,22.2246854169783,680.405654714502,5.52688266987317,544.50903591451,162.195774132301,249.937017827666,28.4869424138677,740.702998066554,-39.3014205119551
80.1423662736995,13.9589218118483,276.528483102597,27.8030069474931,86.3475784561676,11.9676822272439,431.590713459127,30.4960913080938,719.055948923726,42.2316355984829,262.402921277606,10.5596790165675,1106.20763083267,67.3159170656375,267.608848148682,-18.8112805753813,320.195145201407,-7.02558697477894,746.684407353187,365.684830572496,518.647893644669,18.6610097477732,694.569963080167,2.13160964666447,553.447694108623,165.307982065057,251.963381225659,28.6571528857436,752.923794780999,-42.6665822434289
79.9284722993503,17.0133173703526,279.701244537889,32.9069505988046,103.284511721668,4.52907844079827,430.818474707489,32.3996259504452,723.863611323967,41.4765218719728,259.307834479351,10.3706381905973,1104.9797656326,67.136628069893,266.877164943722,-18.4519860244969,321.094670917632,-6.76220683583963,727.726655526169,364.344442420026,508.053002826178,19.384975044525,685.998097073629,1.23932013287631,541.920036256627,163.110515712539,250.448049368124,28.576036501219,738.340917995451,-41.2692214749062
72.6118924681219,14.2932325278632,270.462634668995,31.5623114792943,102.229742345404,6.29449182201305,419.071942407975,36.4851751192445,710.773940390714,42.2149807731427,257.016165281886,13.7635923122054,1095.01329886759,67.4047715213299,263.985676354052,-18.1137639912381,317.835264976296,-6.22245081898149,727.242464340004,363.673205406315,504.764500240107,22.5969693563428,684.59507808859,2.38088883077901,544.821948668403,164.208634153853,249.988023561225,28.4234959748399,740.825015942829,-40.3694069291972
75.469265003964,18.5681499533028,253.247581097326,45.4948049742541,91.3552257752263,9.57735430788955,440.393224433876,26.6889051602383,722.601629465919,42.3771964052393,255.084229590794,18.6911212130495,1109.39427223868,66.3715613115664,269.680656091461,-19.4254984931175,323.4632094611,-7.85186671943471,748.337798759959,371.595114987809,519.765617005086,19.3725381061172,697.10202098567,1.96410109734721,558.275259468659,165.041356051118,253.769171025238,28.1520045024533,755.447332422371,-42.98670823831
74.4764675888103,15.0987190603599,271.505043026829,37.2301259630438,93.8277038869865,11.4191649012661,417.121981090254,35.4869247835296,708.243216443876,42.5988651994157,257.06358060426,12.7600306158106,1091.00477204758,70.4204398215158,263.698851490251,-17.8919806784368,319.217255617438,-6.93009160876841,715.818389783204,366.934746284702,507.161723079442,20.1688231734399,679.253961783069,5.93846616459411,542.68162879785,161.209421239259,250.138382124715,28.0898774863464,740.640891318996,-42.8896895895582
83.5004334196089,12.812667899155,260.083386969141,41.6985152023912,94.2027644752257,10.912679344174,421.243352755266,32.8433784350475,709.408066101924,43.0949301619457,260.283816696009,10.7391742827188,1092.51928311884,69.7347197463856,264.273064578596,-18.2330506808303,317.47966135811,-5.90688225705029,724.086545445337,369.082823391686,510.465438762915,20.7261447285667,684.572154802845,4.37508980962977,545.244666677291,163.270905710475,250.158807698089,28.4000756718736,742.030556405977,-40.2367061275901
79.9499677336484,9.62352743357429,275.180075068509,31.6716030125378,92.2983165480338,7.69583903689792,432.275851910597,34.1904452474291,725.708093307036,41.6511213300296,256.012585510375,14.3843074875533,1112.78268542767,67.3054849642407,269.752365374875,-19.035715812338,322.289910615237,-6.39797785527473,752.346608506405,373.138960473807,524.096242448481,19.402335342025,700.818063049319,1.7021336630527,566.243879595443,163.719715874126,254.33345674118,28.2572617936461,758.102569304264,-43.0287432106278
79.2492527149041,13.3910211231449,267.009501479854,36.783472768048,96.6806854062327,9.69045629171252,425.544540300659,33.9890210306831,705.62415005957,44.2690015522325,249.348966873766,17.7983877294345,1092.30539245693,69.0805154694766,263.405553722936,-18.0309236719939,317.800410264524,-5.23258165365166,713.690010523179,364.865282396388,503.567081518106,20.469718862596,682.537408929724,2.62026114755172,539.371302844969,164.794689915768,249.212122205562,28.7821378979157,737.383287323667,-41.9388290692051
74.6501586219686,18.6500046919102,268.480289987387,35.7471436870583,91.6571242092753,8.92169288654872,418.461437306689,37.5770873762866,710.238325788514,43.6935094708054,259.714916639271,10.2644341629129,1099.05496010296,67.7961713686904,265.168332202243,-18.5926890602526,318.535518140779,-7.05078908287603,726.946287514475,366.587874550643,506.902173254911,22.7651519330763,685.231029423718,4.3682234584768,550.586709089649,162.615852600616,250.528316008244,28.9519871122327,740.120337824454,-39.0625518502089
80.7843310644467,15.2327605599668,267.72166491933,39.745545220548,98.4593129267462,9.39068347164265,436.211640365093,39.911282491208,727.275471906912,41.7266842633281,261.31500085132,15.6764978267754,1117.66333765313,65.9019310649388,270.553043973611,-19.0241780608846,324.494490457468,-7.17912304759998,759.670284559848,374.395106544532,524.569360690784,20.5572621416785,702.70243712103,2.41916902516916,569.440731504948,163.733543015349,255.162190717796,28.0357420990948,760.012127685089,-43.5865405884316
71.0924916434102,17.0438000225264,281.220932444932,30.3782036552438,99.4783707136896,9.44729168339501,414.880125645738,34.2114611376953,709.477679449106,43.6630224315638,251.983369719378,13.6238486176123,1096.49868827245,68.1663806351762,265.611154691274,-18.9060777297132,320.723576424764,-6.82397288947367,720.126142672534,367.24455897377,506.595812390584,22.3471545451797,685.910442953992,4.48482227099058,547.271411722184,162.359926741898,251.00532809095,28.3162191364775,733.347149065702,-38.5281072348037
85.8456301174636,11.0325715668549,269.793428822206,32.9867759228704,94.4252390598622,9.88498290223014,418.43073799648,36.0920786375869,712.380741667278,43.1305269131626,260.019169113861,9.72557570149351,1098.94619216174,68.0122426560822,265.876973447346,-18.1854262020436,320.780016498169,-6.24537846429679,729.842175009922,369.014638457125,514.595355344946,19.7915775182624,694.39875324373,2.47692436061269,558.056744842147,163.266057923256,252.069029193828,28.4876750321825,744.722281910013,-41.2940758045072
74.6209324903067,16.5305956097442,269.708983808682,38.1706139031568,91.7230387737845,16.998938080997,441.830661266135,31.1535650737915,728.996388980882,41.9524953597633,261.578779976956,12.504036601261,1121.72932530016,66.1264775485596,271.864047552187,-19.5010783315464,324.776934964703,-6.66340838884435,763.552961066182,374.397504891732,525.07015257198,20.6791266948996,708.47511010625,0.272043598451889,574.140306898703,164.848591382623,256.230629832339,28.2072534258538,756.878339165624,-42.6527894360399
82.5063235829916,10.69239904639,272.067061333443,31.0563112799971,93.1983817758884,11.3393254341233,429.122710969445,31.4756950148376,708.688145775675,43.2231820238831,254.034836524327,16.4541334020146,1099.49054160116,65.79634816479,264.571268956378,-18.1937885156281,320.127836420092,-7.35394046347845,724.044586704621,363.624029745488,508.607464394611,21.7934478826751,691.902597955451,0.842013547804402,552.533055749062,163.458464139062,251.237148464541,28.6192694466316,734.081470706643,-37.9073486621925
81.9374606174602,11.2771874063046,273.412041504152,34.0962279478817,97.4303062297612,9.23894166577776,420.53073930918,38.082229744395,718.994187153422,42.4424044008811,262.390844726904,10.0358104579146,1109.12507219479,67.6488420671703,268.421470920017,-19.0473571758805,320.645964519473,-5.51637187828466,737.072212395801,371.721031215126,516.432711587669,22.4932399977075,698.378440478573,2.38625171698938,566.466225259265,161.112919611044,253.715228576282,28.1924241170805,746.170182104407,-41.8208037854191
85.9717946861885,11.5349957616185,270.755254087469,35.842736354613,100.054584577342,8.53270674302988,444.217714670111,33.5417562518556,734.699069768616,41.0411943161011,263.528097519712,14.4461877133179,1125.4897580497,67.1936569817502,273.91634563851,-19.8857733860853,327.426289386309,-7.67518727156095,772.929373103356,371.950590069891,520.642967248384,20.0786620481623,703.070551250067,1.92594760250916,567.541820264253,161.039537496295,254.520129897502,27.9287112872332,742.501586838953,-39.8603416093799
75.0467078234476,14.2739234942773,263.355161756631,45.1765139877692,96.395451578927,11.8939438681231,420.956431739928,31.3129583447419,708.913369162527,43.8481259741532,262.994721462893,9.62671460949023,1100.3240160764,69.5442747279372,266.054499881482,-18.973421225045,319.394031478758,-5.50225686757534,724.514062476531,364.562930050402,508.865829927989,20.7537257222788,689.073497084368,2.18770641943788,558.719834593704,158.115733209866,252.156443851311,28.0657750810506,733.907315328534,-37.8790123780355
69.6700484181763,19.2229384604773,269.596337629606,34.7134326189313,95.016388625401,11.5527107977365,420.231491540687,39.5803062877598,720.191595492636,42.0914410799544,262.03078594969,12.2320146583006,1112.49309395203,66.4091474148951,268.490285772454,-18.6964339364725,321.686586596368,-5.84231684816138,748.654375393445,366.062094458936,520.178535045327,20.200503770002,698.03562299095,2.04702841167544,572.189219398828,159.852048123815,254.6480080721,27.5186815003807,749.493503557868,-43.0393195162358
74.6957411255891,17.0588609644813,274.072559554973,34.2237512459048,102.14426179963,9.43149538150507,437.55604466201,38.0453905832741,734.147174200759,41.3772931195226,261.946024628341,13.9060218313393,1118.64625983358,70.3725293188305,271.624887821284,-19.4305514911072,326.023583323856,-7.0012535583798,745.93620671797,366.861739843371,512.967592192923,21.0472292950685,696.95175011793,-0.123305150870215,560.521178062864,158.60029069574,252.896198649424,27.7919216450327,737.671175513677,-39.9534824088607
78.552056958849,13.173720336124,259.203075049404,43.7408907825986,89.577246626893,10.4938244437245,431.842927208882,31.0702953474272,709.075492852528,43.021444923698,269.205225147635,7.65305562407752,1100.01416368208,68.1884159272406,264.92023703021,-18.4768717396665,317.324462528561,-4.50266297342755,723.5263193619,365.358848398926,508.450719709829,21.9856789817854,685.450599081096,4.29741916141321,560.00040024334,156.544086894735,250.198133087327,28.8632815883781,737.295367272089,-40.2098762079747
82.972525515518,11.644014854856,271.071063195534,37.5175597905901,91.755721264835,10.8924903714116,426.968772598365,42.8197011226549,720.164991600005,42.4653359375166,249.768270484643,25.2351132502705,1112.80765798067,67.431424913273,268.638529439754,-18.9994275867577,321.191644573272,-6.1832863572935,746.338490349997,371.754012033755,519.559766886493,21.2700615230268,700.897048653205,-0.425601271018675,574.600961699932,158.55163839179,254.173240384579,28.2472170313176,745.706148339517,-38.8607577119398
85.8643447173506,10.1058956775422,271.85961907058,39.4362794083869,91.5788796551177,12.8945201450168,440.287999421141,30.6778104496013,727.53362540791,42.3219035412021,264.936598112845,12.4515612513042,1118.98277200562,64.076732676791,268.564640114359,-18.9714659558574,324.31912864578,-7.51145310457144,725.847297152207,369.915247551177,512.206966683993,20.905960122454,693.012130414951,2.70395439343907,561.770507131511,159.088008501431,252.184534245153,28.1472396162837,731.401164332197,-36.7582410648739
75.0018321446241,18.3565731898873,262.316019868599,38.7455224603528,96.7382031437851,8.95826304995063,417.480892339595,38.2708983480406,707.530873640527,44.181512867473,255.907472609066,15.152933513332,1098.28275110157,67.7938373700506,264.434936354888,-18.1782428849684,318.170123475588,-6.42179086911599,719.947327942041,367.070978458811,508.817363142712,21.0331690454408,690.18884733062,2.58382546926912,562.138164232067,159.494264851426,251.432798770169,28.3166789684723,736.43492155225,-38.0690514358962
80.9491532216909,13.7204775571355,265.333103257248,38.4873745388345,93.7541319344936,13.5170173998198,421.535424753344,40.5360699113843,720.116414729801,42.9548158064545,259.619190239326,16.2871617923252,1111.85408510238,66.3775787199754,268.180683639511,-18.4779741177624,322.78831243874,-6.83177743120354,753.853717769963,368.32875723793,521.870378610953,19.6979996767535,706.518395134046,-2.53427119922426,577.258360756446,157.133082881951,254.545107223278,28.1174747786385,749.627956722438,-41.2175002176437
78.3850422642064,13.2868234530131,274.655970073465,31.4566705283399,95.1954321316432,13.8375858362718,422.322218549081,37.7997169685533,709.364263442298,43.5068195725985,262.989023281518,10.0025324889233,1098.26912501574,66.6069737040416,264.427646993566,-18.0681059608382,320.680592584599,-7.69967569693895,719.503400610037,366.48428291125,508.676134737812,20.7031423400872,690.933074661147,2.91760478973702,563.965655852236,154.700971344721,251.523094673767,28.4105930999878,733.621395413738,-38.5129976719981
