810.974271466973,120.663436681549,373.185234258409,-23.5571905383099,1145.21472218807,-54.2147488655603,244.233019628409,-40.4346109918175,1236.88236477195,-42.7713536974885,1369.70837345759,-85.7727874344026,321.738683886506,-42.2813773085126,2278.41415841474,-473.917454483095,1080.06460254443,-207.737196749413,708.360122585734,-12.581761860136,1631.65783102405,-343.030869341585,617.709104521156,-113.565725724407,524.19281432429,-50.845801980203,489.853711398557,-14.351772700617,1767.34998774277,-449.470442671701
828.01885243042,110.536575654314,387.757538154401,-37.7939951260084,1126.61762024619,-43.0242892887854,243.24204559881,-45.9041763193775,1242.71837309975,-45.1357605767607,1376.09874186864,-88.6004866690381,323.048343501768,-43.3970452907806,2295.85246140551,-480.697984197072,1080.61144446429,-204.398139784257,707.894495070427,-7.81944376924862,1632.65642808102,-342.456541147056,616.020913646835,-113.881088828094,535.326096573983,-55.3021161692804,490.815794152444,-14.8090316568988,1766.11551792097,-453.691268121488
814.391645520814,121.20813829394,382.15100300718,-32.6859543082177,1152.56679488152,-55.4717964797042,235.823580594056,-40.1457981790712,1271.16149157598,-50.2077716574867,1392.56202298122,-94.2721262307913,324.440829677679,-43.5764567123882,2297.3344328057,-477.620527918177,1083.22700765118,-207.108448260463,720.73440237163,-11.99069688171,1643.5350176497,-344.117265010102,616.746396450367,-111.711479145963,537.475150968503,-56.4369333164818,493.939265251136,-15.3285394137706,1787.55374421506,-459.42703644081
818.321421731277,114.102923814112,377.492534865227,-28.0138002501262,1145.22840795935,-47.3891624226193,246.565145508702,-45.6990005171892,1235.71792200403,-41.062243112012,1369.90962160197,-82.7204553880088,322.255475520415,-44.4818488676718,2272.1227008943,-468.789822524271,1077.85758686759,-204.804851915295,711.379417750754,-11.5384461997199,1631.55742625702,-353.238227232378,614.588495232212,-113.052302549685,537.973160074171,-57.6069808834305,488.286498466472,-14.7611932919942,1772.241752976,-457.983355990637
817.724368134179,116.59342384616,377.771578235621,-29.3310574982581,1160.0224024422,-64.477236098727,250.030086450608,-40.7247927729223,1250.70230996571,-46.4747540559778,1375.94937155201,-85.8653297190125,323.376322667477,-44.3024505339069,2292.41306280151,-476.22664566207,1081.22802394877,-211.567918249197,703.611189769821,-6.49493389677736,1640.42518529935,-348.566577271122,610.384185305182,-110.247634027007,529.334993156954,-54.4204424203411,489.39971468268,-15.0495945125654,1782.47164364944,-458.737052947373
820.950943514719,117.415976167867,390.604209128583,-32.2101103671894,1146.69579666482,-51.7187561820158,247.836532005046,-43.0172457609822,1269.90560121989,-48.0012093434661,1389.1285573421,-90.2656621787823,324.157366895291,-43.6905668874739,2306.94806865278,-487.899319414637,1081.62143962769,-205.62728016789,703.887502347375,-1.68614687456073,1639.5633326827,-350.726992401224,613.674123821467,-111.813930205914,532.988597327058,-54.8445645546208,487.820052143391,-14.9759987294668,1781.88354335706,-459.819577815599
806.75336034815,124.418729514755,376.761540197519,-30.0387287181496,1123.04093658324,-45.767037267295,241.819292159781,-40.4530954036031,1240.98209673874,-44.5829385477758,1373.87468861401,-83.8630278537835,321.710284156427,-43.1190175187024,2281.33883290954,-472.065402568074,1078.78640541094,-209.89977362264,708.851541544013,-7.39033675601345,1640.90793064021,-351.355828235785,610.550865272196,-111.34930301534,528.163192445852,-53.5709851204862,485.559239383409,-14.4676249687877,1762.39110248301,-452.316146904201
816.884408784525,121.019093910711,390.241494133878,-37.0915552016669,1139.43689531697,-53.8504028318898,240.919343685566,-38.715953856794,1256.99778050233,-47.4919292042921,1376.09432380914,-81.783258915101,321.138790280109,-42.6515121378924,2287.66106703774,-474.2536740764,1080.72608824981,-208.201466600664,705.662112013025,-7.80045658124891,1648.33000246404,-343.12705315697,613.993711743561,-113.483517921543,528.125285151656,-49.029625405455,488.765319895237,-14.8950939659613,1777.35691005585,-452.088782262106
815.731933133054,116.969775622203,385.426844432042,-29.5976112193917,1135.88590682069,-48.7066038225418,237.612711646984,-38.3038042293417,1238.88165225772,-44.2916364310975,1369.0968338089,-80.5966709549203,322.835167954137,-43.8125515813348,2309.13704952764,-480.056198647038,1076.24151972464,-203.937116355536,702.323225353574,-7.74545873900238,1620.32381586242,-338.373041726962,609.913550262144,-110.919261798813,534.880430213929,-56.2276028825612,487.185570102554,-15.3501124700356,1756.46914834704,-446.983948128949
804.453250940554,122.337986088539,373.579794139417,-28.7125770711266,1142.22602217691,-55.3720390692234,234.017698599439,-35.4100588796794,1242.13876741116,-47.8171607355423,1361.5350266469,-78.2132960851677,321.80920954904,-44.0897447307685,2267.25180998557,-471.648402627456,1067.95839006462,-202.374941212044,703.686020029317,-8.45921215550523,1650.61563491746,-355.533041800735,610.573686171596,-111.857446586963,528.243325685933,-51.346666323637,487.137851583411,-15.0513126021802,1770.99014015003,-459.657673782089
816.496225613265,121.42054786098,387.729868499162,-28.7488127175383,1145.69803366882,-52.780168367102,241.144416368816,-39.4284515248856,1268.81497948064,-52.694883061976,1388.11924795126,-91.4709023159342,325.786035328766,-45.070706363272,2295.8446916331,-472.650129485941,1083.72459347748,-206.10331231426,706.714971535664,-4.03077829596552,1651.60530393624,-355.215891766196,620.308786472126,-116.512857790129,541.224701073829,-62.9480809670502,491.894420074806,-15.6022260105077,1795.28150203848,-464.905994506278
808.154933487362,116.781450735982,380.208886735149,-28.1373140290345,1151.54593872824,-57.6576517338261,243.793470527762,-41.5110678186899,1245.11392325361,-48.6820277487896,1375.71002035763,-86.7997894816732,323.059854232279,-43.4662191754662,2280.95408960448,-472.354531012187,1074.96837800907,-205.266252710703,702.636260989381,-7.19337426449424,1630.67753495403,-348.284962226958,614.594858465997,-112.775382110718,536.384555111202,-60.628241606446,488.413281869562,-14.9915123250448,1786.22161817812,-470.101361742337
808.251355636033,126.37078381927,378.703642056428,-27.54807971881,1146.0270550326,-57.0462345063465,247.721216148464,-45.7357400663848,1255.34559162292,-50.6586012178753,1375.3674566036,-84.0798090866049,323.109118726839,-44.2118652109989,2281.26048384171,-466.005406045854,1075.48729989554,-205.653841437474,706.266830523578,-8.13787044021233,1633.81058584668,-340.533110961635,614.3761050541,-112.376303370274,538.721286707721,-57.8440893458849,490.817317583489,-15.8201486938549,1763.86657066996,-451.048194591854
820.498209020697,120.963838806561,375.100019082729,-24.8258007167385,1161.21107861917,-63.3211340282348,250.250526478154,-46.4311974173617,1276.21543416438,-51.910334504256,1385.13465495262,-92.6133922527909,326.695016726789,-45.0220893897367,2289.5857998449,-472.731764087664,1097.09562831745,-217.396994551095,715.037742258813,-9.44678587527667,1644.04041801327,-342.759636183186,617.654717629832,-112.477846507789,542.468867419181,-60.2411314246068,492.055660622527,-15.6446507001575,1778.9645261442,-460.655688035798
821.901404710643,115.169464936459,377.435996911653,-28.091566834988,1154.44481828283,-63.0594553455463,248.182465478869,-50.5894059730109,1244.24110081691,-45.3787903664319,1379.30525657414,-84.0623875740231,322.918021982896,-44.2078415173159,2298.21257308925,-478.480719572233,1081.70600723699,-209.518068181483,682.155736123098,2.86089937800147,1641.3658207164,-345.129555265707,614.290980971604,-113.551215348988,530.711479239159,-52.2735882175548,489.240847801915,-15.1415890366441,1777.58293018193,-462.199948816489
822.882398712782,111.086017788888,375.929942844303,-25.7504595428391,1143.2122415629,-52.5866334160839,237.278780408471,-39.8479003691968,1259.64173036051,-49.1038412889389,1386.81050996952,-84.8088218729763,325.126210875838,-44.2574106314177,2295.69831512654,-482.451187452413,1077.47129297679,-202.464375192469,703.240851953452,-4.63727629506998,1644.23828782888,-343.725917552183,617.771757930212,-113.487228798508,540.0536021035,-58.3197252411496,492.504604718644,-15.4349648529882,1771.89308592367,-447.391690901324
825.23137683764,111.445878013648,383.550366803765,-34.6034454716848,1154.00264740084,-64.1541653989767,248.612589293583,-43.913321251198,1241.25610640673,-48.2027591239006,1380.41863997687,-92.0168871280755,322.303282345572,-44.1919193385111,2295.17731997744,-481.705411356442,1088.87920846695,-207.678843031368,695.562493297718,-0.336861442930476,1652.56276347406,-354.644178678096,614.268399304987,-114.025432931084,520.470532724125,-47.9166738722517,488.661101179933,-15.1976120833852,1768.79534872831,-459.652798771577
811.2568624356,127.043734470467,383.345202237134,-30.7120018255804,1143.15044353198,-54.720065324993,245.175699242345,-42.4726676438015,1241.56750511877,-48.1593699255895,1374.15112026095,-87.2056962074379,319.751713685919,-42.4657877407583,2301.22544903273,-484.60359854402,1089.65235100538,-214.46158652575,685.208373183972,5.84254119544782,1649.52130252651,-350.89509849283,612.34240940558,-112.700419665426,527.584943975276,-48.4095828491393,488.361998811436,-14.8443472456074,1771.13712748291,-451.318304440928
824.244615891351,117.294806753016,383.101784993903,-30.0890650168985,1142.1737443038,-45.7390670760147,253.764496454194,-46.809240811989,1274.07355855177,-53.597509319806,1401.05954593615,-97.7742058182726,324.728803212367,-44.6572679518865,2315.674557381,-485.588111889875,1092.55072877542,-212.957931013361,704.855827700337,0.227441350858688,1665.01431002986,-358.313029617323,614.450318901643,-113.417320409268,539.646286391106,-60.33595334809,489.665006609457,-15.2792683063026,1785.3862444089,-463.98102042881
814.768766802874,121.65737319077,383.957786333904,-35.6116355750149,1144.64295600338,-53.8403747431855,239.862929818696,-41.471082534555,1230.43822338629,-42.489955805879,1365.18437494996,-78.2607348192428,317.723224643375,-41.4733008993175,2289.65456771199,-476.499312871852,1089.71938221158,-214.720736095498,684.922574467035,6.21061796154102,1636.21892189289,-349.167913620002,611.717251719973,-112.859622567602,522.169316299103,-50.4896212424768,486.177563190084,-14.4638212516335,1769.63322884232,-455.749272541598
814.638947556458,119.097871242745,377.532039023763,-32.4496024776317,1144.59946518521,-55.3778686945946,245.144038176215,-43.7710651268317,1243.68527016552,-45.0729056661962,1363.34759644874,-81.139060200169,319.599515734129,-42.175955007102,2289.84099502444,-475.29163490045,1070.87905754854,-203.354366406894,700.255909856476,-4.88027363779756,1639.3487664331,-349.718663846925,611.911589008653,-112.102464406403,532.143158774998,-52.2341657278627,489.04868174489,-15.1874933219648,1782.23281172617,-460.670738659864
818.159278976362,122.422670093337,381.501262549304,-28.0669757669907,1155.09718199218,-57.6850828122292,249.431781333781,-49.7567863398907,1237.95820148598,-47.0450791661171,1389.97071471419,-93.3003623279942,318.282074660108,-42.6797447962048,2286.25848326388,-473.795426708418,1073.73344826458,-201.812951348679,705.065651227832,-16.1388496788959,1629.66052052944,-341.445272139143,609.704212653062,-112.17612244704,534.67482506236,-56.717730312249,486.125091995987,-14.9183556214282,1766.60160341897,-449.115281250992
806.487974943775,125.10623281443,376.258852634533,-29.7478963988291,1148.50958870765,-57.3936518518109,247.515949204147,-46.205834896799,1224.72110735139,-40.8208915655217,1377.15044730988,-93.2772401196849,315.794811054913,-41.4642452027259,2278.6995777751,-472.343021345064,1067.66017208744,-199.026582425326,696.043872844419,-7.00733494114178,1625.2820314602,-347.175022837907,609.618824041561,-113.155545754896,527.115701250379,-55.0316679537752,485.589666215291,-14.7290017756448,1754.43003606841,-446.893351518412
814.481051918736,122.626651007858,380.748733124497,-29.7589024035885,1141.58689903904,-48.2869603080478,244.5881741392,-43.5187202955742,1247.4668925416,-47.8137908886745,1373.88094869758,-79.6653866313679,319.514630079525,-43.257896981689,2289.62959220876,-477.76146544445,1072.72934241611,-205.352884770207,698.465438657813,-6.71758346117656,1638.21469367569,-346.553109934824,610.817911774782,-110.984233001416,535.942410441505,-56.9077684571727,490.063861998251,-15.9030740967675,1760.36835451358,-446.727349871803
809.226881927727,116.229976560564,374.265590669559,-34.1677462495209,1130.03132666913,-46.1869844435184,233.815509735956,-41.1246066598865,1220.64944963094,-41.7646496414363,1365.92274997933,-81.2592259400278,313.864021859378,-40.1463146979156,2269.96202978696,-474.175472306788,1077.73943414489,-206.15611350378,699.724961517416,-2.99788301242042,1605.23472351072,-336.396282914045,611.115561729518,-111.755886519766,527.894138620437,-55.7521763510643,486.431071277574,-15.0062023735347,1755.24504330016,-450.987741491724
816.646323698186,119.065709839755,377.49290694081,-28.8936576389791,1144.06461944906,-59.0778098864148,244.879442480507,-43.1169575764185,1227.69726078739,-44.9067293256602,1359.40671680685,-80.3233681032809,314.945066635072,-41.9546954806777,2275.18687797519,-470.221143918137,1066.49789125841,-199.042307605165,697.675668661566,-5.93523965964802,1609.6935278729,-333.441862886684,614.168678396473,-114.762508940228,522.175930600533,-53.1444211699622,488.345994992354,-14.8305711268601,1786.02916630074,-462.901503263883
813.019657096977,119.8092804254,386.671490713624,-32.3422528204397,1145.11282232171,-58.8964259368504,247.366458727536,-44.3711062179651,1253.3937365682,-47.5119339720726,1386.4843444379,-89.011744304752,318.761105266215,-42.9378918623461,2283.42471664733,-469.35306683877,1078.75536353947,-208.599749877948,707.908151503693,-6.45898377380378,1642.51778710325,-349.907222974959,616.322691811569,-112.726731667219,532.391700485501,-53.2592607354303,493.734906415636,-15.8117100667957,1792.30330656586,-464.153108071439
818.079553219206,119.067551298871,377.654303318539,-31.444974752735,1126.93623275665,-48.3272872655957,238.816581569926,-41.5176346931262,1226.34126148325,-42.6515344962908,1370.36528261801,-85.2071389315266,315.66150783642,-42.103888163822,2272.09739540293,-464.106515467943,1081.5460827973,-203.583596036645,699.161963565198,-6.67140846098441,1612.89850843458,-336.959992233069,613.683338313985,-111.0316224567,528.371918455479,-56.8542023833107,488.959593206105,-14.6967859570105,1776.69526520412,-462.835632368566
810.219009759702,121.174115036643,393.164332326076,-36.7388986574567,1154.59132928879,-68.3181701510195,241.473329525818,-42.4701673288282,1238.22371074184,-46.1235595164944,1380.00516975368,-88.7579813504701,315.876328602241,-42.3127548663941,2279.94303279911,-464.7467307495,1077.09713605384,-204.964892592479,702.176474212965,-6.87834307075723,1633.15828333837,-342.467448382908,615.234080320691,-113.037612774254,528.222573699962,-54.8606933274063,491.250055802045,-14.7692804916323,1788.59832506719,-459.556987453217
811.722639019624,122.490761930577,382.424084631671,-35.5496555325885,1142.00130006038,-49.280537635298,248.974818677369,-43.8375599823848,1231.58072213349,-44.7562090444578,1371.35167605442,-84.4063914106415,315.399640698189,-41.2201356660204,2280.14908283976,-465.950713313944,1067.90665722691,-198.568348303002,692.913523368377,-3.72445297168743,1624.78788646995,-343.574332019868,613.719339975307,-112.144945892404,513.627378248154,-48.1307144201618,488.561834347322,-14.337936235747,1758.90512821362,-446.600981558077
810.160576676922,122.992102007643,383.959796140836,-35.6923905176346,1143.64324252011,-50.5681025734399,243.477979643626,-38.6579087636612,1222.26917608481,-42.0515520616133,1375.40772014951,-84.6025410552834,311.25436736276,-40.0536105077845,2287.70742707821,-477.841741091824,1076.53694041192,-212.116390688191,694.790213125731,-1.45779346465396,1619.56290321691,-342.192634578959,614.178342459415,-112.897090137279,511.055001653332,-49.0570703241338,488.24951827502,-14.5277810422945,1761.17309829934,-457.175684169389
823.172678237776,112.766899449396,388.697094706318,-32.7800633702263,1147.90160442588,-59.9570970966708,243.531755631193,-40.2677318012097,1245.53233755378,-44.8643241695326,1369.82609246303,-75.863584461896,314.741544773025,-40.6838116809252,2291.81773173164,-479.571011590552,1077.01123790306,-202.205397949944,713.201336729028,-8.04785689243837,1647.44874494489,-352.587805696555,617.625381413495,-113.109776633968,524.541249136865,-56.1867938430747,492.516009327604,-15.405900412651,1790.59635002163,-460.317821937059
819.006233948977,112.410917710087,379.274712683007,-31.4984404797616,1143.67249723223,-51.8086371080437,251.509474939796,-48.5671116560949,1212.14862670228,-38.5818103246585,1368.06189511376,-82.2218932745311,311.965174144153,-39.9091531697776,2273.72410236685,-466.709853188107,1082.83109182923,-208.353660616437,691.053987279494,-3.47741339416628,1606.245049715,-335.46765049303,611.390951555979,-111.01950626592,511.142070815948,-51.4594859967898,487.414745442778,-14.7517279616686,1771.33923089879,-461.238217068383
820.491341624566,117.600098058491,375.765881446899,-29.2133345668041,1145.42189609661,-54.2573251860404,240.122643161097,-40.0499147448631,1218.30651872386,-39.3101250569741,1382.00979671511,-92.1861058334442,311.380017088877,-40.2923562102328,2260.95925749803,-462.234447333279,1066.57220321283,-199.872494645115,694.923820325734,-4.95466984443957,1622.07819825764,-343.882246532304,612.234233852344,-111.15758993652,520.38193599597,-49.5053078767379,488.107850885747,-14.3971893018862,1782.09403774429,-465.400079791451
807.017320459543,123.717237606934,390.704560953421,-36.6194133183639,1158.50933736085,-62.0557200802104,243.659095971603,-45.3196688454279,1236.66605969206,-40.6007758620289,1377.37739805107,-86.6228284519716,312.130289382377,-40.105181516514,2289.99921528167,-469.824722701741,1070.53800983791,-202.476960424911,690.351693098294,1.47978104062424,1603.22147991739,-335.046757629341,612.132532149247,-109.941770386067,516.540182087333,-55.6481821484043,487.215723667532,-14.6263969832629,1757.98061717534,-446.808011421085
798.869000966587,124.441465167009,367.360127736581,-21.2729360568922,1151.15595721329,-59.2346606875757,228.659776024972,-41.0855423686919,1205.68753477693,-36.7722423654854,1359.00387668893,-87.529560849916,310.450568562306,-40.1243339385296,2260.06763611468,-459.538400515043,1058.82298611174,-199.723168829964,675.075287065852,4.29412641631829,1602.64959602316,-337.879019720229,610.383439252346,-111.599414484443,508.96771725077,-47.0283160080842,484.117594166751,-13.8244292317956,1753.30072262659,-445.061942795441
825.321347774444,113.899814227465,370.896695306703,-29.8679293252652,1135.49339513276,-47.1623889759234,242.38650158328,-42.7831613538012,1220.27187305412,-37.6811172502812,1362.99859628147,-81.2338767337549,310.297167308791,-40.1648669878043,2270.5473951298,-466.528288816353,1073.56848226154,-203.402075604911,699.512034218897,-8.50315622381994,1616.71200056794,-343.507701372922,611.158112141167,-111.519734119195,504.223667083987,-44.7472055198042,488.342013573617,-14.9048495584071,1777.51154346579,-457.195229443493
809.536857886158,125.129673913672,372.986646488452,-31.3371111759174,1163.50343429643,-67.5066840332283,238.796132599508,-44.7729357160652,1204.99642809469,-38.1448380632035,1352.00003507926,-74.6399145054806,306.903502928251,-38.0011774476292,2279.13547433039,-469.513431086432,1076.16222357516,-205.959991012435,683.025676360505,-3.99809031781975,1603.20994397836,-333.749426937415,608.241645828823,-109.758792476791,510.458964358492,-51.6487275548153,483.534990868537,-13.3911716488394,1750.66407714327,-447.960660825478
812.671458987351,117.787929381094,376.922837942747,-30.0465860956848,1134.52693995569,-44.4956425428742,243.888589265149,-42.5078821288565,1199.66522188973,-34.2562291867185,1361.72324651966,-77.5541423177637,304.535798365205,-37.0907366569703,2251.45562790387,-454.26949538131,1061.57998482322,-201.981718496857,682.481137987169,-4.68470800083816,1599.80547922606,-332.261353524135,608.147409760299,-111.56078395487,502.238421723302,-45.6286445621424,484.098147544019,-13.8241376043785,1747.90590381589,-448.742385665988
807.659845927682,120.594030940794,369.603870081383,-21.206744210799,1146.54070900071,-52.9310392983197,241.460631114449,-44.3631787225385,1227.72382955007,-40.2882190885786,1368.34538882867,-81.1234797666447,312.05091921741,-40.101420397678,2276.87712986256,-470.477842869001,1065.15968689509,-202.10964687257,696.254203569451,-3.55310393393248,1610.55798941782,-336.55830033285,612.607303856202,-110.865152352203,515.511103177224,-48.362180106695,489.142322352825,-14.5339046719356,1768.24515535718,-451.805609714996
816.897096709772,118.652819626162,369.520193248314,-30.3232448623207,1148.92253499895,-62.1382351697733,240.272602353553,-44.8384082972791,1204.54919583152,-36.414643508239,1358.79070792646,-79.89265395435,307.513366902403,-37.9556481143505,2261.70731014791,-456.968594120898,1070.92272430909,-204.774782311458,676.065342453303,3.6148087503071,1597.50799136321,-328.320064157884,607.465951681539,-110.47720378512,506.592379952663,-44.4679003264998,485.82365052439,-14.2760699913474,1756.27001469435,-441.08381839617
806.994673684999,119.939239714261,366.409024153592,-23.3856379345827,1144.83633467285,-54.7944368414815,232.42239950926,-38.9394732784936,1208.60243479626,-37.5127915042222,1350.49695784657,-75.929713430319,307.195934678458,-38.4611196912582,2253.86091349325,-460.275036388771,1066.26262489484,-208.552691931447,681.508021742084,2.69430340850445,1603.61249105536,-334.998808760252,611.258039668252,-110.733046497536,514.849941001574,-50.3485308395789,487.051127165427,-14.2322641673569,1758.58246476434,-444.273972732936
823.777029972902,109.618434925739,382.135534566246,-31.5864378771376,1137.57098525853,-55.7085270851632,253.075691193151,-49.9147691838881,1242.37545058955,-44.0610812642964,1374.21752205373,-82.460488653686,312.589922311201,-39.358421651023,2258.99670486592,-458.781031044287,1074.35992490345,-200.68316915481,697.462484181482,-6.10048240072813,1617.57730042181,-335.846533843198,611.830238169885,-110.981113024947,509.223520514102,-46.2771726915026,488.102539875358,-14.2553521570586,1783.343243206,-461.705697223554
785.477120521537,132.732253674492,364.758366698678,-21.5146474542505,1137.18576642401,-53.6548029811096,231.555162828911,-36.8602757883926,1210.21526304626,-35.0872164101315,1360.25364045916,-75.6732905219604,309.880778019654,-39.4434762696777,2265.07219825023,-464.559694023458,1078.22471644031,-208.428396324781,683.522652144191,-0.0902521282426078,1600.75772444623,-336.303685680369,614.506335837315,-112.44896310582,504.593538531733,-43.1909190165317,486.801958002397,-13.9259477939665,1771.67619528964,-457.564662720188
830.177139799731,111.714397696558,375.166663617721,-25.7035924102473,1150.21978243156,-61.8128734102563,247.119895233298,-46.0154066679708,1225.35191938869,-38.7212760139391,1381.74717626555,-88.4354993880832,310.733652604334,-39.0113197890608,2275.25939352971,-465.787983166025,1065.03038982216,-200.166102817759,709.150300911771,-12.5079469718466,1631.15018271463,-343.144684462968,616.191747928324,-111.943031315171,514.667582716917,-46.307803957774,490.299701478235,-14.7905245113451,1780.82817050181,-460.019294020615
822.919773090283,116.142950054796,371.667955663333,-30.778254885706,1139.75446733278,-48.2037860005957,242.121113188114,-43.4240644809591,1210.37824108883,-38.9527375138568,1368.14491120506,-84.9865121931974,309.533629504985,-39.8297811288859,2261.60088556314,-464.173379348368,1077.50287247071,-208.474747002727,698.679613702189,-7.78783908276121,1602.69084535671,-335.798629495304,613.697118086267,-112.124576208824,512.498925882781,-47.0291041473712,486.470782510637,-14.0309134577421,1757.65795776497,-451.413641279587
817.242706996008,117.47710032809,360.791358163941,-26.413644021258,1139.77768229468,-47.060529727724,239.730053798743,-43.3275900530939,1211.72133575812,-36.9808721235695,1354.41812425044,-73.3436616481803,308.886827232099,-38.7078552490968,2282.43918377488,-470.621627001092,1051.55113437963,-195.799501380809,689.139065724632,0.196403804227736,1618.76915557909,-347.723058413577,612.279950753396,-112.520320621187,502.314953007022,-39.4156078571367,487.388423397861,-14.3570787904764,1761.82210233562,-448.388988980808
824.033016058708,115.911706888729,371.173605941257,-25.5182955867983,1140.88804370365,-48.7040469454547,240.815407801397,-40.7130438524074,1232.92772153888,-38.7245493379659,1379.78277440353,-86.2457448440494,309.773162184877,-38.2427604853399,2279.18615377891,-464.655304805353,1074.73274753476,-201.854825153512,694.75106435578,-0.590465391626027,1620.92238518029,-339.625509439313,612.444927206705,-111.201658170573,506.119650894087,-46.4322822475415,484.579179694286,-13.1479633939057,1762.69724704826,-446.983095573221
804.830453653812,116.865280408899,362.311753599463,-28.1808285803763,1149.31257964834,-63.1660891079128,243.742503624312,-41.2437094112774,1199.23434529653,-37.0151925374461,1363.30171951244,-81.6281727524918,304.0668401684,-38.2660871112311,2289.53698964573,-487.246948799043,1060.30645016738,-201.601772888672,681.013192326451,-7.12602422524099,1587.45309710879,-324.36457116093,606.778643895385,-109.85764597942,502.346781176502,-44.9041628195425,482.488871223533,-13.3720438393164,1751.11983366117,-439.490712477351
804.109236958708,119.794210192302,378.081868559215,-35.3836856486058,1120.55574728665,-40.0142079476308,241.790171709717,-39.9635495361844,1212.99013692762,-36.7696280688783,1355.79316620467,-82.1257727412734,307.103274201722,-38.1947946319858,2263.61005165453,-467.966136408519,1047.90324858308,-187.977748736754,680.136570298106,0.726437444858053,1604.7845919352,-335.556094241797,611.047144320946,-112.79294419776,507.667964482613,-48.7771895517035,485.092043315728,-13.65910215386,1783.19106152886,-464.138552030211
805.704533885744,116.647751875581,370.156361219654,-29.7097536570661,1132.18149260548,-49.0945862960598,243.592152511797,-41.5134379147217,1187.66687733428,-33.5599804873504,1337.54119593076,-66.7243192118372,303.836008204629,-37.2916950305064,2257.23058194107,-464.951681460429,1052.65014768461,-197.990224891315,668.349045631268,4.73851893933671,1581.24031318828,-330.320126276887,604.618380669909,-109.250104970885,502.442158345482,-47.7501961147697,480.391705303363,-13.1579551827147,1757.55428143269,-448.676835507069
800.63124299081,124.100068028643,372.923240181333,-34.7021305608523,1121.74440440092,-52.5147569112701,237.293358290969,-41.4148585588827,1192.15119756427,-35.2419801517112,1347.29165233512,-72.0210844177762,301.418640267746,-37.4981312115978,2254.80316313529,-463.306840363198,1055.05655056425,-197.65056387177,673.5125138761,1.54169689846507,1585.58824716586,-330.318243601174,607.173062839292,-111.740393403642,500.06267974529,-43.5178680516683,480.505249744655,-13.6220362545298,1769.86966314221,-460.229451977294
813.701543878364,116.098090379399,370.502526177122,-27.4301728670135,1141.47369782128,-52.5084890159101,240.619264541476,-42.7921294877767,1218.64278284855,-38.3329741680442,1367.47083703877,-84.5914616548932,307.590290196993,-39.2266128951306,2256.94834836343,-460.508698827593,1066.47447793255,-201.12991935676,673.693931042342,4.94411449918899,1590.51125083732,-324.306075563503,608.660681004782,-110.602476601878,506.936975823703,-47.3389686880956,484.062315638252,-13.802423103355,1780.47255019047,-457.624324716222
789.750155262382,129.099718361662,369.113466494073,-30.6356673708286,1122.50505061532,-47.9468322037764,235.025647486092,-42.7105634592291,1181.45786564369,-31.3348628841439,1329.60864755098,-65.0487702874243,302.786000239375,-37.1167018465107,2256.6181202537,-476.3130903187,1048.7364013275,-198.442258226875,669.499039377068,2.07921896650692,1583.00359927887,-327.200053161542,603.280558811342,-109.819399917452,493.183914396564,-43.0903143607593,480.045603419297,-13.5031117952823,1756.52795917172,-444.541047693789
801.488151564361,117.449354483909,364.243477581928,-26.6888411637503,1130.95209201855,-52.236077250755,239.847779790898,-41.4474004949371,1196.1618286531,-34.2712194020478,1361.40318313779,-84.9497573193596,304.32236996045,-37.8582486606007,2255.99555128883,-463.534845309289,1053.68719069184,-200.78750302589,663.845977322721,7.18512537888077,1581.52805433501,-325.838906703688,604.301113282878,-109.348590935589,499.93035416817,-48.0304451573825,481.71522725522,-13.1844192785824,1782.37750964081,-461.387722492684
810.152868310026,123.032196233403,372.878923859726,-29.5422311626281,1123.2838642357,-44.5111141080041,231.926105991238,-39.5960357898471,1217.35417188196,-38.3944913920052,1354.74678541807,-75.4805634755708,305.84377296978,-38.3942492669123,2265.32687656904,-472.217402320844,1060.35772018889,-202.604750040862,677.446285146376,-2.58309000930102,1590.76292423252,-328.864236207189,607.622496552721,-110.009754252802,491.578676041617,-39.7911884196663,481.920864248908,-13.35226642153,1750.6537092615,-447.720864678133
807.454673172598,115.973181846233,364.637979871661,-30.7308215233156,1121.09381780613,-48.3506066735332,226.096362289433,-32.948449260765,1192.48822412669,-35.2237065238096,1338.02178640159,-68.3969169790986,303.411392153786,-37.0708600409842,2240.4894420918,-464.210503287246,1050.95941747158,-194.461236386526,668.29372646612,2.94107686655464,1576.41783147276,-326.296988234711,604.982320742278,-109.446869921284,499.548237332739,-42.8193496994061,481.171403533312,-13.0978995950595,1754.3580846232,-448.350128933331
802.260632487065,124.711665413641,374.511240555495,-32.8059610795673,1124.98564733644,-49.6287367964098,228.13316661918,-31.2298744864395,1210.55579950638,-37.0879868466572,1340.03123454421,-73.25008304837,304.709482235949,-37.6425432874815,2254.66444607062,-463.746072186186,1060.99422852995,-200.987444724668,679.640520773777,4.00000986810247,1611.47152334127,-344.521335711952,609.270796952342,-110.399308409035,503.825820435896,-44.2709086560469,486.651974988394,-14.2283269241662,1781.24719981903,-459.6385330836
815.513368320091,114.067663928412,371.85765018077,-33.1192436452287,1136.67885271747,-50.0658637482993,237.496378346406,-43.3578158727631,1192.88552849437,-33.6541559691475,1348.55970717768,-78.4551849240604,304.733298679812,-37.3934786389442,2263.66142047245,-468.565679855134,1054.02279942176,-195.082014634493,676.534982466733,-4.68730484698822,1568.5843812018,-316.796506351667,607.904728859484,-110.816021051137,493.032730879213,-37.8064212713986,482.698209367811,-13.6052250807812,1778.66257679734,-464.18885281815
807.804632860177,119.173249148593,365.282841198315,-27.2766093979016,1136.58198281732,-52.834458552113,237.922321687908,-41.4035846036092,1198.21333609193,-35.6189811906407,1346.7352067089,-75.6736383834895,300.815942220198,-35.1423546740248,2252.18844405249,-460.938814968044,1061.66493230073,-202.935546257263,682.618489722621,-3.30026807801359,1582.54899499464,-323.771877859805,608.4375788929,-111.872612577951,503.945432061458,-51.4398455292261,484.254739386875,-13.9865811752683,1783.322866288,-451.980359424049
818.636135528789,119.939666426975,369.45300707487,-28.7378186773397,1146.00691168161,-53.9914364827437,234.086880600756,-36.5850780894091,1219.18698826716,-36.3085057380865,1362.16621584095,-85.4231684242518,308.354294435159,-38.7810201078584,2278.06470375127,-480.747873145333,1064.99063054933,-206.749431002475,679.673447577788,2.12053265107422,1584.26375305249,-322.453064892776,609.35089546434,-111.572811401351,501.048812530116,-42.55098804385,482.819147093863,-13.5798813475469,1781.69020981553,-464.846650276861
805.51961814631,119.106001672252,362.43898978698,-25.3865184700225,1128.32826348917,-49.4896891839136,233.814835763895,-41.647971332424,1189.65578672237,-31.620465517929,1338.61946402277,-76.6756743639215,302.399658510623,-38.1361371016853,2232.55305196284,-454.724941132933,1058.58520437365,-204.372957987682,664.463978946728,4.92387878551494,1580.40532702529,-328.661451302011,606.167241559629,-110.291923166099,497.301152981896,-40.3108320309563,480.88053807745,-13.2543268486442,1774.65873465705,-454.691411251624
790.720540225604,132.012844364939,358.77968867757,-22.6492631767066,1130.22227580908,-46.4685015283008,235.779260905677,-40.2308475643014,1203.94850051841,-34.8360285317568,1342.49158913491,-68.3507818170841,304.546706624137,-37.7421753090891,2234.81537872314,-449.805428506322,1060.52300316284,-199.328607264811,679.025701911377,-1.09813981608167,1599.5975411,-336.261114058236,609.188893359471,-112.496603229616,501.824508659495,-44.1284963161641,484.279863760587,-13.6056379465628,1780.96869850059,-460.394308202034
807.244195388176,113.204626926348,370.649402686562,-32.7187388744365,1132.48752253412,-50.4551095905811,244.491814426431,-42.9729281928351,1178.07559663524,-29.3133730290859,1333.30804824048,-69.4078733521027,301.307884168678,-37.0287673571045,2230.10429924795,-454.339070626509,1055.06721804271,-200.039768575764,670.069001757643,4.03313956094409,1575.55923723215,-323.135769088689,603.931584029069,-110.349333627546,492.770664812702,-43.9136998212148,478.676395826225,-12.8972227959929,1764.22103317316,-454.274147359843
803.577833155752,117.376932747661,348.044248032082,-19.3253687698895,1115.49075344087,-41.3942510260429,241.5555651691,-44.0533113433874,1182.96502139091,-32.002273612468,1355.82485426901,-87.5239732572915,300.266735020686,-36.4740819464954,2243.96131881583,-458.313709711267,1044.95926821912,-196.391230946144,668.323191966508,-3.11268956981048,1571.52414468322,-317.055133619435,601.427575137989,-108.46047267688,479.127552934888,-36.2975053183226,478.672998093756,-12.7164230813861,1771.83504832957,-454.092872355557
792.513622733357,128.588959332257,361.16526733534,-22.6204589138144,1141.72303447663,-58.7781365495533,242.161694958474,-43.2193817299763,1203.3366829165,-31.0024916619612,1357.51046905318,-83.8185595193539,302.17093644345,-36.9203176740471,2259.16389338751,-468.656561017823,1049.79747418155,-194.360197685627,671.052026857622,3.14910840115538,1577.45145653101,-323.357630526308,600.21846867046,-108.481003192435,493.380551710278,-49.3442678693718,476.83842763353,-12.8715762399068,1763.47797177146,-455.800067683929
798.645782175035,126.460503849903,364.029572430574,-27.6378492624207,1125.42135565324,-50.8663441679071,237.115392626973,-42.5836575881953,1164.96743345803,-26.1406639753294,1333.02840481177,-70.8649742161095,296.927849511875,-34.6473945435612,2232.26761190733,-455.296154307741,1053.94023653824,-203.683041886659,659.138934045554,8.01388357905998,1552.84423066121,-321.526672001966,596.773639979143,-107.985040526666,489.701616455814,-41.1693148042053,473.289212633984,-11.5083464026944,1750.10493514436,-443.295503524887
799.86652673026,130.16825209415,356.697421810157,-24.8119863791251,1119.51259775309,-49.7435574149778,240.584313148767,-44.2222364739015,1179.48923153819,-28.0287584462142,1343.53796046703,-73.9644807329953,299.804765208444,-36.3271638213713,2235.68339898491,-457.52337060108,1038.23089595637,-191.20999917036,670.690679271364,4.68122854328611,1558.29505366529,-318.000889119897,597.942396735246,-106.721782916359,495.858128760937,-46.1818509890798,477.247060312068,-12.5434503408288,1777.23683481415,-458.991080059097
807.329699211661,116.837109891522,353.781347100737,-24.8126566727786,1119.72457614314,-48.1817533025847,236.76436232257,-38.5771849845487,1165.84875009015,-29.1152089099959,1325.603596672,-61.3216649136977,294.900704099996,-33.5482548708194,2224.07964078482,-447.401304931972,1026.70685372583,-188.258769325095,668.160897823715,1.77369936255365,1539.11222449841,-311.786292346598,597.949868753947,-107.669912800163,487.804475985098,-42.0214559329477,473.771348168052,-11.7953976176941,1740.75478408429,-444.318703809943
793.603107058483,129.420662069624,352.953200287918,-18.08885616929,1139.32194157219,-61.208228292576,230.463890904036,-36.8050690786386,1172.59445343606,-30.2061340527119,1331.2568856337,-73.8010281478336,295.623700336524,-34.9424346026873,2225.47548477224,-454.471253203912,1041.95042329818,-193.647709070204,659.595387610155,8.46272869527788,1568.55813151051,-322.663736898669,600.055241288083,-107.107944855922,484.170716052638,-36.4664385908776,475.261054516918,-11.9597741759303,1726.42884431657,-439.186849005822
797.705560869606,123.353867143224,359.626486215136,-24.3574273918595,1139.36199604546,-55.9084026743886,233.675098763905,-36.3328570774441,1198.9114543951,-31.3093233221591,1362.7406418844,-75.5439371326696,302.333932808998,-36.55715457495,2248.65224037367,-450.643590048918,1054.32953587996,-200.392744759688,684.206836579095,-6.35269494813175,1573.30767518164,-318.868480701082,614.023266101575,-111.896473598755,491.758220070837,-41.3024678773482,482.780224527283,-12.5239495321937,1714.4337764566,-445.746174050607
786.180884630371,135.621479686734,354.24588119281,-23.6702030499795,1151.96822800206,-52.9826187358598,234.455359831506,-36.9936425222886,1168.88960641286,-27.0469829134841,1378.27932610287,-85.3104612888433,299.420787198642,-33.693260807572,2257.23969828891,-465.908508565409,1047.26123315572,-191.891043840268,671.179917620522,0.632309951818094,1552.33638886952,-314.556561072424,616.496643207864,-110.90913102278,483.657853083091,-39.9535177151419,482.735491251649,-10.8943317023946,1707.07248639118,-432.618278117529
800.273502755488,124.135374596668,362.60132324581,-26.7418199609747,1156.52029804116,-53.7500027462856,242.303316187592,-41.78177769437,1183.77129491158,-29.4559424457631,1362.69378371775,-75.1821705499104,301.969303304363,-35.1029419986299,2252.40547496779,-456.263287543631,1056.75646913226,-201.939632383175,679.850847523377,4.54025857006925,1577.14434474712,-320.426834814257,616.35494307331,-112.302383738752,489.330459263388,-39.7704410867308,484.806048709458,-12.2023997221484,1767.47123380025,-460.128503393873
799.565463243597,134.850553938118,369.076637939675,-26.1069230433664,1145.51367278735,-56.4113356158561,238.262034886711,-38.7356614362429,1173.21773342525,-27.9276717654076,1342.1176812868,-65.4430492017221,299.530684260786,-34.5516414313752,2238.83563989581,-452.034802112422,1053.42273157495,-195.604214655117,670.899811700772,6.64868360319997,1581.42048868785,-328.930700641677,610.77012906484,-110.135885295189,493.109472330366,-42.3935690935791,483.002027275186,-11.9539806750788,1764.48888790268,-454.007192560918
796.769327472092,126.199123390227,366.563839905987,-30.3044624494961,1140.99727931676,-53.6419440399216,237.446479711294,-37.9970367844347,1168.71464612843,-26.5708027468417,1350.46343473248,-72.7133628556365,297.551966823085,-34.3994508142304,2248.74439240407,-463.908268459182,1040.78063574564,-195.751361364733,666.175644873533,11.1790864822843,1563.88111422482,-314.780840125024,610.911823836508,-111.593868375389,477.502257056099,-33.2988024567901,481.766805676215,-12.0935828288865,1778.33569048329,-459.565558699441
796.84968279253,134.272257367436,368.501443340436,-24.9551373413452,1141.70914123186,-49.4709138244872,238.477970752372,-39.4403804703046,1198.25712153013,-32.0893478488711,1362.03333341248,-78.3380163095329,303.706337516916,-36.0268267305192,2265.46001732377,-464.798633044252,1046.98206434526,-196.72387829046,671.067336836218,9.69491965099162,1592.25779584488,-332.445519666068,611.444923954087,-112.145719196566,490.028229221232,-39.4680161516463,483.983277890947,-12.6242112020414,1777.21536216558,-451.881121891647
786.78680159215,127.374276381835,350.336336184509,-17.2266467859452,1149.37717515615,-57.3669810607981,239.669735266535,-42.3366325345891,1161.2124080162,-22.1571314286985,1343.156420785,-74.3880379570197,295.193271325736,-32.9001549819417,2232.36131069717,-447.599604564768,1050.19125531819,-205.562325633013,671.758117363955,8.05528806053704,1558.11165023306,-311.497568980139,606.408277223072,-109.79425333309,477.121884647801,-37.5166853331729,478.884352535797,-11.8652377420892,1744.21807208335,-440.436827972243
792.079564002246,129.903274602656,358.965851206558,-22.9180359065105,1133.85413362087,-47.6477102169064,241.651725212825,-43.4983849940488,1180.05039319517,-27.4432154468129,1358.07911131609,-72.2799688687184,299.881305132851,-35.4610548263712,2232.92279987196,-451.743288408951,1048.17844389979,-201.031062754672,683.35955860141,4.44010358007483,1562.77991347852,-319.809171744515,605.407728539804,-109.004618854609,482.944732834074,-38.2927760436184,480.763971294801,-11.7736686445235,1760.95622423668,-447.941426236205
803.936192765825,124.831781530194,370.606652052953,-32.5917653897216,1136.67704722641,-47.9007828089159,236.982244560731,-38.5254638574423,1169.89755199259,-27.1082345633007,1349.67961644132,-69.1588496102686,299.718303663044,-34.4803025993532,2260.5473705577,-470.706963008367,1061.38141186441,-205.174685806729,676.194005158987,-0.504381196001326,1564.06681002821,-317.642506067118,605.355491231988,-109.81631243505,483.961325590449,-36.6273920673081,477.822924013293,-11.2970994750534,1763.27540329236,-453.345308226009
781.529088444352,132.95540901434,368.886176393718,-30.9675756970411,1113.15028285713,-37.5522487189789,237.71472917242,-37.6751995577612,1171.23763819216,-28.2361767608452,1355.81121675865,-76.5763781777501,298.120552847934,-34.2552426905643,2243.4399861858,-461.127580379994,1033.3137976204,-189.473540483293,663.356299036632,11.9100757698169,1561.87546948602,-316.988526488813,603.142218219173,-107.895036605462,472.796286989671,-31.6942221022561,478.11611373967,-11.6257283495081,1762.16269151837,-449.253966847603
799.333317690047,126.714215944451,369.829728162926,-27.1703613150451,1142.56321996362,-57.1552010253145,244.968204691568,-41.4418586772961,1193.97367112897,-28.6650948183493,1345.0313240503,-68.2317637850851,301.557146743572,-35.2567293326011,2255.88539015764,-456.088822235963,1043.12908285911,-194.451315170464,700.726400018004,-4.68710907467238,1580.3866686222,-318.744324105479,608.465608733093,-109.770805178067,486.01799731605,-35.4716058944575,481.795498608345,-11.755851246962,1779.56200417949,-451.470442233838
798.446458570318,128.391633821721,374.378213654081,-34.0618996750671,1152.17529172672,-58.1638157267432,239.948560553591,-38.117243336126,1172.82198300988,-26.2456224763094,1347.06489002925,-70.0410826787551,298.160535280754,-34.5999999200144,2255.54539606318,-450.774834118924,1056.53959971323,-202.917079877261,680.076920665692,6.00414824285239,1559.58305455064,-317.952551432383,602.819101037368,-107.355235894696,484.568298208307,-36.3629738479531,477.84349031601,-11.5864940856466,1759.67034030613,-443.254770915968
795.374823025012,122.581855010779,361.829908585299,-26.5569252024195,1143.61587804786,-55.6009399609331,232.641077880431,-35.3348404680343,1182.47372584553,-28.9220225337994,1347.10443083563,-76.7982146275307,300.339852512363,-34.1739519173796,2227.62140336129,-453.598166752698,1047.27742575284,-199.880025943431,677.187127404291,4.56808441460013,1565.34684170663,-316.741752132715,606.214608449287,-110.748249078481,487.65585322179,-38.7609832923064,479.502831358282,-11.6894811611596,1775.0844542203,-455.105761559334
808.769582088082,129.667253069997,370.714538406956,-27.5908413375547,1140.64977155715,-47.5129106960414,241.660280491542,-42.3562182424646,1214.21558009149,-34.8582301484907,1366.59741983336,-77.7155184240255,304.348447160112,-36.4572141710455,2266.53688115535,-467.511145459434,1047.61895932361,-190.634870104533,689.000714874164,2.83767636419935,1589.91734781545,-318.652546290082,612.068991346359,-111.474853260428,497.213418321042,-42.6790988064034,484.298465958111,-12.0191244512086,1796.59503434672,-456.230596675776
799.17873788885,123.209478710097,359.823423910768,-25.7297018644909,1151.86737644851,-55.0196985513124,250.596694034436,-43.1586679832814,1187.60811597376,-28.3967157857414,1345.55617770919,-73.0105240478805,303.817747571865,-35.4857344080161,2251.27336427048,-458.487516809505,1048.26449976633,-193.237083657318,684.002281900837,1.67408424607643,1578.05251027306,-315.741289902575,608.47277543318,-110.010223368815,484.668515315078,-33.1259383052939,480.685136206706,-11.6349962579024,1768.93008865955,-444.325580910058
796.532939936404,124.883064557628,369.50590425153,-31.5710458869649,1156.97171150241,-53.8605517054466,248.52089213679,-46.1636678889044,1204.76962709927,-34.6612267574627,1365.76735090811,-80.0356744318528,305.36665017307,-36.6873780658785,2261.17421590978,-464.54718013706,1064.44026904477,-200.397071113739,687.78310463699,-0.4974686336748,1587.99112632926,-326.605718284092,606.70583015981,-107.875988256219,500.575851796947,-43.0781290241748,483.050782781012,-12.1934799644628,1806.81778386992,-470.158896004168
808.125952288345,124.204122025986,373.003851899812,-28.4292562700587,1160.99800013519,-59.2458476763444,252.062296945477,-44.7630777526567,1237.03362442357,-37.0493758016364,1361.66575559656,-71.1843117411839,309.36334976035,-37.2661069344378,2295.22314629569,-477.329900098068,1072.69390702574,-204.013908872675,704.945152511288,-7.19690798206102,1607.7159735005,-333.012428118259,615.819000178222,-111.385971340214,498.991057313912,-40.1505735417766,490.277445440389,-13.8468031712202,1813.18177911805,-471.090376872845
803.498083191771,125.523287725984,365.204684401822,-24.6236160547641,1159.6531835125,-61.1564288135886,251.994150006666,-41.5471532124769,1213.69414213704,-38.2315362967881,1376.10095265587,-86.5773019941815,307.158623059914,-36.3747806655829,2268.31013572212,-465.135313984016,1056.62508890543,-193.87658164479,690.540757649252,2.94996705646689,1598.28133175979,-327.866320132706,613.093644062357,-111.468678022564,501.961877844028,-41.1106198888183,486.432379608823,-12.7275991287233,1783.96019392024,-454.239602861737
812.123576146694,120.319197133424,393.315961454027,-35.7623350621527,1155.75952372683,-52.715674921359,244.824364236748,-43.0902423815009,1231.22743459709,-40.6726395710815,1370.84351255651,-78.061401610884,310.265468455275,-37.8706722954163,2279.20242776983,-469.570905530272,1073.3777184028,-203.688903791724,702.271654961064,-5.04973366356932,1613.98929058225,-338.432818393201,618.37647328206,-113.191770631337,498.156409411539,-37.4448902277475,489.219269819659,-13.2100909561313,1785.11711895557,-450.112417363163
823.649439766743,118.687328062387,370.458085596595,-22.9602610677358,1161.59331593966,-52.0693524578867,244.528617816298,-44.2304246854566,1266.42653176644,-45.497179448136,1391.07406898468,-85.9608261540504,315.502624478175,-38.8178492976093,2288.90989159467,-465.806142275302,1081.79610031132,-208.134733845543,702.932662385933,2.94546374787644,1630.96808822375,-343.628435544449,620.162979633731,-112.273081736754,511.640848923638,-48.2856360739315,491.246290542573,-13.6093329860841,1813.02344236777,-474.173577499605
804.665775554599,126.734343505028,384.758731311379,-36.2005863529717,1160.53779212716,-48.2091886866394,252.0863603986,-46.2735743449268,1237.28147066483,-40.8142287628627,1375.39712002405,-73.7278649788542,315.638128493788,-40.8813061387231,2286.81895828899,-461.306034207768,1082.56591443709,-204.749031150867,706.348120495132,-15.1325968807583,1634.99715960771,-342.295289036156,622.622849404542,-113.333784172524,515.621903939811,-55.3475930847008,491.807014035076,-13.4019345573356,1812.11378460016,-471.882048196845
818.236851155466,123.705073688526,380.150518932768,-32.5687636605989,1155.63118818522,-51.5618102032978,250.30475541617,-43.5169667917948,1264.2128538213,-47.9976439969459,1390.26108229264,-86.9487693595439,316.471542350502,-39.4944880457892,2302.21667800159,-476.750194276573,1095.97058023035,-212.306309827107,713.368998397942,-7.78254614098613,1648.02849542812,-346.398556551237,627.354435939074,-114.581012924204,525.629208115731,-51.7906606640018,498.61282925616,-14.7550835883814,1818.04459301624,-471.449041721915
823.841832369528,118.450292435519,386.681670022877,-36.6368838031784,1168.6517980894,-58.5353342957924,255.177410822692,-48.7941269555293,1237.73566170677,-42.3454371186088,1380.42964986482,-73.7471397574064,318.020123945095,-41.3994530187577,2298.26589726361,-470.61634632917,1094.18692996835,-208.823718182249,706.784973259129,-2.55299342403749,1626.02040949572,-334.670707653609,628.008409624673,-116.023658259067,524.533809599719,-44.897397881224,495.783702935943,-14.3718627713928,1819.52661568909,-470.672598523535
821.031926195758,123.93483049841,377.069810151978,-28.2255493263996,1164.7084966178,-59.2018901482204,245.671950928923,-37.923398807805,1250.79959562612,-45.6250730303756,1381.21677174583,-74.6596032114576,320.180540553878,-41.4031492437064,2301.26676680725,-476.947267196766,1085.71128150849,-202.722884414779,709.353453576678,-8.12563412514741,1640.94967142381,-339.740119321084,631.787136204302,-117.166034120495,523.924891999308,-52.4835796199678,497.94940124999,-14.5476261788069,1812.28828358655,-461.925996070188
819.861038205661,125.448844146488,397.941483875474,-38.5746167776488,1175.21713706177,-50.9495046519522,246.230776083452,-40.1746185802083,1274.80297745085,-51.8299841471119,1401.62968060413,-86.5023999451679,323.737548084176,-42.4707237661526,2316.56404364094,-478.165348367246,1103.46644542248,-212.492402489202,720.677165848413,-5.63664052525967,1638.51637403376,-340.206902348198,631.223034513998,-116.858511643826,522.49808238343,-52.4840250602196,497.810628601426,-14.1893610776746,1805.12685429054,-465.754593114465
827.302898274673,118.836970070053,380.292862715628,-29.0465933860145,1149.00662032785,-44.7242121260402,251.353707693178,-44.3834689482765,1244.21529828744,-44.1957889773777,1398.98953228337,-90.1202203541274,322.836176056138,-43.5225009896279,2297.9815316382,-471.73712702271,1101.7461993319,-211.851207527572,711.374554324715,-12.4356966261035,1640.16465154274,-342.343536996341,627.789058846233,-114.301430429348,523.213133651326,-51.0428173952926,497.927039805763,-14.5336187787654,1797.08436264964,-457.427121860112
817.864646029907,123.851249646821,393.006768508824,-34.2329069174157,1177.94698471046,-56.4160185782777,247.638738898962,-41.5783918461349,1270.20087729099,-51.4755558197934,1403.13108466776,-87.3603727187322,323.788359305456,-41.8074637926522,2335.61120331036,-484.071173100111,1108.97696624419,-213.987308439604,707.760526536896,-4.350225273344,1661.80069221047,-355.988047259737,629.948579896316,-115.716666336772,525.139238784228,-48.6199322476131,502.260525534712,-15.133841522874,1819.23791032487,-474.843619824223
816.841289743485,124.849230522379,388.900012278336,-37.214552000248,1171.51615263328,-57.5157916245184,254.707861125495,-46.623447041896,1232.16239939311,-43.8131909769904,1400.65706909085,-92.497737594924,317.800987283139,-41.4006699154784,2294.39286645382,-467.448596477196,1082.79608132168,-207.119647819538,706.882716083342,-3.76267601670088,1615.03536154251,-337.749904605206,619.710546046272,-113.344222959537,522.712206937125,-46.6177972674896,495.566155370649,-14.2296266868119,1784.039782821,-460.911179021344
