380.179311574423,68.443964062079,499.875354365261,-3.48240369149231,758.566214906102,12.0918841803547,1441.71252581883,-1.89971043480753,944.309659288313,37.6629382365762,1344.49650672214,39.3756290300875,2237.19591249689,-244.782770978559,1651.17716203042,-125.720556704888,1071.72483740135,-108.865711875174,1333.02750158617,575.27170914725,256.624565414793,-36.7463867158831,1467.08508598977,-98.4854723777876,290.312154214724,33.5876911224508,848.230212221818,-44.9130893307635,693.496561484266,8.23109499217806
372.132334338774,67.9220339068317,488.381630693467,-0.432734793527753,741.366981715869,15.3901969297172,1411.53577945817,-1.57478245599481,914.54772870473,40.5289320574033,1313.13226377102,40.4255118992713,2183.03504617626,-236.245643622668,1610.6989233928,-118.996185833882,1033.20479103038,-101.40949862552,1233.01815241979,559.766381408952,242.451606649821,-33.6353431835803,1381.09426842194,-84.2021188005555,275.939643751295,34.5747001893953,795.287814096949,-35.5037801405495,663.925869217601,12.4487475731272
372.105689662669,68.5489693817666,484.976178104629,0.278066967623978,741.845999002794,15.0886399836785,1406.62319127246,-0.922073924464954,918.89576330222,39.5095537888778,1309.28898791231,45.5223619183129,2192.02945135274,-237.680392395379,1611.47906448312,-118.828457220653,1035.20403138489,-99.7905153638555,1257.7748620858,566.627581586896,246.031747274771,-34.278766444366,1408.6710277245,-88.205603193075,279.421386487644,34.6251780906048,812.084576323108,-38.8429487453222,674.253659313012,11.5645817197839
377.780631860693,68.4116091313896,492.469916491229,-0.390264219682118,752.228267187013,13.7694330400722,1428.38577963684,-2.88723718504832,932.448093133547,38.8454043873911,1331.80681032509,41.6171903543171,2215.76799111257,-243.158724282293,1631.32684848581,-122.640407057001,1054.21940829921,-103.413100855727,1305.71115559244,566.492518048088,251.567772998873,-35.2561477460743,1441.96902244079,-94.4053566010495,284.968542606086,34.1060593727739,831.186921693651,-41.5436916874006,684.18647267576,10.5648127821137
382.149502850764,68.1412704240729,499.431131784715,-0.673708283551355,768.84068098265,8.187969325637,1454.56541240168,-5.95410277415569,945.509855228987,36.864360329322,1354.82035334649,36.8513407359168,2243.41921695167,-249.264987419605,1655.50634627876,-127.231041824814,1073.96506699106,-107.190469761637,1333.33027196877,576.920028611379,256.509583066432,-36.3887698842648,1470.48905500396,-98.2732511742812,290.775599207113,33.5789551509732,847.564930967101,-44.3603639003947,691.144664122211,8.56931906380662
373.145516525053,68.4804114011097,486.979645200049,0.643480794408234,746.350957057593,15.0255989021337,1411.5310516369,1.02837515223049,918.639499609383,39.9564605410385,1313.22069220286,41.6838155652777,2192.48965435527,-240.080503455245,1612.33347129428,-118.477441548354,1034.864635745,-100.041530062394,1240.85442075825,561.551318047901,244.054624588996,-34.1177794058048,1392.99622159164,-86.2546894984532,277.710196440454,34.3296957219863,802.485380870471,-37.3605091018107,668.164475164842,12.0816028557255
373.508555154477,66.4588128951557,484.48308766093,0.812563133687134,742.567117311498,14.9546231849137,1408.68725661482,-0.188040603323796,924.403958510865,39.1386053319348,1306.44056280982,41.9616491690139,2198.04510349861,-237.847628033195,1614.1899664556,-120.068112336736,1037.58714527939,-102.120672550997,1266.53240461138,566.847435260869,247.27292074109,-34.3084394775588,1412.73990031407,-89.453972240723,280.345674434677,34.3477704134113,815.251593435251,-39.9890218307466,679.328781892763,10.0009714421207
378.390469063677,66.5107453961099,488.839686326426,0.154536493979544,748.221615633133,13.6069053508579,1422.34948493735,-3.27799473418141,937.968397547037,38.4503304008168,1325.03154819689,37.9494309699053,2213.41718951491,-242.566718069836,1630.98821051545,-124.038790440391,1052.99873207717,-104.228119037717,1303.42485333282,569.765314471317,252.574571435084,-35.7714248556653,1437.32661662989,-94.8233761053415,284.803735530374,33.8530493097794,829.28531204292,-41.832004436733,688.514376973006,9.32890601098495
376.600512966448,67.0716165423833,491.71408776364,-1.03281650851893,749.878450711038,12.5855853520119,1424.26230093475,-4.58751898056199,930.343797980131,39.2177475175867,1314.65695601161,42.1332364115791,2203.92221790507,-241.481931398075,1624.16525457392,-121.247153562678,1040.11645389319,-101.272861738473,1256.41302617089,559.606684368612,244.702772973122,-34.174592787048,1390.34894689268,-88.0075775275224,278.446274538491,34.3777952781919,798.980760705453,-36.9552168951899,669.69408594042,11.3532118638189
370.779889239409,67.3427921323625,485.840840946388,-1.60559954756658,737.494011464397,14.9553712351898,1399.94939510402,1.36181800293423,923.87726909765,39.6068529024993,1302.59641057952,44.2592213307505,2188.83374851874,-237.710522245576,1617.33206595154,-120.034743518099,1034.46648480476,-100.41086963554,1259.96583765152,558.001742650931,244.734949165914,-34.1926784375361,1393.0175211571,-86.9514482902379,277.205995304322,34.3639462188425,805.40269573122,-38.52897360246,673.193227517262,11.7793069719251
372.701144004873,69.0096974218398,486.831262964538,-1.82561947433872,744.21031077597,13.7763116580902,1411.94280405763,-0.222213336847454,934.359202003472,38.3453083692665,1316.98990215878,41.8255675348198,2214.56812233525,-241.04154566361,1630.60141192828,-122.648172237756,1047.86407363637,-102.086239177148,1292.79694275063,569.486841439919,250.876781705574,-35.6225042021912,1424.59160773454,-91.681721179785,283.526436622192,33.760841807784,827.104934215013,-42.5173761062801,686.543859710852,9.29557501127816
378.615240278233,68.5190682191439,494.144859055278,-1.83557231949713,752.791779374528,13.1538236944298,1439.52395697239,-6.42369954494354,946.235599727099,36.381368758472,1336.73324879229,38.4981655344281,2234.93048732068,-247.71086415969,1648.16053262449,-125.873716095066,1065.62907456982,-107.519421050481,1293.77161181919,565.41415096324,249.139092657536,-35.2084737668186,1412.63496096775,-90.3274872838251,282.086669644831,33.4193756670773,809.717865106665,-38.8332595063057,674.935211167368,10.8681218182862
369.252574990021,66.7081776414772,483.023469150549,-1.42402481552613,738.375029795787,13.4591014031105,1393.48123920759,2.98876204882204,919.385617516182,39.4140785206888,1304.23770775785,42.9613666427338,2187.50236508026,-241.430171978941,1615.08067074108,-119.424874581473,1032.55934457228,-101.643708854115,1250.94631164768,560.467667291833,243.158942253279,-33.6860078454899,1385.60274265401,-85.4934354465648,276.194317756236,34.2146771584878,802.28715411853,-37.5252455523089,671.657618441027,11.9131454282816
373.137779876826,65.4868764516401,484.029296219721,1.82123905383716,742.832745962515,11.8922000793095,1410.39825387104,-2.21614941857016,927.618281953285,39.2837244239952,1318.15200809065,36.276364541014,2211.12764533117,-244.782784066402,1626.80344768444,-121.935104569685,1045.7306210816,-102.517528035231,1278.31315442727,566.695289905847,248.221989088697,-34.9225116276299,1417.01948208451,-91.5136173610209,281.171900730864,33.6139958419407,821.278715776409,-40.5413532364311,683.921668167671,9.88017420999575
378.191728561997,65.8434931612227,496.075911564328,-3.97188472768585,752.572501473178,10.7977284229981,1435.13998649131,-6.86936385507243,942.393255169881,36.4519773979289,1334.790219115,38.4038086826414,2231.4087972034,-248.365915329096,1649.50658376659,-126.322295909803,1063.79785206505,-106.317070922111,1317.35271970618,569.79593102567,253.145322098263,-35.8470419343426,1445.13449942157,-95.3778567614007,286.662956848274,33.5474891693965,842.10018016287,-45.5281782466617,694.977254037679,8.2615813981221
373.487191563757,67.3054594154379,485.355298665887,0.405160654438653,738.799892190333,16.4242736671838,1407.36940903526,-1.71689138843802,920.913460682151,39.912510474129,1310.44011426101,42.732227025093,2194.47437626078,-237.997173542769,1619.12227490801,-120.470196226468,1036.0417222235,-100.823086616478,1239.94838872742,558.878467522454,241.992678718393,-33.9269659071676,1374.60962572475,-84.2857129258882,274.607291569594,34.5382368750507,794.742316750416,-37.0080055535826,667.574952918255,11.9489285537069
373.540005558455,65.2494811895742,484.824300781601,-0.788701069165496,738.102449938001,13.7272940831282,1399.50749016464,-1.32194457353179,920.119239423302,40.102428706903,1306.26066106951,41.744012500435,2196.40663675889,-242.108043165655,1617.34999392406,-121.065368878902,1033.57885152278,-99.8230490759429,1252.99887208527,563.081434932087,244.510741890611,-33.9208244938761,1396.72637116982,-88.1242470624154,276.90993537938,34.6740824530059,810.888117987874,-39.2705681982138,678.023020182229,11.3937502947184
377.681883654108,66.7814190377821,489.059281260866,0.541652364682789,745.214696366892,14.4245542154699,1429.45339447516,-9.19576614543814,935.240923475289,38.223576161707,1327.30364047017,37.9419933183929,2222.80095875751,-245.123144053321,1639.16538848115,-125.348852970348,1054.84104808922,-104.254428016825,1303.66598878266,564.013839849665,250.935201507381,-35.7524346258448,1430.85622654553,-93.2996741859582,282.918284873073,34.1908090040243,831.052868488714,-42.6644240432439,690.280884681032,8.79422358461725
384.932883102827,64.6654048484318,497.978539571212,-2.99029045191043,759.722948470621,10.5231298401625,1447.80241086042,-7.36006972840294,945.581742447077,37.5831596545664,1342.22503477983,35.2488872041438,2238.72580227429,-249.015953582031,1653.89344586021,-128.16838304045,1064.08231235608,-105.359156911217,1278.94207034152,568.60714072013,248.007933051977,-35.3878946344347,1409.25218669152,-89.9980968467614,280.665964765913,33.7366339223648,810.161606241989,-39.3272651555031,677.669776646395,8.96439229152449
370.903893517799,67.9204784336131,483.471093450518,0.196484522585976,740.813945273368,12.8887945351188,1407.47229940601,-1.81355224085605,919.910789219515,39.785238291761,1313.69843182551,38.0631949458416,2194.68435391944,-240.08827027198,1621.49330863109,-123.044579820983,1036.41963529409,-102.142506795046,1253.79543899639,560.659024914656,243.796127601656,-34.2037836214649,1388.28796804661,-85.9991048271509,275.405745846466,34.8629265166807,805.403879334406,-38.6226034791616,674.954220455312,11.4018070834128
376.599764181945,65.5509742306816,491.227707913796,-2.05820191176388,744.921613894568,13.8996622252916,1413.22516185038,-4.42180035235731,930.253646426508,39.2051769172024,1317.88289326946,39.1619787648331,2215.1024915365,-245.561051277549,1627.63560984168,-123.466682384328,1048.19348748911,-103.739343015232,1283.87184242452,567.438733093832,248.425312581596,-35.073821356857,1416.24299292484,-91.0274296749134,280.444001861067,34.315197338149,824.803772699313,-42.8257385136,687.828576896509,9.11068144248843
380.099062961624,66.1336136173253,495.419487118442,-2.62604692612524,753.777280151833,11.8926027710211,1435.31793698535,-6.27060213721374,942.368245436494,37.7629031801861,1336.42570535521,37.359133687535,2243.5815533791,-252.728980866919,1649.98063343964,-126.715576861908,1065.0931005112,-106.195524854021,1319.3678423257,570.379875672264,253.254457489659,-36.0116196642617,1438.99734119547,-94.607197998369,284.987678541217,33.3277843840668,828.754347637431,-42.8733188373912,684.770682810259,9.1454484457603
370.918752683332,67.0744886384748,489.092378079864,-3.04823871557399,739.984997967068,13.8679792028325,1398.610040642,-1.3717727958126,916.849762578717,40.7236415313104,1308.57156309261,39.3224175478353,2192.23583626766,-239.218797156043,1615.61360688898,-121.360892370223,1031.86425251833,-101.379731556448,1247.5210408138,559.349871989777,242.429911567978,-33.512946430858,1384.09499512996,-85.9278600853084,274.85176935813,34.8004628251606,805.758398306607,-38.7367562257552,675.737861782616,11.0941591965067
374.535671344178,66.2140517966248,485.849190217626,-0.360868963132736,743.811512075591,12.2241154934712,1408.88189698121,-2.4606566277303,927.250740409071,39.542458807084,1319.70559835369,36.4314269712142,2209.7107637325,-245.477054320194,1625.73453060017,-123.239967954074,1045.06503557902,-104.07240770786,1274.16742207392,565.990628995494,247.045195437584,-34.7284661186371,1408.58445455957,-88.6793079696558,279.158918351373,34.3896701079889,822.551792760371,-42.0663868664075,685.606846326614,10.061873436143
378.987210745791,65.0155748648149,492.74001082086,-1.29153232930943,753.382369903354,13.3675217843019,1434.23007188849,-7.25550364020632,939.738843844454,38.2552449240916,1339.97291425679,34.7991642506878,2235.38297957698,-251.137869727159,1646.75192972445,-127.671395385,1062.70635367661,-104.871661583606,1317.51901530968,566.107973776405,253.055650240357,-35.9680235980437,1441.81340327367,-95.2753502703954,285.138210432676,33.9243930387939,841.288020852352,-44.625972035394,697.186472178064,7.39453702031085
372.357067373533,66.0096224145195,484.824818118083,-1.06422375901132,743.952993346496,12.1795989105061,1405.09001824243,-2.05810452580358,916.057340620142,39.9470157537857,1314.03504054936,38.5690544544312,2188.4017863217,-240.291992634326,1613.04964289697,-121.091024868155,1029.31298068019,-98.6621671633943,1232.38943484089,557.742842761163,240.969145450375,-33.3445350836826,1370.57331111361,-84.1215291475738,274.281332936952,34.4860349762293,801.24156360253,-38.2665610813771,673.214688972044,11.1832775412033
372.648077350019,65.9990268862842,482.198550187041,0.62763582039661,743.202051830121,14.8368878669669,1403.01816830601,-1.57210295085425,921.836702342883,40.01056023007,1314.1900892789,39.7122437490393,2201.2028980393,-244.818037534408,1617.85321627338,-122.272042085702,1035.44446421269,-100.705021087928,1265.24445607505,562.816899362659,244.999701764549,-34.3697800934262,1397.34088763312,-87.4826033949355,277.422849418161,34.4613453486618,815.885157548755,-40.504410486881,683.805542758178,10.2424971445073
375.104106368752,66.6294193460602,489.170622195392,-1.16917354789212,749.614274741478,12.0560709051447,1425.23372443228,-6.95000443874997,936.936485705816,38.3979643056348,1326.34433542794,41.0589106575862,2221.42084775868,-245.617115233661,1633.56670035522,-125.803447194196,1055.85179172149,-105.368577608631,1300.56878758965,569.666046455338,250.69446919327,-35.3308664098922,1425.29025600985,-92.0921327036499,283.388533219864,33.6863861614802,835.315586723543,-43.8463219731193,694.084554901057,8.82945273157539
371.013715791779,66.5908017321149,483.725083714963,0.250274405738156,743.135521135962,12.4778525154743,1400.94880580737,0.29590724084233,920.780460507206,40.6642210888375,1310.6790532042,40.15004832937,2189.61111006207,-241.506058291023,1609.42992421515,-121.121818108386,1026.66893634024,-99.7043436275673,1237.80737938822,560.336208635737,240.399151190863,-33.2110199048302,1357.12467815421,-81.1602905612554,272.976307023807,35.1064414647651,791.553585961888,-36.8691488518804,670.372920307661,12.0931196682818
365.446445507592,67.2706106061397,480.2861707236,0.170470784829191,740.344365675164,12.0955575808314,1392.39024597351,-4.12527290206922,919.867599229079,41.3815330352758,1305.95811232533,37.5038026053507,2188.89044828771,-241.984664616532,1602.85417565365,-120.182283588421,1025.71387372058,-100.049210810746,1248.60449563395,566.807262672599,242.545934200836,-33.4960315736098,1373.37251536313,-83.8225599829031,274.847102906874,34.9976008447684,805.096461914602,-39.0961313132646,679.494523761165,11.3191016391423
372.378022770372,65.5096361248964,483.629977943822,-2.55176286320934,744.492912350096,13.8709548611707,1404.15362187606,-4.73433833278968,934.961231562181,39.1557659478683,1313.8897898497,36.7739324589725,2208.51041687809,-241.748692446112,1617.94431406713,-123.356522829136,1039.87185660486,-101.535657119403,1290.55401112639,569.350761411983,248.662072997905,-34.9965012854387,1406.88169972466,-89.600985772205,280.897187074486,34.3374360169196,823.484792085372,-41.5007946050246,690.264094943797,9.52675216745131
369.785434153002,64.4923749956335,474.456104362631,1.94561316814475,741.204350994683,11.6722109795275,1390.75121402605,-1.12723776209242,915.838441273496,41.9649448976013,1294.76745564531,41.4421931280232,2178.50134040008,-235.625253969043,1596.51772150785,-119.26338341601,1017.80510752389,-97.4008742828596,1228.09336593784,561.026383485373,238.388307627788,-32.6736198715724,1343.43521580042,-78.4471548192457,270.884960238113,35.2874710315169,784.146024281669,-35.5181395141311,666.252283912829,13.648563503781
363.884753156312,66.8470734231084,476.889133233345,0.0538800347268616,735.505253213092,14.0405902743797,1381.22162387796,-1.73222216457846,915.014470017275,42.4460218261091,1297.72864366505,40.6656372704987,2170.90755075495,-235.543624275262,1595.27230477434,-118.751153604256,1023.24132241194,-98.2141576471194,1242.8367985493,564.330617725094,241.503169083055,-33.3006127570239,1367.56609738307,-82.1622808615164,273.037599479158,35.2779825377073,800.01548946,-37.4854162920598,676.438892059011,12.3810098274859
367.506455672322,67.9833704036518,481.529520625536,-1.08536374681569,742.433076147279,13.6862798076504,1398.96423637966,0.994291735544723,929.496215273839,39.929030876417,1317.21351395954,37.3773907519643,2204.42775215639,-244.198749168225,1612.02650755048,-120.42796066697,1042.72420098002,-104.687095920306,1280.98899547027,570.643913903664,247.019963318129,-34.3764482266875,1402.90140213111,-87.9233791217832,279.083399342611,34.3466089810378,822.204760983511,-41.2569094358896,687.088358091962,10.3419311393765
362.267820838647,68.3720592306114,475.235411125728,1.29671159293182,735.508345241857,14.363096253958,1385.4086507479,0.185988820259166,907.448173338302,44.0106655303601,1293.70505109523,41.7301523458675,2157.92986105737,-230.88572263053,1588.76682889828,-117.407721165009,1014.32175070767,-97.4707380055476,1214.13705496491,560.871249466907,235.894886114404,-31.9525998230254,1333.40338771583,-76.7285813432004,268.868531374836,35.5756101429252,780.093830011547,-34.221499302462,662.84011331394,14.1707065989863
359.904585151996,67.7930875791137,472.640089659333,1.07095535484332,733.070872420363,13.8019309637106,1370.22149790272,5.47195823973068,910.183163131066,43.0225781127571,1292.83555571105,41.0539069677497,2163.51698110623,-231.967940813134,1587.79998110279,-117.483297731478,1016.3205663162,-97.4730075508031,1232.61480782178,566.832278175543,238.901966576918,-32.5773527216445,1356.38082019657,-79.4514912456939,271.712159694536,35.274723129694,797.035720163104,-36.707254130343,670.988155785771,14.3625684173379
365.699294803988,66.7538853035852,476.975548631965,0.989531231552441,740.837522204581,12.1291099358342,1395.67698791466,-0.197900792697119,924.108926887944,40.8141346939916,1308.58787039638,39.8161645479169,2191.73194713092,-239.497038150894,1604.84045154417,-120.514090942708,1036.20825365045,-102.753818163614,1274.09365015738,569.64715579018,245.117652251858,-34.0049432940574,1391.58727884551,-85.830565751736,277.389864747887,34.9565758204135,816.644133635539,-39.9209134489353,682.972062571884,10.9234965920958
361.485837035127,67.1873918824941,472.350067897274,0.662073165487139,733.442990517377,13.7737262277362,1376.28278000881,2.26835942319741,907.254666566259,42.4234905593338,1289.40839455008,42.0904877146898,2152.4553737352,-229.505534893311,1583.01096559027,-116.607884643535,1005.47271785541,-94.4919507709292,1210.54498910089,561.701613654468,234.333887419486,-31.6698909273771,1320.94860558256,-73.8026804634004,267.545219063998,35.8839228346536,772.284043444405,-33.6175869800198,657.368996691459,15.0200021920404
359.125402718578,66.1364190891268,470.323671744918,-0.0348060205123714,728.347437020777,14.4687616979878,1362.43790369418,4.96031828034081,903.399742405311,43.939945644239,1284.88626728947,42.1482677926102,2143.78628793667,-223.759676046891,1574.81690471085,-115.220426609619,1003.86841752314,-94.1348011038788,1222.36246472347,564.652150850088,235.846551463464,-31.651569200405,1335.35532551419,-76.0501614923919,269.288436393146,35.7288116804179,785.353086828748,-34.3278747718132,664.713185439309,15.585287531164
360.724976063898,68.0179096592763,471.028124948697,2.22109272992235,739.156374486543,12.0593844438105,1385.18348954916,1.27311970488846,919.579275910884,42.7885205846794,1299.94716490366,39.1396405812481,2173.43842845122,-232.598618056558,1596.03788031165,-119.001563846636,1023.4605215924,-98.5448538025513,1265.60240334703,569.504696802176,242.799630081999,-33.1122885639043,1374.37491699458,-82.7467554520402,276.277487245842,34.9308724795105,806.707127391913,-38.2595341713091,676.60403785572,13.5034266280289
363.887805319277,68.7983520305334,475.110627973692,1.73858647621657,741.332044382378,13.5491611269778,1385.75021366225,2.14179384653396,911.539900965821,42.9776448216544,1297.09279727862,39.6314327577527,2165.47824434041,-236.146786510423,1588.43759481021,-118.167998318183,1018.0413451673,-99.5795932566283,1220.76841076589,564.39440023652,235.696080358274,-31.8283644591563,1326.56500617163,-74.2527533159961,269.028514266411,36.0209086117975,775.352536931495,-32.9633124048297,658.005029951295,15.3345621311049
356.832750866886,67.0609566559904,465.209014580623,2.51895158541254,733.350999998925,13.5351231171483,1367.68270076143,3.00081286581434,901.820600784939,44.833285804911,1284.21405459501,43.874224781716,2142.92453487024,-227.638697260506,1575.32437697722,-115.577063510417,1003.80070371298,-94.7474404183324,1218.04973854112,567.126288112373,235.2759406014,-31.926020213703,1325.33145345697,-74.0359163167412,269.078636856529,35.6582896528211,780.167709388655,-34.0556995587408,661.428923917895,15.7731230111709
360.455530924278,67.6023719233042,470.492656470075,2.9097878780508,738.540510758484,12.8171648121138,1381.22526180564,2.80879668933948,915.776931814989,43.1023951403054,1298.97380713654,40.5167598054565,2174.65747596258,-235.70650629669,1594.1619657854,-118.644096413144,1023.92795113813,-99.332676567879,1260.63511862713,570.990978138078,241.330976735825,-32.8519795365795,1368.21314367236,-80.508054374332,275.524687581032,35.2250244635328,804.187780520665,-37.5220868014087,672.83367714789,14.5252516758174
368.173106330661,67.8995629388317,480.925118340672,0.868555052527953,748.575860037573,12.7753267975408,1414.70579815979,-4.87186984684585,917.832013794549,42.8153392106382,1307.71388477624,42.2910513736322,2175.30558483299,-233.464583085287,1601.15093566916,-120.424447126495,1027.61781676566,-99.4514675384498,1234.90295135003,566.954614605181,236.366445429984,-31.5852081920743,1335.46226722677,-76.7111555127889,271.088012622057,36.0366666029485,782.513807292478,-34.2423211723745,658.117577697028,16.1544118839546
358.001148300525,68.8740700828414,466.209447563873,3.36764407569181,737.811448115059,13.4945203712982,1376.4982198516,2.11137965459266,901.982235600384,45.2274730901327,1293.15309345146,42.3439338092384,2151.70487464029,-229.845819897798,1583.33779304762,-116.689764096984,1008.475474571,-94.8620482845298,1223.67050040465,566.235781469676,234.812077479657,-31.5409278693547,1327.74560076178,-74.5621943078643,270.105427605592,35.85020522224,782.633255053643,-34.4621443490019,659.070037892456,17.4395361581184
360.067873531972,68.943704249733,472.370291744741,1.2168180986937,745.132313256875,11.2428817889215,1392.37083878801,-0.0709000399132763,915.285134825275,43.6269250703583,1300.55378121061,42.4903871476571,2173.37435694932,-234.089612924526,1596.9645272764,-119.141708467763,1020.27690248706,-96.3897177879187,1266.24586333932,572.692962120465,241.145191136609,-32.6763961675546,1359.68307738262,-79.7287745805757,275.481353596241,35.5008889676553,802.073698222428,-36.9798632347693,673.132606441722,14.2576702530012
366.100676115652,68.262512808385,477.538202941245,0.90945214749829,757.357661422082,9.59924084036642,1418.65028379826,-6.00680638648029,929.485567462979,41.8437233885759,1324.23818782239,37.9166073375761,2194.71267739647,-237.198902109168,1616.66975773688,-122.172492135775,1040.3320034995,-101.230303114663,1274.04172240132,572.671014353349,240.547741949141,-32.6246771524505,1352.78726584231,-79.4493141432623,275.27484717589,35.3953920034694,787.783749048801,-34.3881862161068,663.237566186433,14.9035719093507
357.812235679292,68.5493337758422,463.117298475895,3.57365044100001,742.777519887521,11.9522614234779,1378.55884254462,0.586819138404795,900.716251234598,45.5287121514871,1293.50744632892,41.9007941405645,2144.87628671641,-226.513205216206,1584.87838692451,-117.342685492632,1004.40328204673,-94.6932460722518,1226.62549753357,564.891051425344,234.468077430046,-31.386111924881,1319.41189221991,-72.8751682010927,270.999775506425,35.3781186935328,777.404439240105,-32.9249795099794,660.243104448537,15.9700761771925
361.057249984724,68.1394149149364,470.864590247957,1.57222510067281,748.20875283952,9.41372935741003,1395.33467987529,-2.58464008521359,911.421897762803,44.7981160445666,1307.51849818628,40.2576213535943,2171.77127345992,-231.568392965615,1599.70444617982,-119.309982680441,1024.65086491342,-99.4155413746836,1262.88433413917,572.244173718232,240.574562351911,-32.5410953463604,1356.6516379277,-79.2546408277101,276.488266198493,35.1131196438341,801.012771184397,-36.7471306298648,673.473958040479,13.9457449669935
368.335559545703,67.7679731677725,479.940437352884,0.093785184128491,759.225721296796,9.45972187234957,1422.09813643681,-3.64977036839385,928.359856562681,42.7931506817473,1335.6812247595,35.977819385846,2207.20440519909,-241.302778734027,1628.00331533294,-123.997562099465,1047.13944951552,-102.348974906346,1310.27711884945,575.05744398217,247.064376030897,-33.999056222355,1398.46454973042,-84.8234703333188,283.95951310098,34.1288866445579,825.128225086871,-40.7425969067692,683.913895111898,12.3330805242764
363.608341463675,67.7226500683178,471.279478402007,1.23384839896684,747.436028674705,10.1457773400908,1396.57791142267,-1.27340796733221,905.648981775394,44.2193432772011,1304.70618036647,40.761340241638,2159.36167840414,-225.423812441756,1598.61551708582,-119.251742325131,1013.56695876502,-95.2411968258556,1232.0163348571,567.038778432532,235.190889363034,-31.7056446423868,1323.08107434502,-72.0001316711292,272.647401891801,35.4250979138515,784.009655702493,-34.2059136192079,664.247531379923,14.7175868316469
363.079388985896,67.8289740503973,470.941612386713,2.45226613162255,751.410878614891,9.55757573168882,1403.35509819181,-3.65968982408017,912.893368873934,44.4664532018776,1311.95963143811,38.5157689954804,2179.05639247206,-233.093295435083,1606.08444813222,-119.982290715958,1024.47611819874,-97.1798941240587,1263.03158639692,571.755678709468,240.091551153309,-32.6254139211293,1352.51419836402,-77.4663555651781,277.280221750954,34.9382467873994,800.618727265702,-37.3050881510012,674.195355658473,13.626993980935
371.302990368674,67.0182362094953,479.323378059596,1.1314504004956,757.29219757316,12.3278418080822,1425.27635130225,-7.0450219726468,927.64342949075,42.8056449363816,1330.14871303846,37.5075245312866,2209.36517072431,-240.676885097161,1626.97324013052,-123.719802082839,1045.19089532677,-102.031737378776,1309.83990077649,576.348906506144,246.426129525573,-34.0681770880733,1390.26261061222,-84.0424525166129,283.649971546676,34.2637532128773,822.093060774345,-40.5180033827847,685.837423011248,12.1002912336522
366.61961663959,67.7757532532241,475.023118051479,2.0174470002956,753.249871707835,10.5095407511439,1409.02177824598,-2.64743232655015,910.693601904247,43.9622628702513,1313.08095991265,41.0625876843694,2177.51825818257,-233.982603449507,1611.12515674111,-120.680867688035,1022.50062085388,-96.7869059534922,1244.50471974654,568.920479219526,236.281473649392,-32.0031631136014,1329.85716371042,-74.4963138175291,274.683498597468,35.0467851199059,783.956243955364,-33.721096145066,666.857097440866,14.1855221534261
367.068439213645,66.4392475620054,472.705944755905,1.72388119618782,749.742320172828,12.3593546440047,1412.08343252314,-4.18141674300839,913.221985063127,45.3923204692936,1316.32187465544,40.2847229096472,2182.78452339479,-234.493042135436,1615.77239500044,-122.039955095962,1028.74872491481,-98.2921583790712,1269.40407007617,572.970169993722,240.197991048982,-32.6510565305578,1357.09140341676,-78.4556420508744,277.670121151337,35.014981233884,801.26758399329,-36.3000150103475,677.475491522912,13.1667326791936
370.642217658711,67.5496451429749,480.533884596452,-0.0560036051561999,761.149665634991,10.1507009657638,1432.3899477492,-7.18791778365048,928.852068404293,42.8086131500722,1335.20863317959,39.0943602135748,2212.42419028988,-242.820663393099,1636.56661264858,-126.117664487707,1048.88642593596,-100.630356790617,1312.24244790381,576.63250070138,246.215496415221,-33.8221881314969,1392.45404279036,-84.4670524788877,284.427840986121,34.6014147321821,823.906014871088,-40.4140368432781,689.426888293985,11.5600854706322
367.948148445722,70.231927046085,476.87864565579,3.44065822568338,761.844510392079,6.77804502656666,1428.98656308167,-6.76419425216647,915.122190276678,44.2240682611297,1319.4467338337,42.8211025455828,2196.76201204071,-238.662991644218,1623.35801101506,-123.004770965679,1035.63777900609,-100.697467553842,1255.82694087672,569.133483861743,237.976259686927,-32.2222229124056,1341.79759539208,-75.6610920165572,276.277545803769,35.3056847660548,791.405966713707,-34.9958569278464,671.16290741376,13.6026465701872
366.365788872584,69.248807692839,475.116332014083,2.53692569476534,749.680349467155,12.6730947705759,1416.68528496413,-5.53542467016002,913.950971076356,43.4736391643658,1317.49411648118,41.6361219750609,2188.38762391788,-236.49614166266,1618.85993139411,-122.626408791094,1032.30270719136,-98.4657772013837,1269.07245142131,569.384429615025,238.935217146027,-32.0372752522861,1354.47802342018,-77.828308879347,277.475177967222,35.0432962565091,800.615083490349,-35.9948124461653,678.496946252658,13.1809803200376
370.843037341319,67.8207871941959,481.807504776139,-0.475153335445928,758.220865691904,10.0285781890488,1433.18062103432,-7.39583347027489,926.765941592536,43.4731988129869,1333.51776180363,38.7189838424746,2214.25099154614,-242.453387984717,1635.6866536184,-125.906701003646,1047.18775433714,-102.192726069493,1306.43266536631,580.504721417322,245.864175629274,-33.6457828327404,1389.05789916101,-83.1749051862465,284.767280563183,33.7909324269432,822.793932790629,-40.2004364168465,691.416453538051,10.4044797630037
376.667413158013,67.3146612723015,485.429638077418,0.978094502602144,775.475261034071,6.12375982737845,1454.81933726728,-8.69765393069226,936.419006862,41.9309920339776,1340.76486817603,40.1033698876103,2226.23243281991,-244.095097270222,1645.91693070093,-127.324466936955,1056.90186960266,-103.370059245319,1280.78001812635,576.691999943573,241.618905428656,-32.7185650441193,1362.20853668808,-79.5612884221277,281.239813766275,34.1928674813743,799.410252597504,-36.840702617978,679.658213263848,11.6876044604565
366.191115067697,68.0774139881226,472.246061216294,2.84288817514782,751.357484825709,11.7733103935631,1417.8856106113,-6.08139763253997,914.030656854653,44.4346445631726,1322.50030011503,40.8413533108433,2187.51198533186,-233.554362960533,1619.44189506481,-121.678721908357,1031.24063379177,-99.0410512273313,1267.89551809062,571.512471961255,238.754898155793,-32.2856879883154,1348.2452786394,-77.081605615665,278.154408414113,34.6027044769192,796.241109029983,-35.648266780535,677.917404724289,13.0503508267864
368.021792288996,68.5980402108379,477.679974283865,1.78371485204585,758.37592550978,9.70496701674226,1423.57374903302,-4.12342173408372,923.998277836524,43.2213729022738,1328.9373385995,41.1812681175031,2207.26265531575,-239.409381778148,1631.13494501814,-124.647605260341,1039.93035633922,-99.9191839341681,1298.88817105943,577.431789987425,244.506805217065,-33.4462233168178,1379.10932812633,-80.7320531749884,282.599902843493,34.5674859294902,816.512106214448,-39.1360419452087,688.869502925387,11.6066404503534
374.281746468871,69.2050006359006,484.730004788633,1.53856712151152,769.717011184838,7.95244452918092,1445.60944965117,-9.31814468229308,937.180218219942,42.1663591643296,1351.46206769069,34.7767018461144,2231.13371473039,-242.63058319827,1649.24847147048,-127.635739465827,1060.46627211727,-104.408430613221,1315.40473699515,575.831447828512,244.22442103389,-33.0362577805955,1377.19523864618,-81.2684414626912,282.75041452918,34.4603444208998,802.159471077626,-36.8748866486185,682.909542115492,10.5480917701912
364.418110709773,69.1770753140403,470.48235992482,2.63071254836755,751.42830215841,10.3113096941368,1408.95239727123,-4.32166671658944,911.446756042582,45.3466643475375,1319.16561767002,40.6772567435516,2184.68369230749,-236.960083605594,1613.17701721904,-120.867903323423,1025.88977353529,-97.2807498074599,1262.98353047739,570.931339837555,238.826840610388,-32.3927345183591,1344.55562730057,-76.5173513452409,277.461955332485,35.0138440027748,791.576114988118,-34.7581923244322,679.534507651623,12.350252029204
367.496168727856,66.9601985214809,472.751748650841,2.77727591464202,750.904126121009,13.3813379397782,1419.21602665597,-7.73602711575717,919.804542225861,44.073679131019,1325.14532263647,37.8845809859119,2194.61890789411,-232.878485488545,1618.75337994451,-122.402056171145,1036.58202093855,-100.280737352856,1284.5725462365,578.356235315249,242.508198338351,-32.8273593164116,1366.05254318578,-78.7414281817696,281.610627917195,34.4271035277306,807.966517438322,-38.0675365646149,689.669739062607,11.5947170061799
371.771373068307,67.205721493695,477.376763429883,1.2624912794103,762.701985770644,9.25456596822529,1431.32389242739,-5.79963333736586,933.360589075448,43.4113802959771,1341.17873666326,37.5999797970627,2217.95707983671,-239.812727281397,1639.5281303153,-125.390362699894,1055.80628553246,-103.624970762683,1318.29087322969,579.657170165479,244.870087217624,-33.5004222765732,1377.23703034596,-81.5873969355734,282.35827000947,34.7252925566179,802.245171413714,-36.9147115399175,682.576543931772,11.814264269656
362.759654196069,67.3901465928212,469.26387795082,3.10023808828153,741.110352247906,12.3391629518835,1400.99299604476,-3.97359148620452,908.666452522389,44.7056111713753,1308.80139678273,41.3532836124605,2175.74031950412,-232.790373495271,1607.48014262375,-118.891529443941,1023.19929547962,-96.3256039362206,1253.23636599008,571.94414364636,235.620970538097,-31.2022786644892,1331.61112200665,-72.9744667905095,275.006694961728,35.1083054187452,786.250757196054,-33.5978865649783,676.677668593567,12.7126380144607
362.753263802661,68.0901784315931,469.261971144844,3.96904272711396,746.338771379782,11.2708032583569,1406.18981593529,-3.45683125125944,917.183123552655,45.0085824632624,1316.46836139455,40.6272989532165,2187.15092529097,-233.717280700865,1613.48159672324,-119.565746941195,1028.75058900789,-99.9542912229151,1282.43277341488,572.503522957271,239.61697260215,-32.3094515750519,1351.33057318612,-76.289621188166,279.070723387037,34.7482412913511,799.541336784119,-36.0071997849092,685.314465359811,11.8207157772414
370.594028645174,68.0646296026877,476.80755023738,0.956270865355436,752.695221022241,11.8378183425531,1425.84215626438,-7.30910598582325,930.525035477558,44.2026808172858,1333.22302183453,39.8367424709186,2210.88983994116,-238.91140244594,1633.09105826797,-123.142347642976,1047.48193323788,-102.335721531754,1311.96098829212,582.847206159838,245.873827915414,-33.3021477107976,1384.34167605032,-82.375696972867,284.331724025586,34.5949678350069,818.109865075994,-38.7219798905015,694.291849695986,10.6013294435632
361.643147149582,69.7157363241428,466.493082654477,2.3151124750929,738.209316545463,15.3371769118666,1392.96672862728,-4.68390353509799,903.873279105816,46.6666965417772,1303.51260388741,41.5942590743084,2162.70550598056,-230.165485278554,1596.23629916924,-117.231239784217,1008.57213012683,-94.9123321282342,1227.19041856433,570.735086816183,232.604647539679,-30.7383080069398,1304.31216570373,-69.0030433919563,271.720007730758,35.5524926842832,767.866777625763,-30.3481858658472,673.123902505663,14.3718505835573
361.956780536789,68.2366532927398,466.184125038274,3.25302497392025,739.807904390632,14.7186945636798,1390.44743846149,-2.61970292641579,909.94191061592,46.5908077757247,1306.62565397708,42.8216306451383,2171.48224748271,-229.907405014944,1602.11356006684,-117.91578577078,1016.60350170801,-96.2494032326725,1263.97084678656,573.281586761528,237.10310811641,-31.566512943702,1329.01903708096,-72.6430016482816,275.397428611657,35.1418132107634,785.039115945612,-32.9942150809086,682.48214628422,12.9102767431134
366.859802498565,67.6788149113387,473.003064591078,2.67607771120356,752.364672937928,10.5268023341864,1409.64422106855,-3.76059225244447,927.21018987662,44.4003655941316,1324.39066233386,39.3213718251932,2200.80858094994,-235.498872577979,1623.25161735031,-122.022857465272,1034.58381840015,-99.3318181388445,1300.23404490488,581.740174790527,243.314402914868,-32.8427990381055,1364.25963058801,-78.217993284904,281.822132341556,35.0955518090769,806.28602096226,-37.1172536076044,694.360961678307,11.1394326012996
362.689970473396,69.6401091437404,467.231783751482,3.73882871624703,741.795349798971,14.8767128762076,1394.35614741967,-2.84864257242882,908.512485001542,47.0791901745078,1303.93053694952,43.3906527848101,2170.67599807094,-229.236517828365,1602.60254937616,-117.933087081024,1012.9933813968,-96.1063881003069,1244.48457106702,567.954206509303,233.695911411237,-31.079630994885,1297.07283088283,-66.8758616761875,272.128773824923,35.5079007132071,762.774858608388,-29.3753815173473,672.590538356153,13.7542751597967
363.596531021118,67.193374245183,464.002105275244,4.25259586325893,739.832801887788,15.1008061682188,1385.84723145369,-3.26429364252783,908.382012410791,46.4646420614033,1301.73419525938,41.755417740389,2169.21981004289,-229.827101010576,1599.58263437091,-117.437475285052,1009.88032621856,-94.9376073578082,1246.76089860719,574.719803267264,234.88040160779,-30.9973042298322,1312.85668309315,-69.1953197922767,274.004065590562,35.6662794947534,776.392507170052,-31.5460675995519,680.487131587096,14.2720704949241
366.236286127803,68.9649347369057,470.805928762909,1.49348938638169,746.619825942428,13.3029449448897,1401.22669774181,-1.89664222056203,922.257084994628,45.4488356833194,1318.98715698725,41.9654696592797,2188.84618589579,-229.703320555613,1619.35167407473,-120.51824633281,1033.38635640403,-99.87152262858,1293.38291989559,579.274196434937,241.204991469858,-32.246188328554,1352.42086992849,-75.317644482645,279.502164280455,35.2904580611497,800.650454171518,-36.351677025741,693.493870012437,11.621657493044
365.27620966903,68.0043117323416,470.003045482056,3.54567479350849,744.177261166953,13.3779745462016,1404.6115792438,-5.16468689204053,907.565278622595,47.8891915872538,1306.21711147436,41.6403660139985,2173.43606573567,-227.894244208536,1607.84681350467,-117.879198978785,1013.64857667532,-93.7087323067864,1244.89577695418,565.765028122534,232.848571087298,-30.5406023991896,1301.25451799866,-67.7941947743991,271.706607152801,36.191864059806,764.467598542745,-29.4169621804556,674.579637760297,14.0515594231374
359.299453128595,70.7962066819681,466.660787110409,2.42426822448288,736.353298657641,15.413395326189,1393.08567830464,-2.44697223081281,906.606137663347,47.202582629464,1307.95718299526,39.8969058386144,2169.19476161311,-227.919553369954,1602.82898477361,-117.034455614557,1012.09868272859,-94.3534480033887,1250.19199476358,573.05137187864,234.363952481197,-30.9555095596092,1313.78024753395,-69.3430167913853,272.936609982187,36.124507374931,777.222488771356,-31.8535215383166,681.459972844513,12.9802619279964
369.389631755427,66.9918088010929,473.232577957262,2.64993987590862,746.481649916145,11.9914093123842,1408.9200455717,-2.91140587622279,920.080237875224,46.2597993251776,1317.68607517906,43.1841271598336,2196.56781890402,-233.293434182462,1623.66961743116,-120.420532498169,1034.4823909966,-98.5284040359125,1297.02281710266,576.266002656329,240.859504841605,-32.2544532886327,1354.89783234266,-75.7344985695059,279.721840330208,35.3935168621124,803.148827919802,-36.294957950642,693.22744232231,11.8425546364225
374.071521657331,67.9946333078528,481.016783938849,0.732488501562531,760.075860715585,8.95988152164746,1431.05050595145,-5.12834968598435,919.875930579009,45.9494012278059,1318.53440916079,43.9513029429869,2197.62153756719,-235.170406440903,1625.42281276835,-121.519689348704,1032.17674689516,-98.4982234670265,1256.39830888616,573.488284426813,234.228860909613,-30.6874689132761,1313.10305183018,-69.3599879779301,274.280305912921,35.7640245200015,772.932497687929,-31.0368577310532,677.562549661667,13.7175110927059
364.696087588271,68.5206307173726,465.513005050955,4.78291556284656,741.48839573251,14.7116070082627,1400.15079121239,-3.16737903012141,905.787539119302,47.8325424955024,1302.36334150778,47.1705277048452,2174.65605825472,-230.211971933003,1609.12421266162,-116.888290585723,1015.73000483011,-96.1153431293679,1250.30381141418,572.156978691947,233.321909255166,-30.8654593948455,1310.55030539512,-68.1023477451751,272.549747082474,36.2107218676141,777.338320598301,-31.563661634541,679.544947137114,13.8451344817713
365.110826408361,69.6815777787467,470.098196434718,4.15748873427849,748.022464254471,12.2013182024183,1415.412323325,-3.47187515618494,917.528924864768,46.7406134061752,1317.51363690941,40.7027115697355,2196.30590709262,-232.071569262085,1625.30492255704,-120.242450310599,1033.03782554836,-97.7827804873701,1283.46138355872,582.939624053407,239.753020625964,-31.811639102374,1350.67828987461,-74.6172157728019,278.912332719474,35.6186701283072,800.362108698749,-34.5847469180892,693.495026107244,11.6170355992915
375.067447445479,66.9870907136205,483.250996894907,-0.863413630307369,756.966351310022,12.1300009790591,1440.86568518102,-8.17257582174194,933.416847304226,44.2769128805656,1343.70014660532,38.7373471682313,2228.62384935312,-241.336718237144,1648.84358271425,-123.38248665536,1054.50730576575,-100.84350247492,1336.5347920334,579.711300938137,246.463845899191,-33.4860604243968,1385.83307421503,-79.4520086932177,285.958310050945,34.701638788826,823.585128966695,-39.5115947087065,702.965640422389,9.46044471425683
364.064699181473,70.0348680327094,472.616312782485,1.55703873399945,746.950673777126,11.6263181744097,1410.5867552936,-2.10755127336517,906.68405220934,47.5867598962207,1315.93616427402,41.9955689820804,2179.56140631257,-229.222808040327,1616.68718472859,-118.471436409798,1016.63415751518,-93.5942918502862,1247.08646956074,570.855942138272,232.835792586857,-30.3707595243983,1310.52315885833,-68.185256764525,273.777147348992,35.9088852972292,779.141837353306,-31.6878282877533,680.565793769836,13.9403893087722
363.485646502148,69.5914847427344,470.840214141382,3.87934914455244,750.403126539388,10.803936265852,1419.84457429277,-5.84616824470972,915.618143038222,46.9204046478888,1316.13134078299,45.6149903665343,2198.6288807626,-232.711456802244,1626.6030036195,-119.463159521077,1032.43988158968,-98.374403791377,1284.87848695816,574.892076088592,238.30368440933,-31.7788315488244,1342.2911019925,-72.6459542393504,278.231986197032,35.380200230578,798.07926366216,-35.195135116772,689.874949993858,12.7189826099129
372.25711841142,67.4539522674078,478.200485230561,2.04410404188251,761.732217091169,10.0324856809934,1445.49330448358,-9.87847122226179,930.067912507968,45.8680002986107,1342.11481563474,41.087075895942,2226.88042592835,-237.886207994589,1652.27452530116,-123.819862185973,1053.08034548045,-101.044186292547,1322.69560062687,587.676516010281,245.16224290328,-32.9189515126774,1383.30801385478,-78.6444426783552,284.893173964803,35.0369836078569,821.138838040153,-38.7712403486537,704.081191156698,9.98678525290867
381.803238880533,67.5908443348494,485.81193199637,1.87191119502674,768.942207956934,8.46735964524502,1465.65697041017,-12.9748378012469,930.313536940669,44.5455719384776,1336.55394023392,43.3438481978126,2226.02167503311,-238.542840611671,1650.92184174201,-124.223022823441,1054.07498762667,-103.601511383118,1285.7350262588,573.658317045708,239.397723161325,-31.9757437660699,1344.13402274507,-73.7383807138122,279.149994240179,35.6253734218958,792.320805815096,-33.284332479679,687.201973510686,11.6157478563554
367.320567743998,69.8783748272271,476.269077847071,1.98857178477507,754.049564632868,12.2736787530938,1436.1550721773,-11.5875984454408,919.215978661398,45.9973073678769,1327.40238456781,44.5511870496351,2204.51218036907,-232.820355289246,1637.73134220931,-121.078979144801,1038.89402106236,-98.4712373659373,1282.09791029468,577.623612773996,237.728394913185,-31.2655688520172,1343.93821264509,-71.7289883494511,277.738092895363,36.267405338297,797.213250133634,-33.9542951353905,690.125290318344,11.488638239485
373.958181910906,67.7545442943083,480.162747374512,1.64366994547302,758.537268229344,12.3732752681805,1449.63335908861,-10.1869807628785,929.514121057011,45.0909687979581,1342.01070823499,39.6849514784911,2232.57320165667,-238.532100400641,1650.89880791843,-123.119892994614,1052.85897535327,-100.655627530276,1319.29928639987,584.706477656165,244.597204227072,-32.9204992520247,1382.52269995663,-79.3500802689185,284.279110983814,35.2562694373372,819.867328651859,-38.2021054148832,701.941398127824,10.1456824968983
379.316777263957,68.3442755420205,489.641184472851,-0.768561374297799,771.41783708035,9.74689114434309,1473.79558896065,-13.526458036351,943.558919687931,43.4990132196712,1368.1063440261,35.7838458534612,2261.77509390737,-246.730862574992,1678.00773848776,-129.367067482514,1074.97324695869,-104.398975493124,1364.36925400895,590.072627916169,250.471075664932,-34.261376694384,1415.77328432859,-84.634105292101,289.65400924266,34.99507318253,833.537761191678,-40.6228398894739,705.762251859832,8.12050649809235
371.547414529588,69.8480285962185,478.410144437512,0.139628651153127,758.416565637749,11.2195370003022,1440.84893453427,-9.06866661546594,920.492520428316,45.7883771347345,1334.23483674775,41.8177294256285,2211.22350580185,-234.420940118578,1643.08028248494,-122.446508484023,1041.56714473183,-98.886269096126,1280.70614463724,578.693482304217,239.179585901018,-31.5392705393765,1352.18345277149,-73.521493198572,279.477460757709,35.4199026330065,800.94739408995,-34.5476731000371,692.179707146486,9.93426032709041
373.203291813075,68.3250888795795,481.253242215072,-0.463508478785958,757.968825993938,14.2819354050643,1445.83972582767,-7.90578030518082,927.580421048882,44.9711948588836,1338.97761016878,42.7913059713532,2231.8390029465,-240.498784913808,1649.64422126418,-122.526020673899,1050.87200706603,-100.051333044021,1316.91432948056,577.105155603021,243.811876291303,-32.6794042020584,1375.95268581793,-78.1342233093312,282.884651709374,35.3649506942915,815.581965105733,-37.520387552891,699.961414874546,9.96220254409019
379.252118508394,67.889411119303,486.135787138053,0.469445961671846,771.594036354864,9.56940312944857,1469.5102805467,-15.3530761341524,940.782912704772,44.5547375184164,1367.18055912607,35.6851799658685,2255.62615635338,-243.863470536288,1672.6572843468,-126.798259309048,1069.44714871811,-103.671634451863,1353.20196062193,588.635140512344,249.340436952774,-33.8308772986426,1410.0044248852,-83.9743329393671,289.079640198224,34.6528595423952,835.403643523847,-40.6244736037405,711.74263066666,7.26142387596823
372.389962228375,70.7203003140649,481.348960493821,1.36573375328152,759.554300433921,11.7465718451943,1448.05055169558,-8.70274916414313,921.499588659048,46.2258063800354,1336.60965347557,42.7585691440523,2218.79168534697,-238.261872437569,1646.25229252247,-122.080500142426,1048.41479719486,-100.76901157386,1279.55108433117,573.85547176492,238.563722930447,-31.8984195850028,1346.15135811733,-73.6900112484148,278.199642796334,35.6997258703556,794.186472850866,-33.8299717460945,688.108440005954,10.761311343125
372.715026997656,67.6417015560217,479.726176063855,0.557444193784634,756.439397230086,10.8960171531279,1435.4292588378,-7.98884412980024,922.731955329959,45.6601029143989,1333.85449414126,43.6933254549249,2212.71080328332,-232.954547395852,1642.59045903286,-121.10104688381,1041.53938211486,-97.3469773402128,1298.95195651017,575.428479418735,240.316409063621,-31.9967477237327,1363.86471840602,-75.8505564513891,279.728624209441,35.5358650458134,806.827286259775,-35.616537007596,696.223033308189,9.62309439136121
375.084369765853,68.8001128153393,484.003822450943,-0.0996224985984448,765.883870139483,9.76430863728863,1454.09209284944,-11.9994798441332,936.305262383056,44.3573161344076,1353.52034124564,37.9455504002974,2247.55393674688,-246.690553655026,1661.65921566614,-124.793754747362,1061.44660291092,-103.18992555598,1335.04076561203,586.640887548889,246.881450075904,-33.5034501743788,1399.26649416262,-82.119137206521,286.162243086933,35.1474879506185,828.432045324887,-39.3763590474339,708.306103765954,8.00218583527209
385.081026150081,66.4091884499606,489.835596967223,-0.0138246327007082,772.60078146541,11.1163142202909,1483.18082382722,-16.4673685196441,949.021387800539,43.2627362115786,1374.02698718494,35.5507412130446,2269.30366268715,-244.486937468961,1683.87783796315,-129.38183247788,1083.2434236451,-106.989032707275,1361.55349903441,586.138950507539,248.42768613201,-33.9902179662886,1398.89864031924,-81.4326915944347,286.011558243483,35.3854279319846,814.883872107593,-37.3078580653453,697.402821763605,9.4987395894751
372.112613666785,67.8016324842204,474.003262629308,4.09767205140218,755.91217391097,10.2593162342235,1434.49226778267,-10.369582777679,918.179363322124,46.6150949947477,1332.49683232825,41.3724142861139,2213.27676330885,-235.627893896009,1638.03856036441,-121.044756617083,1037.79484841244,-96.5808130708234,1278.18975706437,577.812931965297,239.043612490158,-31.8284658304899,1350.70117888048,-74.0346015358297,277.13947438043,36.0791927906326,799.419598546269,-34.3783421524221,691.275210205723,10.0876107046206
374.755698805048,66.8636834931114,477.354901289009,2.17374812787869,753.692563292648,13.701496432895,1437.31211876351,-7.46367002611747,926.999018644867,45.3239970217293,1338.37648737149,40.3885122181498,2219.49911177305,-235.79919358169,1643.74393785854,-121.104130706779,1048.7450456245,-98.8864811911701,1312.08251847246,580.007205067554,243.079982728854,-32.5166235301718,1376.82955121223,-77.4408327049907,281.042358586815,36.1763088113222,814.588586541255,-36.9528844219716,699.423618837903,10.4433441509309
