364.75507447753,73.8779909422014,468.495778074676,7.45289301748729,738.376026748971,22.9980096432708,1390.72652610633,10.1412583326897,925.076918822656,53.5908776007732,1297.7995551116,61.3802106290703,2175.26513926504,-211.948074569917,1614.71858173398,-105.708657958663,1021.59903756344,-88.1584230833854,1232.53906346917,598.853962967586,243.377354882878,-32.016039327788,1364.23528967081,-70.8247904430705,273.210961386734,38.7305305674376,793.663959381954,-29.8339593504313,690.016305867197,16.0013644241346
368.647121950849,73.7298022051876,473.040431695403,6.91382666742279,749.74605560641,20.0703110495521,1401.06258375599,13.6007217873372,936.253498470429,53.1446966785635,1310.61757541168,58.9449314838197,2195.33800371352,-212.957274314001,1630.19690668401,-108.660323980729,1037.4186861394,-89.4252220966536,1268.56124463715,607.136886242654,248.499453780416,-32.968422093338,1394.43183575671,-75.8258675145466,279.324556539598,37.6589510955869,812.032789082682,-32.7392316863595,698.968730263773,15.1716579665727
374.900380385051,73.5876316357531,482.235420021957,3.98164613987046,758.223791971219,19.7529129322037,1422.97684306864,7.78751451655782,948.993052386301,51.7340985205165,1327.7672075043,60.3167733471667,2221.32265565609,-220.983453648746,1651.23639212112,-112.305248402737,1053.65534066128,-93.8205596326119,1314.49249617893,610.249829662083,253.428650080518,-33.8066219239499,1424.01340207401,-81.3368491175821,285.110203807219,37.3273204856876,823.769192013945,-34.4663524670968,703.41241820806,13.7579439821408
367.476041357634,73.6449090363771,470.84792392632,7.59118442028069,741.435980704003,22.7916714979196,1391.73290266604,11.7387845841345,924.420716124851,53.5416037811255,1294.52233813402,64.1049943782329,2176.07347857627,-211.773645253817,1618.44609180217,-106.434041559509,1021.73068811738,-87.8310909435023,1229.89419448996,600.431045303139,243.22083625617,-31.9176251147502,1365.41030265419,-71.6008560548726,273.251277222719,38.6262701508701,792.79156936534,-29.5086085538256,688.808848254766,16.6322229950944
366.435598846021,74.2443771747917,470.819674518546,6.51042786413148,741.183090852903,23.1479727618844,1391.1933893812,15.6750981159044,930.789701538231,53.4700719034214,1300.57554178584,62.935205115247,2180.55068565093,-208.546768072518,1622.91667329817,-107.314352499971,1026.08452478086,-87.5193772945205,1252.41409691689,604.49229564186,245.81593912131,-32.1344641050825,1381.39736908424,-73.220336828273,275.948965356839,38.5536181836995,803.091312275882,-30.8622231511132,697.018692760868,14.9731161959072
370.286919584327,74.8055143649985,478.836568559588,5.6417943463438,754.445420511166,19.7879704522878,1409.14932098224,13.6327948795533,943.103633515285,52.4311712086568,1317.38347596824,61.7387376310746,2209.62048363445,-218.973398478379,1641.95779324441,-110.457212546824,1044.37239176896,-91.9447303415281,1291.5522135924,609.766834819272,250.517754926561,-33.1221729538679,1411.4536227113,-78.8576744746246,281.433630381536,38.2787936490013,821.821849695713,-33.9087242555719,706.306986183226,14.1120945349252
369.831478734598,73.1562733502754,471.830954372332,7.25541042792928,744.579681699702,21.3133492071335,1393.21961073967,15.7073810053041,927.03695829991,53.3626970594572,1300.84689184078,63.8969736114784,2176.49487465241,-210.141010751341,1619.19115729371,-106.214821827924,1026.05044471631,-89.5464222274636,1224.09029970397,595.749523101379,241.708583944192,-31.2370723199097,1356.39585930778,-70.0344954339513,272.457803648236,38.4790671022213,784.193532528707,-28.1859414143552,686.233703363757,16.2368799741519
366.100040868911,73.236735097351,471.680913242111,5.57258910038845,736.926050972462,23.1281137379866,1380.91912770337,16.0643319921249,923.42956564487,54.3101483610231,1293.85483755002,63.1014985339283,2171.43831798553,-209.275423088747,1612.7860058134,-105.495756110546,1021.00932689491,-87.9214693027677,1233.95432292788,599.053863952486,242.174136588161,-31.1975128419289,1363.44587544748,-70.5989050751623,272.837054684103,38.4490990875804,792.3937255414,-29.6062857166479,691.590170763739,16.4581492539935
368.073227777279,73.2211212191121,475.488337668369,5.92055525849757,744.987858806781,22.0625064887655,1393.04157422878,16.667545083113,934.857264356231,53.541911890759,1303.45874262035,64.0326312693896,2190.90962139282,-212.425599512411,1628.22801180324,-108.794573891974,1030.58443579116,-87.3656158707151,1271.74450806002,603.278847840409,247.998192024824,-32.8069147275939,1392.66385425577,-75.4348412951995,278.424124203468,37.7473233821292,810.432863183674,-32.0547313492918,701.70252614906,15.6656975627998
371.887708818407,74.3977118450584,481.173651123718,4.76923700908663,756.592513576634,18.9705821928915,1418.46784633791,9.87076187138579,946.91562698323,52.0025751666191,1326.11595292974,58.5281326512721,2215.04309002232,-218.502982415854,1649.49122004604,-112.170973679123,1052.17517649666,-90.8401833956063,1300.38181334715,609.591141435685,249.825659489391,-32.9097228399885,1401.65806647984,-77.4040032750832,279.813102786531,37.9801854359509,802.089663758585,-30.7455399632512,693.770232571924,16.2282516167462
364.877467091684,72.3888027735953,469.908189497555,5.41889318637025,737.771259445969,22.1422340089721,1368.25253292797,20.4830991891819,918.22932648936,54.3977905552727,1284.52000115738,66.6803558859697,2154.899460765,-202.911267825566,1604.53652730463,-103.691036106491,1009.96587566115,-83.8023626846073,1216.94132906558,595.407458695593,239.693171319401,-30.7859470541819,1350.4070967469,-69.7931882184167,270.441495229628,38.437328140569,781.775638303095,-27.3887027782788,685.450353129865,17.2851470424063
365.077179356221,72.8805394351519,468.679542588469,6.3159475446115,738.177887860097,22.0246301266992,1377.65569488039,17.5420523655441,923.541418030734,54.9728919100582,1290.06996177094,65.9044816403411,2160.87185283503,-206.308349131035,1609.85617506299,-105.562875203905,1014.55888079657,-84.1593145815814,1240.21187080184,600.504566532955,242.969061425706,-31.4706044747764,1367.60075212439,-71.2387457315604,273.215614093498,38.5875819184049,795.244307442276,-28.9156494622669,693.868065589583,16.5608205391141
370.508892225189,72.1381513173474,477.311812102848,4.9123006021879,743.120060955881,21.8026325538498,1394.74612536915,15.6866775848481,935.709040712752,54.2152983099932,1308.0100807992,64.0201570019955,2191.66606502957,-210.965247647146,1630.65760136408,-108.762244738853,1034.88367304552,-88.3021912386799,1272.63534757019,609.245464512612,248.184988821357,-32.5751357945074,1398.48030581911,-75.5734295795318,278.507450750147,38.1950839871752,815.369119382659,-33.0625719467551,702.702124790323,16.1143879105842
373.944562791102,73.3418698131935,479.177139366983,5.71223472452335,752.305071663942,19.0047291810128,1408.93436760736,13.145757674476,929.195796351249,53.6758705975011,1303.8918773168,61.1688916988573,2180.07104239744,-211.849792232102,1619.96285092312,-106.448329939266,1024.50401667199,-85.9596619831679,1218.75109416039,600.905271563911,240.843238619337,-31.032154050451,1352.42293023251,-68.4970037428519,270.645721877182,39.1871702967227,781.297102516285,-27.5587029944326,684.716357068351,17.2643624556485
363.766269162637,72.8158057793837,463.524923067477,9.03584226012553,732.293579841583,24.2683687452251,1365.37731321496,19.1909360770945,915.500226187701,55.8851467302674,1283.52488256702,66.3967905847099,2144.98753501108,-200.221420282221,1599.15790483756,-103.126352674606,1002.54300240118,-81.5021277893226,1209.29094590841,596.439778932044,238.481998954961,-30.4608866309175,1341.91241494422,-66.7458084088753,268.476433910603,39.2213235318941,778.917501466307,-26.5889391621216,682.68980301327,18.4193202940261
363.900422337244,73.2108039719247,471.078197821205,6.68980640364087,734.708019707861,25.3432102570021,1375.22378207504,18.2939418199029,922.64814077896,55.5201507878459,1293.22459376108,65.7518144730233,2163.95962991413,-204.308039768306,1609.29894376157,-104.792529136973,1014.55834154064,-84.385231509101,1241.93047164937,603.72938183368,243.471361844767,-31.4850439536497,1370.56379950518,-70.8668445911424,273.019118676819,38.7280346408194,795.501955967363,-28.6738026813987,694.234551234804,16.4526971920966
370.861624140408,73.0893938938216,474.496386123019,6.43675649802963,745.599938547107,23.0859704753912,1399.49461604118,11.4569882907162,936.233596556734,53.1912056914113,1309.60194144497,62.1137289384911,2191.16737617814,-212.604352997253,1627.6914174942,-106.972367439232,1032.61810235704,-89.6087403268677,1274.11452921488,611.047486785061,248.5994492721,-32.4543299324434,1397.55491605282,-75.3359916154022,278.216011504107,38.5376549384294,813.96571586448,-32.1305987133671,702.422609286946,15.8332889562771
362.412008787049,74.2684604959312,467.758299778051,7.36125199396232,733.006896554708,25.6561545179055,1369.66106099386,15.9216607253214,913.390960206135,55.2670160928489,1285.02685438685,64.2398545416735,2145.70852719348,-202.053692649424,1596.27587136363,-101.70967275959,999.729919362975,-81.1612397400815,1191.36803567986,598.229553982892,236.1849046823,-29.6849744618748,1331.36232004841,-64.8470927452088,266.765234283365,39.2372219360409,771.581653398191,-24.7673002425216,679.546255435507,18.7110937851745
360.905196644586,73.8440071156065,467.067342521008,7.87246122916139,728.800097140337,26.0693649359937,1360.48104470139,22.6099056146478,913.937626924473,56.2144886621594,1278.09566958207,66.8295910475933,2146.60162266057,-201.646854055454,1595.33357198779,-101.7493728222,1004.20138504117,-83.0572584695953,1214.86737214809,598.040097096579,239.145689286007,-30.6009484800818,1350.20669273962,-67.8150027182833,268.727311974633,39.5527669244657,785.327917946357,-27.7928940094821,685.086832838859,19.2522948818778
366.295229720338,73.3834973040748,469.101597876191,7.08935094886299,735.854556705802,25.3567204846162,1379.08363886312,17.2679231296697,924.737376264227,56.3873272600276,1299.16276440305,63.1792677145365,2167.07799041898,-206.999114842243,1611.44932552861,-103.904628610982,1019.22907552013,-85.1267850563733,1249.36835267751,604.176003379932,244.035811731612,-31.2504451166424,1380.38643057897,-72.7884079522567,274.178654429178,39.01472236131,802.567869039783,-29.926946445354,694.817139571641,17.4028614129166
368.491288874241,73.8710685878297,475.690255064314,5.95948265285634,738.221990570254,24.5802946062679,1386.90476629418,14.710504924614,917.737514644945,55.2769246805322,1284.32262168647,66.9635472414307,2149.42622295554,-203.07534874793,1601.68833543131,-102.630144018468,1006.64577881273,-80.9747688560775,1194.61340210036,598.269770197305,236.99714296735,-30.3771813070538,1332.64732906098,-65.0075083040883,265.937535490931,39.8903683972372,772.007513272825,-25.925623317822,675.020031977845,20.0479747255338
359.11153994876,73.5106876058646,461.69099475655,8.62687854480816,724.273412043453,25.3086533255456,1341.1008960338,27.9508647123045,904.302525657269,57.7206913308435,1264.93614350593,70.2795183452099,2121.97404181287,-198.855945461661,1580.69745154043,-99.2089227322076,988.706625655036,-80.6297265662037,1190.73397244244,593.649195898342,234.899585630376,-29.9750647431404,1322.89835451509,-62.3659706427578,264.240601129994,39.7374068175634,769.421857344546,-24.6619443768929,675.452998392708,21.2536096003187
357.689576323236,75.3749920551775,465.400425116592,6.31992896092055,729.769412534431,24.6344288813758,1355.91112333049,22.057447860284,913.225734702835,57.3360745306981,1273.80548474517,68.8669535919726,2139.94689214679,-200.88241605891,1593.39405285207,-101.57618685117,1000.97516227603,-80.7188783233841,1225.68370181609,597.270221373998,239.732723797281,-30.7640040418008,1353.99266318045,-67.6299118755302,268.762193229498,39.6971192468288,788.590510040924,-27.6219850517139,685.587303108512,19.9469034672935
363.663050706406,75.2500873744369,468.571340130769,9.17896734550476,736.303025835733,25.3580051550236,1382.13249101007,15.1390471134213,925.805175690346,55.585868118705,1292.19784108798,65.5269599449737,2166.29753135407,-206.18967702473,1613.56128258334,-105.450936792741,1020.55918667439,-85.5229473832152,1256.22788236137,605.645143459001,245.498023733203,-31.7314171623756,1383.04367480694,-72.2651194152186,275.002059556585,39.1562351447644,807.008879610545,-31.272106305079,692.564077688403,18.4735217757089
357.047890806103,75.29568037025,460.641188605006,9.48550495954504,720.343702928636,29.6169814727186,1339.70841404672,23.1789084089562,896.672463879154,58.8401054354608,1259.55734183551,71.0692020735055,2106.85629301347,-193.300137635087,1572.98243581099,-97.1399201903539,975.923367215282,-75.3997345246232,1167.54514280974,588.506074477517,231.48761409338,-28.9338973562994,1302.70209890911,-59.8798343509237,261.3636300435,39.8359931792173,757.364198142071,-23.1117169232814,668.775072077304,22.100310061254
356.228897789643,74.4384976943991,458.207620110338,9.18989516325016,722.276741428022,25.9694071994166,1334.32753916512,26.3180293723004,902.347274520009,57.7345829853642,1261.4522414002,70.7061182351345,2116.36740124097,-195.382408522947,1575.48136993835,-97.7643147238882,982.158459899503,-76.9645961340728,1188.81292884186,596.218539310047,234.417555117233,-29.2440826779328,1324.6459278857,-63.1807162078812,264.221777815837,39.8981730766662,772.429358999826,-25.2056315418055,675.920000097807,21.8645514460453
357.936165614945,74.7053397595592,462.95216622247,7.82399056716937,730.146522771362,24.2521443709415,1354.73850149043,22.9054912035755,914.990620139427,56.7927291905828,1272.04789233918,70.0506348665438,2134.43190240089,-197.341938076031,1592.24524589004,-100.892491301729,1001.2412922828,-81.7810287100552,1218.39653225527,605.910563003147,239.691440084242,-30.7187435678764,1354.54219984523,-67.2110398798557,269.144030517494,39.7741772139884,789.977599440804,-28.1390669490597,684.99663178037,20.7037575301815
357.892871569571,74.5646226873894,461.997791472895,7.82107650098692,725.370000557409,24.708150924344,1343.02286367928,22.3713625999516,898.872665948723,59.2682387677214,1253.82443329223,71.1240769624545,2109.35949878369,-193.944931752994,1574.1049998649,-97.2223975946227,978.108018346323,-76.0905009300721,1171.29174866231,587.156119929922,231.102642540738,-28.5662954483253,1298.30168167335,-59.3255014199887,260.556210832925,40.1245407440394,751.21055343713,-22.1723760017199,663.678966035952,22.6772479091027
352.383716896624,73.7798381800103,453.739165950727,10.5807286174883,713.357715489139,28.1864197333014,1323.70927956221,27.3550777181693,893.546865546367,59.8741679909891,1248.34055730812,70.3819144971526,2100.3557219701,-193.797674979937,1562.99564560013,-95.5794531439494,968.479573310668,-73.5022783808133,1168.40349585637,591.636144702618,230.877879193442,-28.5762433095293,1303.49073865957,-58.6157111423844,260.162868341498,40.3139389253415,760.153254647649,-23.7417058703322,666.977664729664,23.570255030339
355.545761499158,74.0189817631545,457.688601433756,9.50696159084374,724.757545776718,24.5505518462938,1335.49077023283,25.666767161406,905.804863284192,58.3457080822393,1258.93321266544,69.7790719639661,2120.60521317259,-196.572118249446,1577.4652303475,-98.1437400130403,987.64960789574,-78.2328607839615,1196.98281424517,602.300914407543,236.777218105769,-29.7424775791511,1337.06392522334,-64.7305220578111,265.898182047903,40.166453909132,780.580638951432,-26.6183389193767,677.80957888541,22.335944630975
361.081835643945,74.2214837997289,464.251115377489,9.25817190363401,733.477616402707,26.0041873449057,1361.47957191374,20.9204395039022,917.625496130729,57.1850293724653,1278.91578435665,69.201786028376,2141.36022040158,-198.073215568769,1596.51100341997,-101.707885996379,1001.96274761817,-80.3776347156164,1203.06807391413,602.618606523327,235.814395974168,-29.7296815031133,1325.17536769144,-62.1697042987863,264.930479274725,39.8949027095898,764.262903784135,-24.0475908099032,664.969007793072,23.1341908227139
350.39912872308,73.1756050451844,447.899676513094,12.0672690982232,713.059374896416,27.2398601192487,1313.32577284041,29.1176367224115,886.531793546973,60.9130730483682,1239.62882954064,73.5653415923429,2088.53128059402,-190.395699366572,1557.10156208014,-94.6335036723493,963.60246680376,-73.4466378544116,1152.5112533872,592.445420012751,229.744750417765,-28.7840111637045,1292.50497614234,-57.9623611462527,258.113924787367,40.8088454197907,752.543781584991,-22.0098428673538,661.12280703101,24.8686827832829
351.166580305039,75.0012127925343,455.053044178711,8.71564139583338,716.903095996854,28.1899925175036,1323.53885054204,28.2209566045042,898.244762646322,59.0725397983631,1251.79955898102,71.7467174562223,2102.43239752703,-191.707450773582,1568.1841031395,-96.5379503122085,975.160151977817,-73.9591954613308,1175.04340249585,603.341467169803,233.99935790452,-29.093826388645,1322.06783347406,-61.7133109407371,262.727921962509,40.4522135339673,771.589786155055,-24.6202211767887,670.806026553542,24.5872966739517
354.709366177371,76.0868834707879,457.360063307305,12.4580155175323,730.250954365267,24.9778249750536,1347.44281188979,24.8461493740523,911.910689069422,58.0341470754985,1273.29455205568,68.1591400473514,2128.13760426778,-193.948332138162,1586.94955443006,-98.789554982689,997.495693504063,-80.3984178918866,1212.17115715652,605.690083294025,239.848183892298,-30.4094071170046,1356.87107721561,-67.8813015355876,268.186081990839,40.4124289385657,793.299140992247,-28.7865901310956,682.48263188918,21.8294093365287
350.080765020351,75.378455385189,453.241080319565,10.4547793548318,718.108063172395,29.4121183528889,1329.33801666609,23.6981447515072,889.466321246064,60.4447796703539,1243.51420069384,73.8701005764099,2086.3502236609,-186.713673636747,1562.63654289521,-95.9635142561006,964.437730334315,-73.6011351967069,1138.57517220569,592.431266601373,228.051405419398,-28.0305643890502,1278.27997514695,-55.0791828638855,256.543341126921,41.003995739331,741.698183860421,-20.7538904146225,657.344831990805,24.4768797418574
349.14173530621,73.8942599592914,447.296666602609,12.1681595620267,713.980352659483,27.4489960315516,1315.31849439121,29.5235686736571,889.089026565021,60.5486886899361,1241.85607478292,75.7335815315319,2087.95323417466,-188.073029072789,1557.38710755822,-93.6903601797213,966.066378450709,-73.4634940652831,1157.66251665689,594.280786018805,231.675875395176,-28.9992309524656,1302.22401901131,-58.1749509799212,259.395223465901,40.7342594062989,760.28758139801,-23.4365551874321,664.86408803614,24.4439508048733
352.333908903776,74.557029104627,452.145017150124,10.5930123260489,722.670130625832,27.2998654899491,1333.36889843189,24.8060324797481,903.434220674932,59.8696109677104,1258.247279611,71.7090985944073,2112.84494562667,-192.73731867548,1576.97380295302,-97.2610599003615,986.336871948077,-76.9500276419234,1189.78452854952,605.886565079983,237.068381544154,-30.180948323406,1337.67644465594,-64.0941028354362,265.969503151019,39.7286281514026,781.637129178677,-27.1772147392059,675.666551814768,22.4836944575347
355.134700144986,75.6330204519388,463.789890271146,7.15641704263556,733.001447422016,25.8367031710999,1356.34784136562,24.0500363985596,916.139068494558,57.4111736635659,1270.51444633319,70.9635565057559,2130.0168130586,-194.460893781265,1589.26676024952,-99.2464862044747,1000.6549331222,-81.0816078860614,1186.80005781666,598.875398945514,234.179889057649,-29.1837813465482,1314.74360312683,-61.225841513903,262.867329025919,40.3207276082967,760.083894299505,-23.7237216334899,662.795020202296,24.1062487294499
347.081278019978,75.1114537843142,448.420441870873,11.7435587221619,715.03392598471,27.922516615136,1315.49613092961,29.1172012680457,888.989863071827,61.0003111554701,1239.47273686731,75.8832372485505,2093.68737703502,-190.582375358946,1560.54559685069,-94.6835603085969,964.60849965971,-72.1826059117697,1153.11948886833,595.95948754677,230.442884682263,-28.6971879863925,1293.4331803535,-56.8248806933775,258.423464369039,40.9226267507294,753.678757362481,-22.4172747672712,660.134455299425,25.2047681553608
350.861724581921,75.4855525716132,452.493256573238,11.5223184101824,721.37441784069,27.3070738302185,1326.49803803285,28.0690333932117,899.686291079768,59.7833233651949,1254.35921644145,72.9340588669431,2103.46851565915,-186.862755618554,1571.83920248679,-95.99635683439,982.927585007156,-77.5789140354132,1175.66443013819,606.618782443436,236.119144449808,-29.6499068298772,1328.76019509525,-62.6137212404668,263.321446284822,40.6087160325876,776.349772656308,-25.9688783810444,673.405738495767,22.6625548010375
355.366507111175,74.9702254726949,460.349981266264,8.36443451120584,733.232676361305,23.1216217221409,1346.67218072994,26.0260239695246,914.134372948525,58.1204016857436,1274.37858688793,68.4084611926192,2137.28941004806,-196.417520014546,1593.27283507308,-99.8086769476256,999.836600527538,-78.4224337717915,1219.52516212625,608.561823223186,241.877390835919,-30.8470244242215,1363.77859321139,-68.2091183314482,269.911256176964,40.2419629953751,795.419583984817,-29.1118027596554,680.925885845625,21.5279733186873
349.75051525876,75.553601578953,450.661246370623,10.8155859909497,719.265512834724,27.758993187384,1321.91356368244,27.503358416295,888.715212568514,60.9634271603771,1250.76797603999,71.811109682666,2094.11708830851,-191.822465100477,1562.60819554922,-94.589113254061,964.068512861208,-72.3692050790665,1145.52984556633,593.68840543951,230.096253471195,-28.3086389708953,1294.16632804304,-57.8153768321244,258.880834341795,40.5328094519937,754.784473975529,-22.6165059899835,660.96390768076,24.560496452151
349.911214528184,74.0251925519804,451.662749475326,11.0732224970528,721.384140753889,27.8777457721255,1324.56509507867,28.416159249605,897.283704198126,59.7821419147151,1254.81439185391,71.9195590955857,2107.52520708231,-193.043414417182,1570.55216952141,-96.7132734189093,976.899801356876,-75.1573706099361,1173.97614221252,600.302504418006,234.671398676337,-29.5922454911276,1320.80212793011,-61.9341242306739,261.990954239694,40.8363784676018,771.535090799473,-25.233312663327,669.34617019712,23.9550137501081
352.460975307048,76.2993138862451,458.144077613127,9.81600425003259,728.426360422062,26.6461846682485,1347.39804698063,26.2029400354626,911.467657153092,58.6314241439957,1270.35890297748,70.5835424798145,2136.6369377781,-198.028721538392,1592.40370837598,-100.223500216382,1000.46001031483,-80.8067530203845,1211.35349625826,608.56356117965,241.187688917488,-31.1310470375575,1358.2844862411,-67.2116564479343,269.271578655447,39.4586253761491,793.860977649539,-29.2845122709709,680.953572231941,21.5642521691743
358.402432499356,73.2677557293354,460.321171399505,10.5820516753225,728.579094367846,27.1342230018728,1353.71227021499,24.3052961307363,901.933689077616,58.5000789158705,1264.10434698958,68.8796542793786,2120.94482625814,-197.487788996637,1582.5082103188,-98.570007509706,984.008770389525,-75.9062339530388,1163.1159870466,593.271293161574,232.80532557411,-29.3507317136258,1306.65715913697,-60.3042319761985,261.344025471435,40.6846303758511,758.038802370336,-23.3825530531576,660.527943193828,23.541201201289
349.198451254425,75.2740700793019,451.706936440553,11.6245497395386,719.716633189894,28.0357572862565,1319.91888173556,31.6829985611387,895.722448500124,58.9420812715903,1253.09872324475,72.488529280524,2102.7583305503,-190.645177918139,1570.83907765116,-96.0373002420705,975.799463886097,-75.8399940195676,1162.33108988328,594.494878315293,232.684032312282,-29.2626475591172,1309.34806014523,-60.3251543319625,261.21950184311,40.2141854234689,762.785538015326,-23.2903018532622,664.347175210413,23.7284568885743
355.499958632299,74.4456246805185,454.061387885333,11.8896051081091,721.980426200117,28.4505932010516,1343.48945125728,24.1129969784849,907.883993695082,57.6611869080458,1271.78207414633,66.1714637603373,2130.74510092812,-196.344459040537,1589.61708816113,-100.025827164062,994.607635350956,-78.6055996505613,1199.54289173135,604.945632887469,238.943569984093,-30.5225521373427,1344.57623411437,-64.8616372530495,266.943501531506,39.7875150787075,787.114289379389,-28.0203901546691,676.93815740608,22.030958125159
358.192933570785,75.5995034486001,463.73831115503,9.5012019068968,734.308885542851,26.6873516810442,1364.86449297112,22.6349660829746,921.119300455698,56.942313691022,1293.00685200283,65.0754822898774,2160.15968523428,-204.081497115988,1611.65126877323,-103.576507120435,1014.22651487159,-82.9864520785105,1240.34140699016,610.51111971915,244.92201223115,-31.8723641841981,1379.33424935434,-71.1981150420329,274.142794351894,39.1889360757628,807.164647240048,-31.7425974458243,685.420832834954,20.4078727192494
354.995352958863,75.2019082684302,456.457748849529,10.2823107665851,724.22637586581,25.9833702002667,1333.05465895735,28.9098212042037,895.985832393915,59.2753980904182,1263.07716836036,69.5282851820777,2110.4503017623,-193.833856321467,1580.35400770873,-98.4471699247535,977.28250119453,-75.517077176818,1161.15463167946,593.87552478256,233.403409286765,-29.4042363710718,1307.31510594577,-59.6233534987384,263.084447061395,39.5599896319818,764.198762474521,-24.1053008174899,665.34063456407,22.9146908472967
356.607682897771,72.6034134349493,457.776212225563,9.56000633227562,724.933806467949,26.4079498041612,1342.7568041446,24.6130594166504,902.953990600748,59.2460584187321,1270.92979602207,69.452971771305,2125.86167920059,-198.477374154255,1588.615901896,-99.5991803926169,989.857234012908,-77.9415948504392,1187.49241070147,601.057149981471,237.903900358705,-30.4224906401345,1334.33488853464,-63.3662649712136,266.39619540934,39.861260440735,781.278832211515,-27.298882079919,675.020953473623,21.9229638494134
357.711749208724,75.5458097096134,462.35398558716,9.54155475347093,732.131809928885,27.5760929686901,1361.51556769574,24.6852780624679,919.32709700469,56.6590096096358,1286.84053996256,67.1245350769262,2152.81909167158,-201.755723640136,1609.96839906179,-103.726058083277,1011.29541952957,-83.0656620943026,1226.65453350186,606.888594322171,243.231408080763,-31.4670605877504,1369.08965773754,-69.5550544989887,273.141568444009,38.7363352178531,802.243865676529,-30.3514666742901,685.169826338226,20.5536186286483
358.460849841581,75.7061106972185,460.103788912703,9.05589597710246,727.136748196538,27.852755544835,1355.1975657303,23.6458326307436,905.076344190663,57.5493512909804,1272.58506952832,70.4457734927088,2125.15145314315,-194.792364941589,1593.88911978478,-100.163062194128,989.508494038365,-77.7526666999612,1176.81395528469,592.136196821937,235.121532863761,-29.9469595409106,1316.70221821549,-61.7688165399542,264.451855674018,39.6651902448367,765.686798054962,-24.5347822622892,665.226553716624,22.3082797458758
354.138722829521,74.7338082733346,455.073448162381,11.1679133706136,722.494158050663,28.1828220216439,1347.27229251772,22.4459207347848,902.521365493559,58.2811612953243,1268.81419838072,70.7282013487721,2125.22549874284,-196.547995173785,1589.66058863338,-99.4948651045799,990.8132951213,-80.2873153666657,1180.47035291327,599.551473553135,236.837985293226,-30.4278658322652,1329.84509249252,-64.1722502453291,265.680130884735,39.7957686230954,777.473235037981,-26.2561554161508,670.544314657089,23.1142752397042
359.358528057094,75.0753051215222,463.327306597266,8.8121422570307,733.088276796935,25.357177110277,1365.52092186337,22.5654912170315,915.583633205087,57.1916338251582,1287.20316058279,66.6996357958534,2150.4792905258,-203.725854073257,1611.35314790134,-103.643378362771,1012.06429285561,-83.3683723941832,1229.79346838467,603.898758424454,243.331906502118,-31.6145510834915,1367.63927408555,-69.1629810969219,272.42780352354,39.0544443987265,802.325063618429,-31.015440045575,682.825189050166,20.3397566691372
366.124503513405,74.0427589298187,471.009566245336,7.29069642210379,744.315582751447,24.6442768125616,1389.35052404972,18.4562177152829,930.214426682276,55.3916028134644,1303.49958594687,63.7775174920342,2171.86124437405,-206.169167011683,1624.58401993911,-105.025472835093,1024.27706492163,-84.8270314725868,1217.56985370787,604.042607450432,240.521216856591,-30.9563855997148,1348.0203580012,-66.6958046830926,269.714449614219,39.5512246646499,780.747990458839,-27.1484487527702,671.788765064611,21.52538115635
356.775135690177,74.7948590108702,459.331230262098,9.86943436162224,723.86808244493,27.166776672366,1351.10878809448,22.8293089491675,902.430132475122,58.2454396642736,1271.70965906137,69.1959923272614,2127.82051312392,-200.571463909525,1594.31555615825,-100.176560668037,990.389073911504,-77.8992829581619,1177.21910978957,604.239978391713,236.370127337277,-30.1152649504762,1328.41867389149,-63.3845512117294,265.689115919186,39.8913727497064,775.999079710213,-25.9341332133793,668.294602755887,23.0159480595461
358.761601762245,75.0398743694465,464.504528760894,7.99825578726363,727.416981535495,29.1419351022489,1356.62850485442,26.4370581103613,912.068737875915,57.558069430292,1281.04306450947,68.7797947157462,2141.77459819289,-198.323616540593,1605.31174231631,-102.662632952337,1007.06293252818,-82.3820853259999,1211.11497951671,605.607488099171,241.827178934002,-31.357682288721,1359.127025035,-67.7270795095505,271.568755614239,39.1120641843619,794.219421145825,-28.2134663459117,679.959827422889,21.8234206579639
364.649020196921,73.8980020235773,469.316088868093,8.91774314061848,744.132685197725,23.2841537170066,1391.4652167246,15.6162174512308,927.31510505684,56.4278717611647,1302.99976107253,65.8449327496179,2176.15921338103,-207.99594630218,1630.64330985415,-106.565947110906,1024.23974640094,-83.9123414481831,1249.83995202281,611.454965320013,247.534810339289,-32.5005534340366,1395.54933454339,-74.1675489595034,277.428313771403,38.7373722191977,816.610911434717,-32.8085710198529,691.697254376556,19.1144702934491
360.266357761281,74.7436700279274,465.749242394606,6.46436235711699,732.832485149814,25.8897243220165,1365.16631954767,18.8355766551132,907.194107241516,57.4431262685422,1281.83263185916,66.5387963413665,2135.32414309551,-197.530840365004,1600.99434368681,-101.389062054852,995.908113654668,-79.0851341446311,1181.25928615465,597.848206689486,236.89343722093,-30.221931338019,1327.37467722855,-63.7924500431855,266.483030363078,39.6310276487991,773.438268701216,-25.749654842814,669.693979028287,21.8947504685206
354.874380402925,76.8069633288923,462.368854564641,7.85006301474799,728.322549440216,26.9716073867248,1358.3197759722,25.0896078755412,908.858314179853,57.6941979923117,1278.19760503449,70.2009649260714,2138.78282669047,-202.113163807287,1601.57249075713,-101.463771824395,999.596599813463,-80.2561938398268,1204.39398485109,600.427455689577,240.575051578186,-31.4672338779355,1348.1078818879,-66.0072821813671,269.396343826089,39.3906828380266,788.555018798578,-28.0092258488853,675.268326095483,22.9283018126816
363.236873307006,73.9111924999223,467.096376509034,5.97961177439116,740.243052179609,25.1612504832173,1383.17820148097,17.0104215726831,922.610834068356,56.637584810907,1293.93489150312,67.366225931937,2166.10390401573,-204.673471699492,1621.59327889164,-105.222629462947,1019.42311855213,-83.1637648182398,1244.0009313153,604.878461170074,245.633571060256,-31.9044443299353,1381.83048332195,-71.3641359638515,276.060394799778,38.4297195827066,807.64510477508,-31.5782173378162,686.647324343396,20.6488985845694
364.488738806828,73.8508247746653,467.898731774339,8.63687980470128,740.839296889843,24.367400766753,1377.93821107308,18.5126275590169,911.876403681885,56.1459042757284,1287.11045817925,67.279927195189,2142.46466423893,-197.674155788723,1608.8528744623,-102.969510692649,1004.21098431748,-81.2393230009517,1189.50429579766,596.852633298442,238.332103255379,-30.5279857778099,1333.50810716196,-64.09709283564,269.050671569571,38.8935578182436,776.389483321408,-26.2471422721575,668.0686800158,22.5880356736225
357.309975194459,75.4554778232555,463.272482425129,7.71174907406087,730.613224127724,25.4467568673208,1360.02997849777,21.1190000169197,906.728048765357,57.877680823696,1275.62472566736,70.8483681576586,2133.90395090518,-199.106011330176,1598.49870156637,-100.810319553123,994.334042125807,-78.8743642669115,1190.2996188293,603.194034256194,238.828183031689,-30.5972555041351,1340.15323888192,-64.7764129632222,269.003573872648,38.9106535000328,783.474621439796,-27.7401356606806,673.04241730348,22.480575273208
361.05690778968,75.1590833532355,467.527795262081,8.43943616952753,735.399651293283,28.1281128287684,1374.14897328017,20.8747073351181,919.06871249236,56.4802542161504,1292.32737378311,66.4912291101931,2159.45360415664,-203.414098657517,1616.43492092047,-103.774676692792,1015.73377918971,-82.9058055036442,1236.88406020383,605.114233750891,244.912988483808,-31.9275882729797,1377.60295503574,-70.9285065871263,274.230252524719,39.0459257820002,806.195990417767,-31.0414691578516,683.748118396538,21.4314755239172
366.451847572162,75.2964243414878,472.503175344105,7.18162136393821,748.551510609048,24.7069562193894,1398.62531442788,17.4081633646546,929.989441270579,55.2918437307158,1310.76226614621,65.1005013804766,2181.87771157938,-207.040353271714,1632.82144226516,-107.914397919892,1032.92088901541,-88.3037663437103,1240.69257840779,608.497964638673,243.969729932811,-31.6944584070539,1366.98127406841,-69.4606734359345,273.215009390662,38.5208987592822,787.593251493807,-28.2027291049971,674.418737988091,21.7589798266482
357.37203289242,75.4811721378552,462.136230868958,8.71632170632852,729.641806179813,24.7656451938302,1357.53904358994,23.4219818185329,901.596416665514,58.5210930835299,1273.15222128048,71.1253311454474,2127.6741574652,-198.590867292083,1591.77748728129,-99.5472366530297,993.524359113406,-77.9411035254277,1188.94320665825,594.579191016858,237.570206431203,-30.2498465831553,1335.08194964264,-63.5097972686683,267.16393269267,39.0929808025053,777.701470262068,-26.0206834795527,669.03693990556,23.6698774921093
362.268162834271,72.6013755021617,466.29082384005,7.26455107417763,733.808881690702,25.5065147763727,1369.20667991126,21.6433588609906,909.482699033837,58.4959786037741,1283.53948654233,69.0707467828121,2147.25865766339,-203.38489395421,1603.25847956872,-101.018889052597,1006.59568790282,-80.5275794976548,1207.41570999772,607.211612644665,242.002910766368,-31.2364483382551,1364.51554325824,-68.4976762881032,270.624776934074,39.2120971423433,796.46241229767,-28.9836600888204,679.546073237129,22.0313912563648
363.25477147834,75.5024064774529,470.476961520527,7.53002909781655,741.28854685192,24.6395487541071,1392.93779730632,17.2214622356558,923.499962544843,56.550724342604,1303.66473679758,65.2904602872125,2167.75015340302,-204.333631954325,1623.66824578705,-106.011433478234,1024.91772656258,-83.7841774588222,1255.04832333674,605.306321020952,247.389165084928,-32.3383419484892,1393.24604176646,-72.732482387714,276.67393862255,38.5875556623163,815.411893713922,-32.1513971001729,690.56407782015,20.1952409346027
359.312682654932,75.4375357206798,464.267269532448,9.60472095689572,732.182571120435,26.7638907530886,1365.88085073479,21.1492639562362,904.840177458553,57.8147193017451,1278.57900844974,69.6353794958144,2125.4056382466,-194.805388435868,1594.72999283394,-100.357497368662,992.696645088843,-77.7726061997756,1179.83315393777,594.934084507923,236.555461742732,-30.3009507491574,1322.31879221365,-62.5725463435964,265.913333450346,39.5814223629879,770.280391907741,-25.715982252391,666.789354692285,23.2149807579337
358.381467766051,74.5241026553687,465.738170189653,7.60753051462024,727.852038157969,26.841144563264,1361.63133098795,22.684267029841,905.294959542026,58.1508470074861,1271.47342538619,70.7524513810309,2129.59703270393,-197.115483493989,1593.77491847468,-99.3484361375817,994.82474043495,-77.7316814775047,1188.56680901795,601.636193230922,239.12952703785,-30.899390937303,1340.63781095759,-64.4025441569168,268.606315488799,39.1793551148584,783.967391200398,-27.0724262909674,674.698254131112,22.7746222462972
364.438293491462,73.4756740487474,468.740338668038,6.23233557615761,736.210740303113,24.6879154958692,1372.37202374732,24.163476851964,917.038868405461,57.9193792363102,1293.67965398797,65.592208034786,2154.15902538143,-199.51199021647,1613.43318645037,-103.395169059296,1013.94484186436,-83.0706493211166,1238.94304203881,601.630949095894,245.084872132496,-32.4079242364262,1371.03879536112,-68.7471643626429,273.897633781764,38.8194183865726,803.37860794456,-30.4200062168614,685.850734110945,21.3763387895149
367.333447501878,74.464250928439,474.621248302371,6.82615064371634,745.477206013106,22.9791048876893,1393.71766816785,17.7599645818864,916.428957336887,57.2328542588452,1293.26830905548,67.5673112762704,2151.06120011099,-200.339060084923,1610.86349378958,-102.831507297142,1009.08703369309,-81.2069586228107,1192.26276979395,596.320350184824,238.633323935551,-30.666612902965,1336.8575364808,-65.0892980530423,269.069739293667,38.9735276997911,777.298432504679,-26.5276135752932,670.708921927332,23.0887335199145
361.199662581622,74.1323185182849,463.930457984509,9.87200312501347,726.627840570038,26.9452737961999,1363.02498603623,20.3831461348093,904.917940223742,57.8812701645949,1279.89162440977,67.5773440987966,2130.98651601063,-195.914776162216,1593.6493551665,-99.0957172542583,991.650237760427,-77.0056814242654,1181.82507024139,602.24170936915,238.025535209964,-30.5430691016396,1333.59158322188,-63.3748543270502,267.158413708499,39.4545394721279,779.047372204346,-26.4111652184974,671.329227941798,23.9222885858219
363.255497769214,74.7720331665503,467.246896639057,7.93990545870616,735.725073427098,25.3442696738576,1373.67637818487,17.5675894685859,915.351806210798,57.4250677720573,1288.35138858857,68.2761972692197,2152.23036293309,-203.52090036303,1606.79509372046,-101.241758929018,1005.90119091659,-80.450445319346,1221.73169715212,603.707993299183,243.992815208338,-31.7251045137233,1365.26797525309,-68.5744147115987,272.378527142044,39.4061972183377,799.158735686314,-29.7868839134327,683.506021267075,21.3035923931952
370.185126652223,73.9011607854062,473.165638120213,7.39948266133535,743.751035526128,25.0094221110982,1396.78549464476,14.6569955130279,927.085415939865,56.4600713991746,1300.94450790922,66.8660972656483,2164.07402056714,-203.701954581577,1622.00122167419,-104.198557021457,1020.45777963367,-83.7004640580354,1213.46261675755,600.335131319552,240.911260934872,-31.1600817053254,1344.20242595456,-66.1566161714546,270.335677511931,39.365774485825,778.025625113204,-26.1682513215746,672.37290117845,22.0100367000086
357.890990439543,75.0804911653169,463.435978505379,8.7408816108185,728.059546307433,26.2397914559927,1358.80086987906,21.8328624796856,904.680625436965,58.062060172315,1279.0156546747,68.0748487303306,2119.97022055655,-187.897781493848,1597.2906631067,-101.046946388348,990.756445127185,-78.7635786014238,1189.53961276352,595.51717817207,237.870012661632,-30.6815875494191,1327.01584137324,-61.5825157710911,266.845627225844,39.2777113361874,775.216696077797,-25.7550529536843,670.026913448514,23.872692778316
362.518182578943,74.3784340840984,467.425942190926,9.16313962272031,729.42194692488,28.264544191511,1378.49157452245,16.0238238845051,914.576202441108,57.150197987391,1288.12291676671,66.8611147425553,2150.4625359711,-203.657410108473,1609.36173851168,-102.26429000435,1007.14134058524,-80.7274279772399,1217.21463880119,605.980966054406,243.113183744733,-31.5636912132707,1359.05349290205,-66.6077083547132,272.139071604446,39.1436162402466,796.101793140706,-29.0871605159666,681.804318197734,22.4903499662627
366.974834402245,74.5892213270165,474.089489945031,6.8778077743345,742.244980521132,25.0931613653358,1394.79450879558,14.963154434805,928.103245202205,56.8041815983943,1305.19162752731,64.315486308818,2176.73685184687,-206.989839106294,1629.97939841146,-106.094411765155,1024.82447648345,-84.7412334682917,1256.05842850869,611.666546931984,248.898305114314,-32.7217041307525,1391.5480564925,-73.3533683542357,277.657799328755,38.6016177384545,808.219216762158,-31.2483446778887,683.63017723067,21.7762015894162
361.197953668584,74.0457973600219,464.552242505812,7.84879616252525,727.254416545743,28.9203839574647,1358.20187504704,21.619125338591,902.053701848009,58.4951606135967,1270.74902222904,72.1019360321048,2125.48023724391,-196.341042568229,1594.62558820502,-99.6714372822814,986.218083213912,-76.9894446078927,1184.58456272815,591.262063070632,237.182834245563,-30.2650801374748,1323.47076511832,-62.2811848862936,266.765133044453,39.2481698117516,774.218692351635,-26.0828255139254,669.429320021215,23.0371831393091
361.936158977497,74.5764888360116,468.707104974464,5.82754526661417,730.952467774151,27.9204199895215,1369.71895733689,18.7776653981145,911.39728849014,58.4942171982586,1288.31419756437,65.8763275198706,2140.46049667829,-197.706027957999,1606.18489463755,-101.672486108131,1000.14070129858,-80.4918083428674,1213.22773476081,603.927659108078,241.700566996844,-31.2838588433691,1350.74728368969,-66.2007338292564,271.205946054324,39.0645344994369,790.973876443214,-28.2920992553811,678.21068345603,22.891046589424
369.460812181443,73.9004016310819,475.727214844903,6.44518400080181,744.931213802105,23.9264687520994,1394.17051623961,16.6060603178569,927.165527023976,56.9060639109801,1304.08120551018,68.1430935178631,2173.84701947463,-204.702494536316,1632.07623487959,-106.554807720669,1025.46369934175,-85.8877010424477,1259.02170749368,606.689638933917,248.003030464876,-32.466094486668,1386.21034058996,-71.5701447934185,278.204671303071,38.6095856622606,812.561194441202,-31.7276108548485,689.232976819269,21.3814755976861
366.830296943724,74.5482680104978,469.733095194607,8.09416676778615,741.149028541082,23.6946982570436,1378.53996773756,17.8095944150535,913.889839311179,56.8207112712375,1286.83445431433,69.3740005762432,2145.96909624129,-195.931623487912,1613.67292832307,-102.811656856842,1003.85548324041,-80.8790968867338,1192.80881824804,598.36485855614,238.941891964317,-30.433640573571,1331.18489124638,-63.719718766082,268.969537132317,39.4496476203422,776.075971101573,-26.4673051346528,668.037818316286,23.8276533009254
361.800870452473,74.3891920940203,465.730564062331,8.1951877287766,736.767219639644,25.0839851157671,1371.02975608725,18.8679552609996,911.63117849383,58.3994099553812,1286.22006402272,66.7169035822896,2148.94501276553,-201.873422610793,1608.7189507928,-102.771605876445,1000.05800232787,-78.3402028982588,1203.8465381573,603.116487969378,240.265165480071,-30.5445663836339,1341.8791158881,-65.0584325130388,270.351412648869,39.4048218559202,785.864634009078,-27.9398963455295,674.917972038232,23.8925793488451
366.128219530767,73.4300948763415,469.053305224605,7.8881807144069,743.719833277236,24.3653052742047,1391.22333105646,11.5544716371318,926.330001901895,56.2579051268097,1301.98101611623,64.4866983227516,2168.62175146112,-201.097612642139,1625.75508669333,-105.656899902846,1022.79640395002,-85.70661484966,1246.96602820712,610.094325639393,246.575176874949,-32.0501268085808,1376.24005766471,-70.0380659583957,276.399779371476,39.0615024919826,806.877970209239,-30.8788699431155,686.268156931724,21.7006725078552
370.745121244922,73.6961925170372,473.077185579812,8.24264919397277,746.015432487805,25.3085275552024,1399.53739586275,16.8151585482867,921.795042703003,56.7846365410936,1295.85014561538,69.1976501750154,2164.8287663235,-203.998535734198,1621.68132801419,-104.534157941524,1017.97814753198,-83.6791912671976,1208.5300111293,598.878670906224,240.763873303637,-31.1556722806293,1340.6197173987,-65.0241589189219,270.580565973091,39.6131171150066,782.030778379116,-27.2501792090194,671.242242850529,22.7395475279756
363.014352447947,74.4482037657022,466.236383262865,9.01511435405665,735.094051227282,25.2057885944394,1380.41404962112,14.750641574356,915.167428738103,56.9944292085466,1291.04525292122,67.1011409080361,2147.30411840546,-197.003905816493,1612.76638611177,-103.961798762476,1005.22288279871,-80.8733108826166,1209.78756419221,599.768625405551,240.328794014973,-30.839474999637,1342.54296040813,-64.4104478606519,270.077716422776,39.7744071259994,786.606875668182,-27.7959700233904,673.501016733784,23.127808076992
364.735932997235,73.7789367125768,468.026410400187,8.63232715017279,738.893005264618,26.3402495545842,1387.4537617161,12.8619797158853,925.485471040609,56.1388635616074,1298.56219568695,68.021841646125,2167.51593711941,-203.041795336177,1624.2897140807,-104.541261095561,1018.99245954791,-82.2338879762153,1247.06451879432,608.637139941441,245.868539943727,-31.7443518248986,1376.71198752802,-70.2761319590975,276.11294576759,38.6352063535629,806.308691247568,-31.2392763759007,684.685594833673,21.7971543114944
369.056872904947,75.0376458549315,473.401911357547,7.7139205027334,750.885803203963,23.5709391061864,1407.31255295236,12.3215897514954,927.344356331054,56.55577543195,1303.19825789092,64.7041701472992,2173.71876097606,-204.461458734034,1627.23260770344,-105.772620973255,1022.44884522087,-83.7408363069254,1210.87938111327,599.521135660769,241.000646519219,-31.086721052075,1343.18428566653,-64.8826718362184,271.176467608429,39.140601812956,782.633124935388,-27.2394594439052,670.489581886069,23.2514229464017
358.66408935919,75.7746598399594,460.587843619875,9.41029712123287,735.281764049294,23.0909106438302,1366.73380940349,19.7140951261326,912.968628594633,57.8674439492883,1282.94043906938,69.0960102530841,2148.00644993609,-199.751224804381,1608.80880717194,-103.069875906119,1006.69784197992,-81.8790330834679,1202.76250631052,598.777524784798,239.472447108325,-30.8816998130861,1337.9565477112,-63.254363872262,268.960552015673,39.5110503375672,782.874361608762,-26.9693297186433,670.13049623724,24.139410223168
360.562392383087,74.7777347554458,465.852117573154,8.22308936293816,737.810548392547,24.9104209089698,1384.20991054417,15.6280437240231,921.774660710872,56.8946251363382,1298.22667455741,63.8017715865974,2163.04225388646,-202.933022819663,1618.4932623673,-102.895483399577,1015.91596524924,-83.7996313194976,1240.34256687842,605.270634563479,244.342029438611,-31.696885611214,1367.8522618978,-67.6978695285641,274.276101518597,39.2702221864498,802.738454525949,-30.0202052343591,681.001132715705,22.9293793864673
367.74457696239,72.5863367683034,475.590257412736,5.3215823522275,747.853835652122,23.2663285468583,1402.554734436,14.257020243615,934.50783839331,56.1022644997597,1314.02122122308,64.4922112972606,2183.79710216905,-203.673399362472,1641.45335836644,-108.768126088229,1035.4262004647,-88.4680797097668,1268.63755211056,609.768475980232,246.728797738159,-31.9978924891977,1379.40750883204,-70.6299956160943,276.029456620379,38.8776281351042,794.726714547069,-29.1941697561372,674.123141181997,22.777400134199
362.086176646448,72.3228356620101,463.243740962269,6.98638922480349,730.260274332947,25.1850890620673,1357.94807372805,21.1709426275248,906.834065445698,57.8095496038234,1282.53742842447,66.2872372940553,2133.49327749146,-193.855065988779,1599.64584857002,-101.434323360016,996.053323354981,-79.1715855384976,1193.63280991039,595.798091540831,237.383038373576,-30.0819222293458,1326.58659812906,-61.4886879263395,267.42961853772,39.4294573731137,777.258814663384,-26.5398037651652,666.142431266628,24.4202035184279
361.866900041326,73.7009711102423,460.899164370405,9.72602824818574,732.031887575698,26.5154648653836,1367.13837210813,18.0734572229769,915.447375956852,57.574778242984,1286.62225980788,67.3270093017099,2153.27531286153,-201.555313592682,1605.62191296334,-102.114675783601,1002.68922288404,-78.2833894349497,1213.9164186543,607.068844456375,241.564589325648,-31.0604848267293,1351.4415028381,-65.4796514540785,270.70448613604,39.8038691972277,792.533836929105,-28.244942173628,674.88370634778,24.0197986191853
364.910238356201,74.2814610703886,469.000569769853,8.47640749730905,744.784472257975,23.1980302649642,1393.0886438073,15.295811241685,928.981904685937,57.2734838309609,1302.31262516123,65.899359502264,2170.96270707461,-204.287947202913,1627.35648377055,-105.922317265685,1022.96200823941,-82.8169404596233,1258.27922555868,609.335219030163,247.185199272208,-31.9604156898312,1385.91617915448,-71.3540103759468,277.261628449266,38.7920862549182,811.909428943114,-31.1821747446113,686.37375781489,21.6692611292043
360.268010306543,76.3476189892084,463.610400416702,9.19539329633185,733.724116952675,25.2317899699674,1365.91903672705,19.0719112344718,909.77686856055,58.7726962282514,1285.05561680103,67.398069479909,2138.08377128684,-196.631485795221,1601.17362000371,-100.748033418395,997.007919634937,-77.7151776180776,1189.20785801146,593.411987199437,236.865343566813,-30.0982950695988,1319.95552729602,-60.3396455932242,266.29870477591,39.8803344617252,769.783455927275,-24.4539984640888,663.405581504794,24.6741435927102
357.904111907627,76.1508665835345,462.254477530978,8.48100578411615,730.808937348571,25.5385474630475,1358.00709799528,22.8716985535432,910.404276542632,58.4915140133854,1280.82401687861,67.63919973693,2144.7272909944,-200.718350133032,1599.44169767898,-100.920279246048,1001.52516266311,-80.5996650869745,1202.24583852032,601.187929160394,239.451387460356,-30.3460710383999,1338.78610883383,-63.8590363920164,268.923243944782,39.3349786052934,784.122199217324,-27.1437311058734,671.123441037422,23.9246625834433
363.560112765629,74.5659816869365,468.33331724614,7.15007666011878,741.01878250037,25.5730679097738,1378.49033307405,16.7146606890267,924.038424221842,57.7721909017641,1298.64166448008,66.5477783099193,2168.94231338638,-203.734660555507,1618.49688796698,-103.396181458472,1021.69769225617,-85.8131427926588,1247.57855340324,605.219308406476,245.414072670614,-31.7444680366301,1370.79099093795,-67.981652222793,274.665161080313,39.5080996098308,804.226190008671,-30.360087978074,680.091571932017,23.2754909692462
368.489301584979,74.3691105359295,471.05636805699,7.70996301554611,741.515424885154,24.3044607547093,1386.60242195821,17.6869902210158,916.937310404167,57.4894286025386,1291.09716004033,66.7398474768218,2151.64652001721,-201.636841855681,1612.38834670521,-103.574884500586,1006.95557753424,-79.6830052726095,1196.61240208985,596.249184494056,238.702646429765,-30.6238433327549,1328.76159103487,-61.6538336928473,267.958081569186,39.5570329680864,775.030718562089,-25.2911788608785,664.108824757258,24.3306068104693
