695.370864292201,-28.5913293087329,1733.81390138448,-119.787490443099,866.60397689566,-108.430430244567,2354.85780149564,-356.721547445608,624.729038849167,-44.2891581935229,1843.2334268998,-255.419001152499,1304.17565048699,-135.857061809272,1539.6106090698,-273.86419089563,661.461168610259,-107.244714993423,328.223895795519,9.60825659098471,406.831417821107,-47.2780787636975,866.550385067614,-88.2314643738332,312.296275607704,-19.9546310251572,2000.66018199813,-168.977926073091,610.827411822315,-63.17106104025
691.353928123439,-26.8523045850581,1725.77389764389,-122.801694156722,863.065513521148,-108.088851589003,2329.06737594552,-348.108960707865,616.512853893031,-42.7712920755616,1836.13816578794,-256.563980426653,1291.86337559444,-133.824804749508,1531.27892379154,-272.339314056521,654.658030723506,-105.464805258438,317.157781009591,11.0935849683295,397.543140541532,-45.4828655067535,843.125927999892,-83.7851961757904,305.7028805357,-18.7077558596876,1958.42184357863,-161.108941838097,585.703160245212,-58.9193619707034
683.653552765541,-26.0415012529323,1706.97327959918,-116.022986335747,858.44032692244,-108.010180992906,2312.48014807461,-344.84445559868,611.242144338405,-41.3612749632041,1819.92955167621,-249.691838015946,1284.48436467043,-132.096626267668,1521.77309891897,-270.345140710776,651.033000767833,-104.355389106332,317.722014634131,10.2388337669438,395.61195327098,-45.155344545512,840.837695299684,-83.283081755264,305.086739177529,-18.7316941064921,1956.1793916153,-160.671775956244,588.462743620266,-59.4289664200807
684.731844540811,-25.3155604968308,1711.41425967125,-116.170600913903,860.546918157462,-107.477653723131,2318.0901322597,-344.646806061761,615.275833763254,-42.3164175537455,1819.99733977095,-248.524566312582,1289.73235843061,-133.017829900419,1526.41991719488,-271.081730231728,654.372084296183,-105.313431828129,321.671049672012,10.3313160090734,399.057809482174,-45.6378554263537,849.96579625411,-84.9430129990015,307.813624899589,-19.4966065725881,1972.52883537159,-163.780343730687,597.666530951312,-60.8410045339824
693.439383092537,-28.2912831931062,1735.21591687834,-124.555867951524,866.880956961474,-108.608337720552,2338.79886739583,-348.176793368269,623.481347993898,-43.9154751954167,1839.99053457598,-253.352792399285,1302.16281550243,-135.495552140987,1540.00827150449,-274.667090244992,658.652649109084,-106.156783513394,324.397868740852,10.1466102823736,400.381664239236,-46.2280219784958,848.194518216499,-84.518446349971,307.824364598763,-19.8388672453687,1962.4246553986,-162.337313382099,588.202503108898,-59.0423070401683
681.736735467854,-25.627261330935,1694.55369765684,-114.025731062246,856.317459092382,-107.78813243208,2296.82449184143,-339.435371404493,606.730656915035,-40.6900125917975,1811.16671522056,-248.454092175226,1276.10515843277,-130.28233441522,1515.42409982496,-268.563877120388,647.115583669831,-103.551385327864,314.484340762306,11.1939242787772,391.653787641647,-44.2364065573674,831.62045874196,-81.9621471775555,302.506389535539,-18.3134291348051,1937.68043936117,-158.182084431291,582.716110775759,-57.8210049689947
678.679853218912,-25.4801975020006,1697.65479444444,-113.277296027027,851.860153467247,-105.618520587753,2297.48708090765,-337.880034142345,608.249228625871,-40.6703521978816,1817.0451077937,-254.442316516395,1279.41716964321,-130.32271041038,1516.51101452544,-268.924490271439,647.553208101933,-103.666763535235,316.621546856178,10.9903347035035,393.826578786899,-44.5420790281469,837.746021299453,-82.8336688871883,303.787564189443,-18.6497068440812,1946.1689884741,-159.688390556795,589.837805684075,-59.1567459701574
683.152438141447,-24.8646860532741,1707.59239063101,-112.647001291665,859.790133024614,-107.387890635983,2320.60908189183,-346.987201879908,615.672862217385,-42.356896343005,1822.77026887277,-251.363386212067,1290.88071328946,-132.435721914436,1526.58797257883,-270.531022162025,653.428099845395,-105.028398965999,321.598300526765,11.008328306101,399.323753098086,-45.5553055987044,850.981089089853,-85.8087930890649,307.592956703023,-19.2472746451423,1968.45801344935,-163.385314460839,599.825554005134,-60.9082997821842
695.510505327702,-29.1910927241878,1734.15963836682,-119.699394268535,867.63375111353,-109.944552666995,2341.141098611,-351.538991342806,619.277211376372,-43.2442409083393,1829.75843264341,-252.271200465781,1290.25683501134,-131.844271662636,1530.29512230981,-271.64792285549,651.763925107827,-104.420001338623,316.628637156863,11.2097913795766,393.82028586456,-44.7656165174777,834.072579994142,-82.397000792584,303.961490954528,-18.4016934289132,1941.4668964102,-157.977280066647,581.502527591544,-58.0457207944593
677.032854836709,-24.8474559694707,1680.61636063497,-110.51102639539,849.80527382607,-105.343875775818,2282.56278659855,-335.940954459164,604.025739396866,-40.082344048749,1800.61447718232,-244.937613643347,1271.0172178495,-128.135220628001,1509.43395651191,-265.941693451862,644.279002348015,-103.042571027429,312.858843993039,11.2350301938395,390.276964536288,-44.1237624575379,827.605562329649,-81.1081280280197,300.58100853643,-17.8899193381754,1925.16707074886,-155.379385485916,579.014573734727,-56.8301366948469
674.39187592793,-23.1867025493792,1689.99604149674,-112.758470931475,852.182232104127,-106.558933091297,2285.88445943683,-337.42243309592,604.98698040411,-39.9561137132036,1803.77271608387,-246.547980757649,1274.84276665258,-129.064146633354,1511.41665270291,-266.353141420482,644.920049933522,-102.796479841669,315.352807968455,11.5975969780971,392.877968413973,-44.5526618300685,834.670966550454,-82.2177725347055,302.69431847635,-18.1815374954864,1938.10085149912,-158.060980958197,588.357238601645,-58.2265057848021
679.957066741124,-23.3044573560639,1708.28439281158,-117.562950250177,859.192890259855,-108.789192301609,2310.3881638079,-342.912043793089,612.122931458216,-41.144992361683,1817.29656984174,-248.198426138295,1286.2757738039,-131.136504843579,1524.02559813805,-270.562719826729,651.323083831046,-104.5600054483,320.288866671339,11.2311172014938,398.900611411819,-45.9615660583479,847.309419104352,-84.4909915946749,306.031072164204,-18.715583370498,1962.99400113421,-163.017699806558,598.636108766125,-60.5656128143342
688.428586094308,-25.5551525475595,1729.10590494118,-117.077063868906,860.696719374518,-106.528934258372,2332.90739347163,-349.684108500334,621.990254830778,-43.3978932739313,1839.56735112671,-254.699299167521,1300.16017050508,-133.495410193581,1539.7231498762,-274.044449482398,658.008380253124,-106.443712830202,327.749570803333,9.82466816229046,404.980570652085,-47.2559725069392,857.834075406097,-86.3624663085394,308.998318099086,-19.4616314076852,1971.7603130033,-164.61835422799,596.675763256809,-60.0584575208941
678.596777587925,-24.7082839463107,1692.5331702941,-111.467331484955,849.147944069057,-103.731119717922,2282.3292550932,-334.519377370193,603.277166799703,-39.8798429457381,1800.80519359335,-245.933169820853,1269.40625008543,-127.914496339816,1511.97296059159,-267.133018163635,643.672220662517,-102.675369509164,311.192918500965,12.0566560649978,390.144903574879,-44.1723369064773,826.102576131074,-80.476513012365,300.536471620948,-17.6022354845129,1926.35197662986,-154.585321984303,577.699604093372,-56.3077756633703
668.374182731581,-19.8373594463356,1681.80990703952,-109.899058028311,847.294305361823,-105.380028744261,2278.56085700544,-335.162092432706,602.578870043794,-39.5592401482388,1793.31335663772,-241.97852772923,1268.60695407551,-127.514958035517,1509.79598789978,-266.265440603603,644.23499406313,-102.548815475128,313.476275336108,11.582459524536,391.135850931831,-44.0029497460594,833.487494384106,-82.419036684497,301.58862996175,-18.0555836135369,1933.38182931135,-155.721416933888,584.309156362325,-57.3308171793394
675.305372938962,-22.4282672688379,1698.44884750096,-110.975863775168,852.693573588455,-105.470637325374,2292.15746321757,-336.212618160765,608.608606693552,-40.6597769482038,1808.16709806751,-247.234845212941,1278.14833021904,-128.679517563356,1518.90101070049,-268.218467134776,648.698783773668,-103.487215245323,317.947484606849,11.5197894797516,396.581944963207,-45.2064007656131,845.92756708167,-84.9385908023531,305.005858369525,-18.5348067754524,1959.40934532092,-161.558096938119,595.203451052067,-59.5216727176875
686.242328615297,-26.100574563413,1716.54542215315,-116.006031440032,861.212676675768,-109.271273879839,2320.8422100134,-343.959853009343,617.238834010488,-42.4321514393335,1822.80069040899,-247.239336197218,1290.66899830146,-131.468455618811,1530.5767784082,-270.940321815776,655.677097358708,-105.370450117096,324.242298940844,10.5148056570426,403.370407805609,-46.7061932986686,859.502988086173,-86.7080650042421,310.33334296796,-19.9886584594168,1986.04096907607,-166.560873258113,607.773071298906,-62.6908179065277
680.271686027322,-23.821728343279,1694.95100537454,-110.281508555018,855.248949729881,-107.486288820304,2293.18227797804,-336.82701143826,607.252845108261,-40.4254279429594,1810.21990501809,-246.604809401148,1273.67921079323,-128.134381097415,1518.81357385995,-268.617498285166,646.740283977931,-102.958908084738,312.764604986125,11.9996500568657,390.990354834885,-43.879250919654,829.64503671743,-81.0890127792283,302.571752734875,-18.3827116467039,1937.49246423042,-158.24414454785,580.031611129267,-57.4943639588938
674.993433879965,-22.8895357814674,1686.72199896864,-108.127815535344,849.126835291319,-104.453139838511,2268.40706466557,-328.997028017329,602.59476243685,-38.9514925328065,1800.56662066377,-243.611475268734,1267.10040546787,-126.308821975599,1509.84423176073,-265.779919807124,643.626282821587,-102.361542179128,312.540250250308,11.8459088030077,391.24364144527,-44.0076479877306,830.683137722545,-81.296797860058,302.165706287468,-18.2706004313171,1938.74676367451,-158.712171327697,585.477761287768,-58.4032541567874
678.138757825239,-24.063114037732,1700.47795164525,-113.434469176325,854.571411665464,-106.048974006598,2287.62555472008,-334.366555703854,609.703420054418,-40.5137387078472,1809.23121764977,-243.678630289694,1275.58456512952,-127.269602972434,1520.23997182002,-268.717238826804,648.128686162458,-103.515219701951,317.226468435518,11.7737489815109,396.25798253304,-44.8574315480262,843.97274761122,-83.9160287545712,305.60901537952,-18.9208820107713,1958.20684806999,-161.14718544253,595.679129389512,-59.6917664947237
684.329019929477,-23.6870428088692,1716.81297957295,-112.907285304664,865.052926637102,-109.706843545604,2316.29984911416,-342.297079555621,617.618028228321,-42.3310339475636,1824.86148890841,-248.535204418445,1289.60791478738,-130.756070427211,1531.70552527904,-271.585048585825,654.200249201744,-104.792246742156,324.016286684265,10.66808392846,402.65810317573,-45.868795991114,858.927668062556,-87.0409598853804,309.759577480225,-19.443516533029,1982.82171342734,-165.983915719243,607.933173428929,-62.3537049900597
681.329981469205,-24.1301741049311,1701.60629051979,-112.79095527069,857.173377755888,-107.156436266385,2284.48527849213,-333.552572126372,608.47290773452,-40.2937811491221,1809.13942085786,-244.152579115389,1271.63991481892,-126.468236536665,1517.82065369094,-267.404112923632,645.867037568889,-102.642922174494,312.081128189071,12.4670807279061,391.848187644367,-43.9472295313592,830.742276535179,-81.5948091324257,302.074224448968,-17.8736019781793,1935.32945146629,-156.484542807821,580.301320373096,-57.0982127005009
676.211952603776,-24.1310146134054,1687.91035657132,-110.539377396198,849.965189571182,-105.493815779882,2274.54109043353,-330.172676062118,602.64803675198,-38.3557197482459,1798.52962488132,-242.481520106225,1266.45467001777,-125.915931477472,1509.36484404193,-265.205799495225,641.66267706002,-101.505998449713,312.536215497398,11.8958591005324,391.425806151776,-43.714204461474,831.510264853937,-81.5879493346979,301.698934073296,-17.7977670881231,1935.24500249581,-156.895009216621,585.6900886424,-57.9105237773008
680.356976258772,-23.8083450190743,1699.8293140305,-110.433301269123,857.907502494735,-107.326325939639,2288.21097496203,-333.480581641948,610.337741433176,-40.7716968182574,1808.23421565541,-244.229916408911,1276.0181026175,-127.405110134582,1519.66507314139,-268.035859552882,648.34237888093,-103.306198753124,318.017454914038,11.5965635838396,396.556728524344,-44.6963819514799,845.107018649758,-84.383756807457,305.391067797764,-18.4979356926353,1958.40383128767,-161.460827179891,597.50776424064,-60.3828595442084
687.086793226341,-25.2005137182582,1717.42445249591,-112.428483056403,865.887993520403,-110.104788616603,2313.68526672486,-339.777567583567,617.659562557559,-41.3347450877778,1824.49302003245,-249.630577612291,1289.21546950495,-129.207730630515,1533.7156576895,-272.331294480821,654.426127755455,-104.628191653129,324.618718879552,10.6004699510429,404.91937013414,-46.6815160000472,860.017361709599,-86.6642714679238,310.893250090275,-19.4318720718707,1986.17312083748,-165.869776352559,610.314980026753,-63.3866687743784
691.010067744573,-25.2990689455477,1730.05264142607,-115.861039604913,867.290962488344,-109.768812293339,2314.20551186353,-340.991434052923,613.680407158167,-40.72595780683,1819.14931224946,-247.668401264419,1281.9501098799,-128.678317571766,1528.06038947747,-269.927580174223,650.870425285478,-103.749592422717,315.757077418876,11.5985671144476,396.668926179341,-45.0287621156316,838.94951572501,-82.9024569137948,306.45333764598,-18.6806438225502,1955.99874573689,-161.166638465774,585.426560962159,-58.1749316459449
678.542978192786,-23.7901681451912,1697.11743124683,-111.932749841548,852.245108029949,-103.366810622208,2273.46708083794,-326.798473737603,606.714112005762,-39.4540566999601,1797.60857067145,-240.335069084322,1271.04778473003,-126.907647226839,1515.97577425735,-267.500281029502,645.219753059214,-102.620688541793,313.135668054398,12.2649665342492,394.383062352701,-44.666117585508,836.080813341584,-82.3605178750288,303.88407059855,-18.3943965194073,1947.01081670743,-159.432863501022,584.478482875757,-57.2270639799834
679.414773515233,-23.8148100679454,1701.11796868816,-109.377468840956,856.085373192499,-106.058102440775,2285.95656401308,-333.692753373289,608.619268873773,-39.4333569131921,1799.58674397587,-240.333017620664,1274.26838148636,-126.229312785021,1518.4378756667,-268.054930721206,648.074107300036,-103.180158707481,316.781850370795,11.7766476660365,398.044624619984,-45.2510762995452,844.337244282366,-83.0936566409826,306.239457926887,-18.664890854303,1962.47152229469,-161.798458002904,594.781137097146,-59.9106510400416
687.4764462926,-27.1425795913843,1713.63772403312,-111.424044260269,860.922409342566,-106.682920441678,2296.22385440319,-332.565882060654,616.141045968356,-41.1025375808181,1818.84412787371,-245.660680712902,1288.51140703621,-130.452519180289,1530.96487859771,-271.100651980513,653.766142070897,-104.513291301024,322.147489168807,11.594927876148,404.27150335684,-46.6569014877246,858.748613049931,-86.8745823480124,310.591588216488,-19.6350928281198,1984.27222184017,-165.469442085088,605.173144659756,-61.6885634902083
697.879115496113,-28.0596554643861,1741.80514326236,-118.031863371522,871.989972045425,-110.899325877611,2322.94773332152,-342.043919464752,620.395916937898,-42.3183545544858,1827.44107373733,-247.8030486914,1288.79110127241,-130.218095737938,1533.00998304937,-271.629740842488,652.904705956306,-104.093141281257,316.539849143786,11.8006949412742,398.642073108812,-45.7279953184465,840.270924645089,-82.8012329826943,306.812335995356,-18.8846828555098,1957.24840018426,-160.653355097454,585.192627835071,-57.6594148185423
681.309142148195,-24.7006096892381,1697.41941739167,-111.718631225734,854.195771083322,-104.613651576421,2271.23225448945,-327.54367082876,607.104193258409,-39.1582624538903,1803.35802037039,-243.494299598626,1273.27937090686,-126.491064733875,1516.543508629,-267.372036529476,646.173536322421,-102.30590101131,312.670795587652,13.1371632848134,396.116894079942,-45.2387861669201,837.111345921653,-82.4371369715755,305.699958749022,-18.6167371877235,1948.1317530987,-159.522165113501,584.556591143995,-58.2669722556121
680.017613137317,-23.3760970500511,1697.89658607113,-106.148694084171,855.928109764902,-106.748810957992,2279.41989436667,-333.260405619393,609.686958874619,-39.4989771758834,1805.71537686118,-242.327457216681,1279.13050094464,-128.351119319465,1520.00150001886,-268.552188313415,648.696818028906,-103.202543073051,316.249902224154,12.2359194303834,400.94954534024,-46.4489231282125,847.339849802755,-85.1228144085174,307.375824493825,-19.1766521594673,1960.68078252324,-161.73914568288,593.670317603944,-59.3582068075671
686.55859983037,-24.224603158508,1724.19558750669,-114.795079871596,859.815755258078,-106.901379675537,2303.70078946559,-335.492958450896,618.838121452866,-42.0379510662688,1816.05453076116,-245.318549170942,1292.66725981488,-131.133276236349,1531.39165439892,-270.572826640699,654.691831040685,-104.636453310993,322.15611561142,11.7261850339974,407.306977153617,-47.5485011797417,861.520503497407,-87.517755421076,312.145164995521,-20.1941870117011,1987.8051482197,-167.653837659551,604.802013225463,-61.7489688453903
694.668012224574,-24.5082841730346,1744.15759058755,-117.588776728644,871.014574787304,-108.532388069522,2331.90288967176,-341.921560683335,628.527069999146,-43.6769037248761,1837.4737800004,-249.166840136706,1309.51296228515,-135.467935156615,1544.28815862046,-274.032522912947,662.529654733442,-106.575323577836,329.177382561264,10.9988194429511,414.680998125145,-49.1036041042007,877.195417319426,-91.0287739462381,316.526289144079,-21.0089901558761,2007.12838830103,-169.689455192824,611.057098650767,-63.7758451583125
685.292790646209,-23.4993345372501,1707.26761374512,-110.759678351027,862.355015205844,-107.736422238705,2293.03956553645,-336.464661373791,612.660553577363,-40.1603309596068,1810.12137552129,-243.841811769497,1282.62043149716,-129.220462374964,1522.49310788809,-269.105301001577,649.045309249316,-103.369922837417,313.912983839357,12.5150852994619,399.138920129128,-46.11184175431,839.620153285206,-83.596601708141,306.504404975831,-18.7807907091249,1949.45502510293,-159.144927300574,584.191119414151,-58.3142372415503
679.857701095065,-22.3424785245379,1698.60858789443,-107.100856096732,855.103809280745,-107.306206763752,2275.85769606386,-326.996268796972,610.502226993469,-39.3173983529687,1799.62370882807,-240.582577159051,1282.64927346545,-129.718651385321,1518.55194559121,-267.982902050801,648.658756166396,-103.224577652843,316.201934685741,11.8786270467901,401.22367727585,-46.3638353642032,845.378338269493,-84.3588903820177,307.999293565601,-19.2064891219787,1958.86539393283,-161.505235372872,590.900480359311,-59.2361451338684
681.546424851469,-23.1884461115795,1717.83698143333,-116.261787840606,857.975204412185,-107.521499304319,2298.63407525381,-335.80778054947,615.962986564539,-40.7937980948629,1808.3028409654,-244.38376014783,1293.9575513641,-131.765740515647,1525.89672933586,-269.304117604165,654.005807217259,-104.181542367369,322.038206428193,11.1819063670896,407.202410125296,-47.7228486860897,859.022753454973,-87.0632426229722,311.813504782452,-19.9085803571213,1980.17962213266,-164.987015791932,600.97828787925,-60.4618890843482
686.559959183433,-24.2036414346274,1733.71435341675,-117.048402067762,867.101916745435,-109.259989447381,2316.89581198178,-337.955504366259,624.616523482264,-42.9663982747046,1823.82742540893,-245.29796461997,1308.82833611374,-136.300336685045,1539.14039393293,-273.317970592704,660.620821007557,-106.104718456168,328.287569432452,10.1012928085509,414.282789846238,-49.6125767844368,874.493548728285,-90.0777529097252,316.726189906961,-21.2691003218686,2008.77365070753,-170.499842457193,611.121018979906,-62.6674269938592
683.694702628248,-25.5431801173317,1714.76937321228,-114.974064693579,857.554336406694,-106.82343356194,2300.24368403668,-337.441978458184,616.08020476965,-41.2927505627195,1809.54023092261,-244.005088392742,1291.50398888332,-132.502646326134,1523.6864675522,-268.731420595174,653.33040034578,-104.812896931413,317.691939431131,11.3094506675235,403.102860668718,-47.2507927514336,847.155293724952,-84.9351098413852,309.643399251502,-20.0279425909374,1958.38958251952,-161.058351580768,585.213708244046,-58.1570576734764
678.017610002096,-23.9860469568591,1704.4689228915,-110.384079065762,852.483231336874,-106.303864489948,2282.37914669426,-332.639111294496,611.104686684132,-40.535133786266,1791.58040914135,-240.803576774151,1285.55767108454,-131.217509047538,1514.09740532976,-266.400224389771,650.361215299502,-104.280975175248,317.98017825094,10.891918487963,402.459009109482,-47.3767041670136,848.06061826887,-85.3819805266393,308.517316546076,-19.7964485934912,1956.92691327617,-159.898558899888,588.242284674997,-58.3085361748991
676.93535093165,-23.4614414058049,1713.68259762502,-114.506073399911,854.272576475767,-106.561221658319,2302.38105979382,-336.418590858356,618.206388156857,-42.4240487012987,1795.68610698681,-239.31384021284,1296.17502703586,-134.455078723774,1520.97154035912,-267.903904376748,654.413133380554,-104.938787954631,322.016213846122,11.1513598872285,407.407902293491,-48.6417396415885,860.011855221461,-88.210182671926,311.399874590329,-19.8791484233165,1974.58902206694,-164.905951834808,597.793191984975,-60.2348968071614
685.694088899592,-24.7990867349628,1732.90622600766,-118.135064108553,861.341302051167,-108.831231548731,2322.82641368726,-342.033463551546,624.088438245157,-43.546869462342,1818.88332857971,-247.824856637374,1308.64696925389,-137.0245009352,1533.69929108027,-271.697767632282,659.445025589219,-105.860432430144,328.500773489768,10.2312420001065,413.052001083076,-49.7018385815996,872.60454375518,-90.3137521239849,315.698504866387,-21.1085712808189,1999.25346334795,-169.673153820936,608.96312644422,-63.0491087915763
676.303619813131,-23.256036000513,1707.36005222611,-111.064446601289,851.786094464001,-105.274759420159,2293.591760844,-336.035111657662,613.619148669953,-41.7034909698362,1793.69227667657,-239.664557755588,1290.09223757726,-133.723264356816,1516.56089408317,-267.688047948109,648.961519622597,-103.374227169503,316.334638012051,11.4454726181567,400.50826292506,-47.1896971162889,841.797291864307,-84.739719744962,307.369119697932,-19.6331348088481,1942.1121991389,-158.54984517234,581.130878707096,-57.0604676917447
671.2769762366,-21.6255243427305,1699.79903920066,-114.965569577126,846.426282528754,-103.997230502185,2287.58157938289,-336.225350401235,610.553618333382,-41.3742136591681,1778.50678475234,-235.69901842585,1285.67786224223,-132.925566879656,1507.75434771832,-265.360806725214,647.368885000959,-103.212281699226,317.306438274538,11.3913849263144,400.510515007959,-46.9508116874176,844.101136985743,-85.6814679580118,307.224150284425,-19.792283921204,1943.61249340343,-158.625698883447,587.920274568509,-58.562092462037
677.759221099942,-25.1301822624544,1712.75702659854,-116.428783894367,850.573367439571,-104.568676101663,2299.91013536361,-338.696045852015,615.412204041371,-42.1481637908221,1790.62561264538,-240.292417882735,1295.95593649764,-135.230219576464,1516.50674385325,-267.489171086911,651.357295287626,-104.316777973247,323.478428356821,9.98632128980837,406.005171113665,-48.615295422358,855.25069365832,-87.1819442657664,311.397201674841,-20.8348147981441,1962.51796512956,-162.664239185205,595.884566078981,-59.4061032147357
678.354548652043,-22.9277636206551,1731.47239406419,-120.000384500022,858.973346251121,-108.573464437025,2327.10573466767,-343.678352212753,622.337420261483,-43.100624464235,1809.82092806173,-245.622729383553,1307.76090514857,-137.644197205818,1528.2210863363,-270.482615139302,658.414212010132,-106.407266691489,329.090001333148,9.91413038468482,412.315233751296,-49.8504998705806,869.240686279099,-90.4716738315528,315.015831378682,-21.4754389315662,1986.75351655437,-167.265332597454,607.883641380346,-62.3078531632136
684.144917717947,-25.5805454665617,1733.51365270534,-119.561521903617,858.965502686771,-106.839772149292,2318.2639779856,-340.877516964803,618.410454484072,-43.2246928517413,1803.18905258714,-243.542737231941,1300.01566469843,-136.576631953927,1521.38884184363,-268.437483732134,653.729184368345,-105.470110414013,320.812458317579,10.3471225785997,403.619186227309,-48.0354819884404,847.47437269713,-86.2734208257576,309.283640754112,-20.1593577393256,1949.17148637633,-160.526909490662,584.642856209461,-58.0079828674898
666.620430903499,-19.6172939778949,1696.9357193564,-111.64671531113,845.298149072314,-103.831728967538,2288.07500845149,-335.458681097027,609.505247908118,-41.634131128717,1780.97534719034,-237.765579102898,1285.95045115945,-133.64454616274,1506.28060477035,-265.095707833218,647.517341136631,-103.90459691163,317.226022958068,10.8908954549144,398.783873517443,-46.8066098238581,841.006667540115,-84.782810426438,307.269436813522,-20.1519818332399,1936.36223425225,-158.214172185077,583.616660648499,-57.4112427452168
668.605379999404,-22.9916069130381,1697.03417848788,-108.784787902468,846.750616615397,-105.525029712953,2297.5665852142,-337.227398511162,612.200418767939,-42.1624360834388,1781.64977121082,-238.497559723248,1291.84087679642,-134.535042171564,1509.75728883357,-265.816613483169,650.818594785701,-105.096324755744,322.027954906308,10.3332726415779,403.392990799877,-48.0959810395882,851.380057858362,-87.1704864211498,309.262267019396,-20.3123672649004,1951.98490354677,-160.905816515576,591.819434753695,-59.2918120884862
675.53525185712,-24.5535073360544,1721.05142364233,-116.674061843843,850.91487986062,-104.847163367545,2317.73964622595,-346.137770925802,618.692749051061,-43.6798217685025,1794.37050093138,-240.908281170143,1301.93028216271,-136.839629974484,1521.66788709734,-268.906366063076,656.265412856629,-106.328402826782,326.322785688515,10.4174754597944,407.710741978884,-48.7628877460603,863.066148424825,-89.5037676221995,313.199946273916,-21.4007421858744,1974.21795728555,-165.407258272631,602.049160544867,-61.239273475011
679.461413717981,-24.5833126412802,1730.61834703226,-118.395286629275,851.454302395421,-103.99770072464,2324.24033772,-345.408440233569,615.80407144101,-42.9122811352159,1796.36452442771,-244.47712408693,1295.75128056311,-136.000942736867,1517.03429453378,-267.859269106733,652.260720230125,-105.064925923187,320.301891474403,10.4988594838593,400.867946868857,-47.5758216673917,844.100431951887,-85.1784316890207,308.994823815519,-20.5394468147466,1942.65495287217,-158.559957380335,583.654095054664,-58.3414281038372
664.527253535613,-19.2806020100471,1698.16836695309,-112.533760896847,841.992390714097,-103.640925839022,2286.03786058303,-336.002360759161,608.813793334661,-41.8585470065728,1778.14096793249,-240.542652618853,1284.91056420302,-134.335016306831,1502.52401626381,-264.470281541406,646.458022462537,-104.034034967895,318.807551675548,10.324650207117,397.042983491463,-46.3864587517509,839.078178279058,-84.5506793713461,305.8588947213,-19.7545657941358,1928.61614961488,-155.652428208637,582.106366067221,-57.2468683104102
669.774694428015,-23.8630870708681,1698.68485731762,-111.691946359587,844.443639779944,-104.892669117264,2297.08766364866,-336.89525868461,611.529816634578,-41.9107257820042,1786.07369507504,-242.572604878823,1288.77516976306,-133.863802431219,1508.43454679056,-265.743938873187,648.726878049982,-104.481422096394,322.073962616602,10.3015305327407,400.891203060105,-47.1695134901609,848.239234327621,-85.8650323988344,308.024758839124,-20.3023547908869,1942.95350059153,-158.745784937294,591.86772804246,-59.3066308411522
673.433640175917,-22.5517494983265,1723.59170165679,-115.683816077586,848.688708653289,-102.023142819819,2317.788585793,-342.863779867579,617.99348041921,-43.0296586357339,1792.42156273087,-239.458079809235,1301.29709960079,-136.597520151099,1519.78773792319,-268.677149128205,655.105448443295,-106.145531144364,327.31401550809,9.64054075464622,407.314223957374,-48.882846792187,861.007556101348,-88.8019416675126,312.234079157504,-20.986594625515,1966.55252357568,-163.895164926641,601.241566774045,-61.1517026149071
675.893241081463,-22.9893870098258,1718.1042518094,-116.964660436858,845.824101163719,-102.323951262355,2309.11172504479,-340.876428468011,613.479542902581,-42.3728864149945,1788.19012121266,-238.584449632171,1292.36450732991,-134.745683367495,1512.75051502245,-266.93847037912,648.700389692345,-104.527843330151,319.744428289123,10.0832446732749,398.325156392725,-46.6057454944866,839.367704821021,-83.9092426828759,306.492898831748,-19.8459374392569,1929.11150808216,-157.124860772014,580.617078628124,-57.7030939075731
665.465022817898,-21.2457373367167,1694.45838922273,-113.344058276603,841.023614446476,-103.280090950755,2288.43426420784,-338.558745838299,607.219860641396,-41.4158321814083,1776.85033999825,-238.523416717555,1281.16215404954,-132.507093193402,1500.15978543239,-263.277454727004,643.492902320407,-102.944053093234,318.050580287892,10.3250185753603,395.602780859381,-46.1140970381679,834.151436921526,-82.8623076279532,303.965142697,-19.1420164972063,1917.27045600117,-154.050763467501,581.973989186532,-57.4411968749429
666.849268388826,-21.227344273811,1700.51197724806,-113.561243158944,841.542433564641,-101.830523159642,2299.47122491452,-339.215332000528,609.640669399428,-41.3418539677469,1780.6651118994,-240.248739773389,1288.71909123582,-133.572234740397,1506.8492220915,-265.189394429552,647.21962723582,-104.356896221217,322.337795156191,9.90213728536594,400.134203832091,-47.122874000798,845.962204085053,-85.9660444358565,307.463941625981,-20.0468524542952,1935.60608676027,-157.559647760554,590.761203529465,-58.7281585300602
673.859396056578,-22.1947321365512,1723.66654336841,-117.641310054661,846.202589268015,-101.760182865922,2321.85194090731,-344.401015305643,618.295856186981,-43.450586292521,1794.06750283649,-240.418254599359,1303.47653062028,-137.30154030248,1522.00874306987,-269.21764840783,654.019184611863,-105.672311609189,328.080896901279,9.50048911173529,406.815295664856,-48.2958403315491,859.242928763515,-87.2116921737301,311.218425090544,-20.4129639296894,1962.72429155449,-162.761781183634,603.234660223586,-61.551267522882
684.926791786276,-25.1516522798124,1744.09096021526,-121.127300610199,857.055773846421,-106.335722911048,2339.39237352174,-348.570133036582,621.017187506958,-44.2382912016728,1808.24384591213,-247.209657002201,1303.73951507311,-137.524290479671,1522.96483089169,-268.734543681672,654.538957739221,-106.341341265891,321.961459225075,9.76454343027495,400.634816605665,-47.040852491315,845.005110546537,-85.973321468316,308.331651218011,-20.4013991500523,1939.18970974284,-158.364955028231,583.435041309473,-57.6648938369172
669.246791368915,-22.8364835845381,1697.26869970727,-111.375300082851,842.029992284959,-103.674014543354,2290.363714946,-337.269761960452,608.925238672253,-41.9313383164866,1777.129586527,-237.31476253437,1285.40581932801,-133.272869967202,1505.34794553962,-264.437350347514,645.995025519364,-103.603502339823,317.932380636353,10.5209902081111,396.076921002354,-45.8357767906585,838.46223163996,-84.1265498903819,305.097421661262,-19.6668679466011,1922.77173174679,-154.107158148058,581.39086037688,-56.9952051447396
669.24169716693,-21.7875489505717,1701.4871950306,-112.435215765217,842.969702989988,-103.913762503985,2297.29024248448,-339.082242399251,610.862690059681,-41.8306813531866,1779.45807613396,-237.681021170433,1290.18394160535,-134.407883962494,1508.35608633973,-265.249338931065,648.428091675186,-104.101963323305,321.494218278676,9.77263744308114,399.514870222132,-46.7985891595608,847.13180873968,-85.9089280593606,305.998001880816,-19.1199049892302,1937.92851125147,-157.272379463348,590.667382627183,-59.2555467162383
671.97905663632,-20.1964897498781,1722.44049025369,-118.839605343676,848.917632115676,-104.459605793836,2321.89622588733,-344.498322244347,617.424687628257,-42.8362358603761,1801.16115188918,-244.813310767295,1301.11586470457,-136.043398881049,1521.31634586635,-268.702761491316,653.983701380374,-105.596649481665,326.44560191847,9.56169740807259,405.114559751054,-47.7913348394041,859.719613174966,-87.702289768814,311.009986322527,-20.4955468628418,1960.81615917053,-162.183544907691,600.817520367404,-60.8501455213595
682.549146580064,-23.2917801586875,1745.15563556688,-122.196304072149,856.8948177109,-105.721125620096,2339.62175729225,-347.908624709665,623.020457808719,-44.2045594680604,1813.82251480005,-247.791473048472,1305.55235434951,-137.229035289128,1527.05888687372,-270.247794153725,655.284891703399,-105.913843820527,322.277288439123,10.1275227542455,401.43548825717,-47.2431156994269,845.535187498121,-85.1025954537145,307.445672283331,-19.5024609954151,1940.2465737283,-158.008897066062,584.944657154049,-57.9985704877749
668.065868682071,-18.6259438054805,1703.23762318886,-110.499246033122,840.703941086965,-102.29222223741,2295.71639974179,-337.092297750679,611.178702269038,-41.9322454675935,1790.01936018405,-242.508866041951,1291.1719308205,-135.255250348558,1513.39512641226,-267.482611623678,648.823494577763,-104.502659823132,318.277400527902,10.4771753822445,396.835796864898,-45.6529346405347,841.336319895736,-84.2300601476656,305.514933535266,-19.3413897090564,1926.83072846125,-156.469756096311,584.119159534757,-58.1372771013014
673.650172082373,-22.2561438689641,1712.90983426356,-114.398779113593,847.483463726976,-106.184326463747,2308.56771058085,-343.831777672046,614.579596199458,-42.0376345040701,1793.66279546971,-243.229961183489,1296.48174793473,-135.169385646964,1515.53111575665,-267.547419076796,651.120838848506,-105.145061930548,322.232241136549,10.0201454563107,401.039079547747,-47.1532888255735,849.733668180826,-86.0690361533789,308.117778626875,-20.1190918584033,1940.25445074868,-158.092555906468,593.574290291093,-59.6452487514932
677.311248787794,-21.2688376096595,1736.78543008052,-120.311703486475,849.375855970771,-103.91094207571,2330.22981368494,-344.803081590749,622.1341317993,-44.0067124564961,1813.01292462199,-245.483217240303,1310.57421474147,-138.522081169423,1530.09261326139,-270.680883143144,657.01332573171,-106.250626376787,327.89412476234,9.65791813797666,407.162387868913,-48.2311804894489,864.918987125492,-89.874389206366,311.911305854175,-20.2863328689666,1967.47852913457,-163.23776709827,605.279502325482,-62.7311571336237
687.188888292801,-23.2985364055607,1760.41063819013,-123.752534780923,860.064167594311,-105.423025205672,2360.16518848072,-352.105866949493,633.098371476409,-45.9005912085891,1831.16895824819,-249.112209413624,1327.23388298175,-142.103634529065,1545.5745579761,-275.129617064918,665.937345077605,-108.796864583776,335.711447063157,8.09773248019313,415.669296311247,-50.2758181409335,880.551341251844,-92.2564461851696,316.951602528516,-21.669870519219,1989.6892749433,-167.757188450158,610.402355274204,-63.6626108173783
681.791604400396,-23.1070731527015,1727.46168384682,-115.966904543577,851.420856997331,-104.650714170375,2315.41778734123,-339.907805723922,618.44203252044,-42.403347005887,1814.04509681095,-246.885317711539,1302.3606249846,-136.53127712522,1525.19269782532,-269.673930145414,654.265637642031,-105.95032074723,319.474520449233,10.2188251818758,399.720366445181,-46.077774136819,845.323169925916,-85.285925063471,307.615695571698,-19.6239865026219,1936.6342848301,-157.93591430127,586.24271252381,-59.5600843281622
681.619655021354,-23.9062822720825,1729.51701428624,-118.297383410247,851.837894074425,-105.696633262074,2321.18472173411,-347.717025066856,618.756296864745,-43.1180113907841,1809.44170757486,-243.832949318212,1303.80178726928,-137.62494253503,1525.46803476963,-270.201341309536,656.024984959188,-106.226095617922,321.827453456631,10.104601033492,402.382702089289,-47.3226447069988,853.535356509344,-86.6778627254712,308.779375434401,-19.921165014567,1947.53330189285,-159.678644248368,593.506853416297,-60.6969383786741
683.678244239545,-24.3295055957886,1739.98517667018,-118.48477820553,856.319090630598,-106.229022751005,2343.57284173105,-349.846334589751,626.115044290673,-44.8151785016791,1825.83016570797,-251.558528191444,1316.60413533541,-140.498652457201,1535.92783504801,-272.745440181047,662.160005262071,-107.759472445009,327.8654847122,9.50524572461734,409.61908821033,-49.2696823125076,868.929149556494,-90.0087786566221,313.607922489043,-21.1046568404723,1977.16706554208,-165.185240517772,605.071805737396,-63.7051172996162
693.193835215529,-26.1614671249134,1767.0440880285,-126.09206775946,864.863064841819,-108.369075845301,2368.7698751358,-357.996266784458,634.475788959013,-46.0476999254246,1843.45762433517,-255.584381835552,1332.47341635132,-143.713027749292,1550.04302099206,-276.200757206548,668.823870570347,-109.231270084458,334.788480721559,8.17655210505163,415.897441237279,-50.1515085750749,884.726757761087,-93.3665988553602,318.082831568872,-21.9489503667886,2006.73169951826,-170.509321986607,616.372392401867,-66.0114278901068
687.813828637656,-24.9623810567382,1748.40479822474,-122.291435686743,858.238716133042,-107.750346488693,2342.79040703107,-351.420026601234,626.118054232769,-44.5279483401042,1830.97404979999,-252.829298000236,1312.15922589944,-138.862618660211,1536.42496729686,-273.498471849892,661.872872962608,-107.870975641715,322.609751848798,9.8604568685357,403.566766329891,-47.5557158962745,855.176063995954,-87.3962800411065,309.697412436873,-19.8556469408388,1958.76737694761,-161.937314977666,587.88686380961,-60.682400156135
680.688266301996,-23.0759315092517,1736.03809510041,-118.321200955473,851.942153446807,-106.494700703997,2331.07816376618,-345.49882970838,623.412025627635,-44.3349329238548,1821.92910074874,-248.565142318102,1310.42643907362,-138.793505852125,1531.87096906575,-272.174343160843,660.800552657055,-107.815941895288,323.403416448972,9.60864568164583,403.948304965153,-47.5382747756842,858.952635623728,-87.8429442934697,310.200137857533,-20.2735374778703,1966.28355955184,-163.91048465006,593.139443725855,-61.1153355847549
686.221545408256,-24.9865983062973,1754.07748892369,-123.781554127665,862.834140220167,-109.463115123568,2347.36941107297,-350.861366752417,629.907466051197,-45.4881482912496,1833.10345773648,-251.789970280385,1321.34128783852,-141.306124371655,1540.56875615462,-273.791836119807,664.605542042042,-108.49498855291,328.526304195646,9.4329081265886,409.396808017777,-48.1534300464905,871.945977423807,-90.6105777725276,313.736988146727,-20.9207612504092,1986.55052307038,-166.586909196873,602.705543962688,-62.7690922083942
692.273710075679,-23.5045831262966,1775.97630458153,-129.137314500083,865.269500004716,-106.712749767907,2379.67751478293,-360.711356476684,638.961249369145,-47.080648923658,1849.6503296324,-254.266591496219,1333.44817260672,-144.336829512611,1553.76784865233,-278.471201554133,671.089958069452,-110.049909062388,331.130469465566,8.9915912466375,409.630233467899,-48.4607737743909,868.956453675853,-89.5123187497231,313.398434450096,-20.8200995161832,1977.78209517132,-165.44527496472,593.448266988304,-61.7688967644154
683.625124910712,-22.2047423228104,1740.86903507496,-120.504785621849,854.76847043863,-106.937924911483,2328.72692073248,-345.950460160692,624.310758023183,-44.3433467708204,1824.79036555924,-248.803370593234,1307.61448118222,-138.748452043803,1529.84466563843,-271.504275873086,660.157470896202,-107.612682149141,321.520338357384,9.82605083835379,401.699388099142,-46.6328604997036,855.669235426903,-86.9836955107009,308.26214122336,-19.3120486441496,1958.90365670603,-162.421090184157,588.755219135773,-61.0247440000024
687.085643263903,-25.8033053663207,1743.16933253552,-120.260342130931,854.528751493557,-105.629566169865,2331.25894927683,-345.261780316071,625.741073049188,-44.0876910300964,1823.10548723663,-249.232351848684,1310.24912870341,-139.524850965385,1531.4721680269,-272.462386131991,660.109202511311,-107.242464263051,323.446725636937,10.0922338399987,404.010205844856,-47.1744101365368,861.37929000928,-87.7950745267366,309.544005905539,-19.8923253267965,1968.04633303493,-163.295958236483,595.840995976362,-61.9028917054109
692.020379919603,-26.8646602182595,1763.34454220433,-124.979578405464,859.698255640552,-105.212907378239,2354.77118076289,-350.500726228923,634.528656754838,-46.0303574430084,1837.13396392484,-252.681040571109,1322.68272485616,-141.579350268728,1543.3144431594,-274.155226892837,666.695382224097,-109.279793453774,331.158163406454,8.5902492739966,410.477200348065,-48.3412688444408,877.054986239261,-91.350642416579,313.798131572519,-20.5638830139802,1993.20944029687,-168.088120307418,607.283707153014,-64.04385080299
700.025874062323,-27.2425649747756,1786.35861184775,-127.023016049132,869.628466038647,-108.75328724804,2390.6429954857,-363.857945830212,644.689284918523,-48.4848021370965,1862.96743577105,-260.058049150108,1338.22228101716,-145.155137888272,1559.11790677153,-279.02062401594,673.362725685844,-110.696462203354,338.023060027477,7.92976692247556,416.944628158931,-49.5491114802131,888.209795077931,-93.0686099738615,316.480393724871,-21.1250824792434,2007.78954061941,-171.949969072932,608.449465465243,-64.3103507684601
689.759280515827,-25.8689556726089,1750.75499104268,-120.908282089346,857.062547492658,-104.958308999344,2347.29833776395,-352.925625792675,628.233031983441,-44.8463561972939,1831.3877796985,-251.337121918305,1309.34687573812,-137.893788094703,1533.58176737764,-272.105716238923,660.860950714759,-107.514770781116,321.8604665477,9.89016272715779,401.939169253336,-46.3935855674652,857.09562082937,-87.2601315423287,308.942194613696,-19.7068589376909,1966.4765750529,-164.047568923331,586.603027881476,-59.4279078072076
682.439584698283,-22.7380500485537,1748.49050956738,-123.031632982689,855.774292335937,-106.353932417236,2342.13487803518,-349.657382453838,628.364619314846,-44.7252587501122,1823.10919107035,-249.799822188124,1309.50229775457,-138.0423934609,1531.49529832425,-272.211541809491,661.278090832179,-107.116519574656,324.112480491385,9.6224980726381,403.460193911748,-46.6147106930337,865.330125194831,-88.7456507495205,309.326031044848,-19.3711826070017,1974.073619594,-165.586516293982,594.267665274974,-61.1548631477296
689.101465398595,-25.9403587823828,1763.8765280664,-124.497508719107,860.803756132258,-107.395729640875,2362.91802787054,-356.077600589817,633.523198819568,-45.7647361279521,1835.43409040564,-255.161316150345,1318.50061057919,-139.578942201851,1540.35572894678,-274.088402821268,666.214162677663,-108.92435080974,330.071215250182,9.11069416110314,408.12678195939,-47.3230769050494,875.774052719841,-89.819917409959,312.61627218582,-20.4038311488025,1995.16287222154,-168.098311975693,604.741152959155,-63.2928127144518
697.12516409827,-27.5806945769617,1783.34908617169,-127.802890889579,870.000865095277,-109.643170439758,2384.09909689057,-358.929992521723,640.604494971082,-46.4127599437433,1849.15709360177,-256.200418519211,1330.98322419347,-142.647928737786,1553.04132514945,-277.139962076471,670.94981596116,-109.863467683541,331.716195945617,8.63508985954589,408.318730237046,-47.3883511396239,873.142863370028,-90.414498474231,311.213887330653,-19.8743143349257,1983.98969051154,-164.991754191341,594.930903597221,-61.6627353007286
683.568006769335,-23.8325488984528,1748.30369783019,-121.502869288449,854.279074156944,-105.323659156241,2345.77068376325,-351.56774301728,623.868471066868,-43.3094549025758,1824.36411235064,-253.236425127726,1302.81884979787,-136.237384160986,1526.57136154323,-270.475444092079,658.965515541668,-106.837928671881,322.787878175118,10.1452592352638,400.987468520511,-45.9455245014395,858.606992714251,-86.8288181421533,307.141516364231,-19.385815011048,1966.85497324258,-163.265468699245,588.438783939618,-59.9106565227151
684.197880815086,-24.8401703540894,1749.39459693378,-123.066416187062,856.305716117115,-107.942774434077,2345.4784675004,-351.521089855556,624.99798463445,-43.4747974384575,1819.41349613881,-249.683933413248,1304.22795544013,-136.698316718056,1526.55796927716,-270.204698613888,657.619101855789,-106.163758062219,325.072182166541,9.62608086961547,401.499273680193,-46.1150219374297,864.396476316178,-88.3864624346265,307.399694607221,-19.3035994348229,1973.64340374508,-164.829717205867,595.876768954272,-61.4515061667165
683.282374397339,-22.0539214731168,1761.07055824107,-123.914958702963,862.785019731072,-108.295463029911,2365.07623965999,-356.76203385007,632.32029016171,-45.5901849313156,1828.30324023285,-253.106615905135,1313.3921812997,-137.814393968076,1536.29333725546,-272.828383567053,663.104548963873,-107.928080735709,330.028217149334,8.89755155120998,406.274499838045,-46.753222063085,876.31340241843,-91.1738454794141,310.763996854527,-19.7040641482897,1994.72354116449,-168.361434178102,606.500612388861,-64.0496028128157
683.63295768374,-24.4784922379893,1739.97548112985,-119.924996636806,855.059606094815,-105.598729547824,2339.5403940157,-348.519451713287,622.804965233018,-43.5924165187412,1814.0909295622,-249.699632295013,1296.91380352444,-134.922264543089,1523.14850026301,-269.796295204708,654.309524930114,-106.023969896084,319.749364728965,10.9132609423471,395.92821050718,-44.9023719259829,849.273107297689,-84.623798119709,303.491812460753,-18.1304963440971,1948.11127197413,-159.884641609441,583.214417020479,-59.4000704463383
675.984410167741,-23.4836395314745,1722.76601506375,-115.396505512841,851.264962046247,-104.699551361205,2323.11947903883,-343.891612719133,615.390252953215,-41.8144644252546,1795.88576375984,-243.234303786756,1288.91201447548,-133.485422806177,1512.95123106912,-267.061547089868,650.7667168938,-104.718866560607,319.778348989373,10.6444322878049,394.440713020063,-44.3898302442014,849.496648439904,-85.0538284138608,303.067343864826,-18.4827978018041,1947.9147581619,-160.364474657673,586.765015754201,-58.9443268675531
676.768756899148,-22.4768189269966,1732.86553736316,-117.448134707011,852.812846350272,-105.174140199561,2333.98276525752,-347.294023582707,620.080828964736,-42.6126706923049,1808.36207499333,-247.983672209111,1296.42735023552,-133.93897409255,1520.84841492887,-269.054759297154,654.54717632383,-105.802986957812,324.253862202685,10.2748269707334,398.367580131435,-44.9906380466016,858.881560408071,-86.8673746726352,306.245378903191,-19.0796039479805,1964.59453203996,-163.016557599174,596.549199188795,-60.618664533697
681.576192634076,-22.1136320200035,1756.8298421628,-124.140836812625,859.315425445458,-107.621078143573,2355.70762433641,-351.977791890442,628.681501124107,-44.7671112175431,1829.12733507356,-254.375061862077,1309.08640333859,-136.456950993069,1534.11702236955,-272.233463946248,660.924936907477,-107.044600539811,330.932821590983,9.32033795434379,404.907249469727,-46.2662750448309,874.512850367409,-90.0042704462691,310.345866076568,-19.5608333033825,1991.20148624002,-167.754590563223,606.522089935291,-62.5165986461345
677.897374197498,-24.0740957149131,1731.78039323003,-118.487580138735,852.809232535478,-105.718789917523,2329.53758836252,-348.278369985725,616.004534695998,-42.1113081527221,1807.5450501271,-247.672871295758,1287.39780362297,-132.550641899797,1515.19874187327,-267.599808075703,649.907580992724,-104.461089835898,317.833462518399,11.139070402802,391.25977874786,-43.5710991891647,841.803176550608,-83.0431425672198,301.912839683176,-17.9974469254259,1937.03115779688,-158.175042776017,578.383046067432,-56.6106168447383
668.454705804729,-21.1112818147364,1713.45311875573,-114.846792651334,842.112284654506,-102.017023356126,2305.1715306658,-340.763099591092,611.204893033003,-41.4676938493143,1789.04813392937,-243.863543386912,1280.91015724431,-130.936336103228,1505.40983114273,-265.351391658271,646.45204828821,-103.605924328391,317.765976441926,11.2494041899016,390.957463809804,-43.944989316213,844.502885935629,-83.8242706999149,299.911852413765,-17.5185064160126,1937.76807615246,-158.0254051439,584.446658121801,-58.2975970990618
670.952426074241,-22.0775989299595,1727.58356192001,-118.991321261995,845.758826817846,-102.554527052457,2327.74716237126,-345.904103608778,616.667353778246,-42.8088042871108,1801.41117343129,-248.270027885795,1289.17610385308,-132.263813644063,1516.18046546363,-268.25664682631,651.64089187718,-104.909458117781,322.609234982618,10.6107815352202,395.418079189131,-44.4662235898474,856.913683156183,-86.0769035402165,303.479257917899,-17.9526469604649,1960.09298297603,-161.968916958815,594.736057079954,-59.3371576818133
678.213730823098,-23.3008390226023,1743.99031553136,-120.610688123668,855.009939603801,-104.390625632729,2352.06607837376,-353.213957518777,624.304283598209,-43.8993313412738,1814.85876389192,-249.217166527702,1302.35372872209,-135.192136953097,1528.74263864577,-271.190818765114,657.283413115578,-105.697883814585,329.36225487439,9.55389378177939,401.877325132447,-45.6833341682847,871.266784181457,-88.9610429915992,308.444435077859,-19.1582964137368,1986.19483172866,-166.557666175702,603.389446303135,-61.5035042989902
673.996566568229,-22.4129457216671,1719.6912670717,-116.733485922175,849.561082854703,-105.504579228522,2316.36086754536,-344.394484603134,611.372280288025,-41.2403882848248,1795.28046823629,-245.124021882343,1278.87867010417,-130.439760714827,1508.33502231285,-265.519639695263,646.283613150022,-103.251274688913,316.697013135757,10.9059699232318,388.626671121356,-43.2694206119392,838.536001596715,-82.1337114778342,299.587711903389,-17.4122076137109,1931.241641051,-155.742758435799,579.152371243317,-56.3633265680658
668.334534367354,-21.8894789020995,1704.86297534714,-111.08219060153,843.063904759559,-102.119968761542,2309.10221804369,-344.556228492925,610.461630473609,-41.1847954910559,1788.19233438168,-243.125159933611,1278.09748314798,-129.980628826801,1505.71707404477,-265.420322599874,645.031178885102,-102.870630150587,317.131312581587,11.662316633603,389.955879718641,-43.560691047311,843.670143998904,-83.488480843237,299.99939036857,-17.5504511716579,1936.02386367315,-156.703616709512,584.838480626717,-57.4689069920983
672.812706384715,-22.2189564111205,1724.4512337387,-116.13162510481,852.608896785425,-106.818570668613,2327.06228524249,-346.228377710428,616.58500744327,-41.9882099015662,1804.3142898365,-245.049697108147,1287.829406177,-131.358006495096,1517.00429991372,-267.771048866091,650.117509883661,-104.07219967512,322.820181108927,10.7310536303128,395.006052764565,-44.4457625624351,854.840781756662,-85.5263431976665,303.00899111422,-17.7776859748979,1955.2255043564,-160.180541313628,596.476957285246,-60.7033044479308
678.733036683822,-21.4491838972385,1743.47063172536,-120.31320239553,854.92057645728,-105.171908965687,2338.18847933578,-348.096377885283,617.417600517733,-42.8448454796575,1810.836911656,-249.977261928313,1286.08106748743,-131.591463618384,1516.59035006215,-268.163343322043,648.360213675244,-103.63365490019,317.761976775341,11.0604811785101,388.949531951068,-43.0098556593353,838.498632268341,-82.4357580217098,299.667651318741,-17.4217305829064,1930.66374034865,-155.239735819777,581.056322631031,-57.6521813446505
