657.064937838049,-18.0177494713743,1653.79830121785,-100.574663671568,833.857143459766,-101.738111417048,2243.85908396236,-328.491529494851,581.79771548612,-35.3286094014574,1780.72163031114,-239.168724441554,1277.57510187635,-131.302096048475,1516.37139844048,-267.631755227412,641.251354632691,-102.054843124062,309.808554934797,11.5721114034641,378.532744099796,-40.9639561173989,810.603227868565,-76.8971073117653,297.354535941523,-17.5124298438443,1889.00852271858,-148.549334573793,589.887309643093,-58.7595868136211
667.726956054123,-20.7427590726029,1680.49235364347,-108.158886943395,839.900048107774,-102.610004237572,2266.08535505962,-333.173811971076,586.094483318146,-35.9441309228731,1791.01747937623,-240.515119175715,1276.97254805138,-131.003501822028,1519.3124285998,-268.623875609253,641.074841987307,-102.199098114453,304.162180201,12.1270493003747,371.072592029489,-39.6338155887859,791.001503750193,-72.9274760019186,293.737655568995,-16.8981051786945,1858.47636676582,-142.084304797965,569.446861664989,-54.8210059684558
652.576131818059,-18.8982812414957,1619.21474393484,-93.0143870509252,816.333014925369,-95.6763676995702,2195.92930681116,-314.267736784452,565.843162298891,-31.8203046082387,1755.42380670536,-232.367569728986,1254.05681886878,-126.027087890027,1497.10848892654,-263.079399673271,631.16409702824,-99.8272219176528,298.078445969198,12.7883231937241,365.244287722971,-38.3300918817457,782.6192015721,-71.5272670982586,290.30339558995,-16.351070530786,1840.7420655861,-138.495924454744,565.350765625323,-52.913535202371
650.42335124091,-16.6726852782551,1622.92670302986,-95.3817907783617,817.906982702363,-97.9750194628795,2202.31694386192,-315.853352454687,566.878827777065,-31.8964976666373,1758.51649778747,-232.688608076717,1258.29341395277,-126.890510332621,1498.75048044047,-263.569398693308,632.453783290415,-99.4740445427646,299.884013481969,13.4371287354616,367.858719151607,-38.7166159820236,789.692756271324,-72.4338430787739,291.26203167909,-16.0426322664597,1855.00154412912,-141.814241426132,572.985288365553,-54.399407337946
654.974566313611,-19.1293222685605,1646.57025439169,-98.8561545632043,826.046065621308,-99.4558084386866,2221.79771663436,-320.52684431763,574.640432229774,-33.2884821855322,1770.43739493352,-236.785342088609,1266.40456832663,-127.34902354741,1510.62081093463,-266.73663402946,638.896033390554,-101.143692008097,305.581294274827,12.4202756026139,373.534249456515,-39.9620714921956,802.621250264335,-75.2342374029873,295.519346611514,-17.2236916369872,1877.01062527549,-145.101978204568,581.519422783434,-55.7754382221434
661.605399224609,-18.768378152716,1661.34721232372,-102.306238080386,829.567677967969,-98.8392022214403,2239.2213852908,-324.911369498009,575.809064776104,-34.1562195263122,1774.85881907378,-237.331664285811,1265.03124713161,-128.041863681708,1509.02181403691,-265.68182397107,636.52286447446,-100.570417063462,299.699573433026,12.7504993279173,365.940824859278,-38.4031258179277,783.991331632331,-71.7854548446244,291.639045974747,-16.2901269526416,1849.24254998797,-141.35783141146,565.255233626333,-53.6324852589716
650.067666079401,-18.1431103245491,1615.02311317978,-92.9292235849983,815.48995392042,-97.6375019430307,2187.34133164811,-313.229193146722,562.744479294862,-31.0893567655418,1756.59370343126,-233.550034877941,1247.22764973562,-123.02822301673,1493.51718587108,-261.581167500876,629.260247997711,-99.1071819061981,295.858593168904,13.3881014035206,362.689065646408,-37.7861481462555,777.218997576123,-70.1498815897618,288.036120745299,-15.5012572896945,1834.05056522696,-137.43633255147,561.974341422516,-52.0294152664181
653.027196226955,-18.4914660754037,1622.28555704437,-95.6233410715167,817.535813285383,-97.307130671426,2187.87603269754,-311.775698504825,565.514214938194,-31.3120177818035,1755.24906072617,-231.170666081618,1253.43058050904,-125.062122873434,1496.22511345677,-261.907686003339,631.634437287669,-99.1329933599361,298.466837597695,13.3026623294825,366.52137889298,-38.726099681243,785.932089150936,-71.9450299267341,290.548655613577,-15.9059508316303,1849.94047179426,-140.775150548,569.761175185293,-53.2186165127493
654.069285387354,-16.8973818146875,1645.42339057611,-100.542445891639,822.153075781399,-97.0638187645083,2214.36194454174,-319.088039374009,573.691497661166,-33.3143797545513,1771.17515646515,-236.983991547018,1265.44880254209,-126.996022885614,1509.74247756722,-265.288339339411,637.626419208977,-100.799114103743,303.875045237122,12.7615263808366,372.480837992512,-39.8181716878125,799.702474994646,-74.6456232322727,294.67214510694,-16.5280724135393,1872.95711588586,-144.107763270134,580.305398988733,-55.0047374389103
653.699687102568,-17.6655598778753,1624.0423323632,-97.7701514079969,814.360811926327,-95.3619039969519,2182.5821143466,-310.062405666749,562.91612754797,-31.0974207853748,1760.83896338632,-232.64708469908,1246.08481869899,-122.563065813057,1496.33603574417,-262.026857083653,628.705623352836,-98.6062179018678,293.546448374637,13.9352956600844,360.119860225443,-37.1208168051023,770.060014114747,-68.8254190848721,287.028336943195,-15.2683468333442,1822.86935074351,-135.114378126535,556.090123376812,-51.0748228729756
649.677007702462,-16.3737364238937,1610.63207349079,-94.0120569663158,811.935782441887,-96.4569213379238,2171.22274328295,-309.413220281023,559.467588912593,-31.1000547137463,1747.62827897637,-228.592914014719,1240.9275524775,-121.590531933352,1489.56699629459,-260.347431089054,626.062470410723,-97.7208288505723,293.067975430606,14.2066947124277,360.090894636303,-37.1164012159332,773.225502230896,-69.7886813733609,286.915831849949,-15.0287634491425,1824.67477338199,-135.573177137716,560.363015021695,-50.8548449911858
653.895677009106,-18.2282645518019,1626.23570340596,-94.2330627172531,818.498202989358,-95.9385243095632,2181.68364753578,-307.979588757866,566.070357778262,-31.5836030632439,1764.26935111584,-233.326464251847,1251.80171751387,-122.839493869011,1500.71272427037,-263.01810112535,631.866804743867,-99.5584059879856,298.815750129994,13.3363068108092,366.497083942371,-38.5097150354013,786.449236702679,-72.4054905042387,290.028103797332,-15.6049560542787,1849.05010653538,-140.950551059499,570.350699437625,-52.4176219024785
663.624754037494,-20.9585517485706,1647.387820142,-99.7127617496126,826.771486707948,-98.7254598286262,2208.33983237671,-312.883630474117,575.118865348589,-32.9085382906074,1782.91354572737,-237.912882745742,1265.61036629055,-125.349747851602,1514.88471307742,-265.694081281216,638.088819891405,-100.411775743198,305.197090488829,12.4756614448679,373.376509323503,-39.5634547507419,801.473623312668,-74.4552702622203,295.27297143929,-16.4035162687611,1877.14014481548,-144.736620112998,581.95695810201,-54.6550383601107
660.91916686258,-19.1625392359812,1637.88319163496,-99.4927910723119,822.974238170853,-97.3297206113723,2193.28310576035,-313.983303835716,566.473960812086,-31.440801882683,1773.65398332405,-236.517556487589,1250.22234695986,-121.99590196229,1502.20597555334,-262.707981144639,630.924027656946,-99.0492414741616,293.740026311824,14.0828777205692,361.670724275625,-37.4706935701012,772.540712718484,-69.3590500189622,287.482766284251,-14.9596574238222,1830.28762671128,-137.378537076298,555.410643164341,-50.0569483198819
652.143599299866,-16.0831088073797,1616.71834299791,-94.8421211918335,819.309307068968,-96.9197095188814,2168.96488158771,-305.710344513656,560.675306905527,-30.4964393120273,1759.62863944641,-232.322304541502,1240.4894782633,-119.914723636644,1493.72755202599,-261.123666139937,627.468225831188,-97.901702520705,292.327158116516,14.1908526966603,360.201708115969,-36.9141434873529,771.786802128941,-68.7975754930199,286.952624895104,-15.1349636198765,1828.11809049304,-136.181538689686,558.028879008857,-49.0476144014179
657.932062593819,-18.6961875619639,1630.74157928394,-95.152551461836,822.241887242541,-97.0297504111781,2183.22115672856,-307.617554780401,568.251540245607,-32.2136965343446,1771.17212820974,-235.490753493228,1250.74484852513,-121.388888902037,1502.24069438842,-262.643164420965,632.583058349927,-98.9174789246314,296.575177676678,14.3328334330732,366.212346062951,-38.0034910251759,786.273293278138,-72.0916559869568,290.759515526306,-15.5167253223013,1852.70844686514,-140.667798072189,568.756952379538,-51.5156862474628
665.268666382587,-19.7741284629031,1654.61651359981,-101.820407904727,828.368977101496,-97.7838900113099,2207.9997515153,-316.191037159583,576.316196049629,-33.6990832616554,1788.59567554422,-238.139671785848,1264.05443528325,-124.444019502355,1515.27680442095,-265.983820491329,639.684692195205,-100.75526430859,303.0221863524,13.3957654261568,373.130327144945,-39.2235550711153,802.090909242487,-75.38267603137,295.71299988194,-16.6961307875578,1882.48430916816,-145.798574252963,580.865879532116,-54.2797146360847
673.86519518434,-20.8119864687446,1676.87766072417,-103.843499951782,841.599494817033,-102.153323963034,2239.57653066401,-321.025438732003,585.581249287118,-34.420328104867,1811.31927808501,-241.874629807539,1280.38132523671,-128.027973935831,1530.73671617215,-270.150287543262,647.899493255938,-102.790308346257,309.550277361049,12.6055302007228,378.299654417101,-40.712923708664,808.75986979501,-76.2005115364302,297.575086223137,-16.7894022319279,1889.42822636029,-147.391327155135,576.359830416808,-54.0729783245534
666.049115878564,-20.1535705635793,1641.3715182237,-98.0449698582259,836.273340906538,-102.328425967218,2198.40447949521,-315.216372034017,570.132137296641,-32.4073625254485,1782.86234770699,-236.387879396789,1251.14554392016,-121.741164824535,1507.3503442783,-264.916403568323,632.70743971825,-98.8662160655973,294.123919468779,14.2830810891715,364.58894212485,-37.8126259276168,780.074342555515,-71.0403571700929,291.109338053075,-15.4430073579316,1851.08245238586,-140.162841103524,561.051128233569,-50.6917110112564
668.01878705941,-20.6084757766784,1636.95150577185,-96.4731468224468,833.354060364372,-99.9122967718183,2195.22139105233,-310.54424107031,572.126344327221,-32.1622842157095,1787.80885346555,-237.717193851927,1254.76430908173,-122.818864156735,1510.04131144843,-264.697983013142,634.872802177659,-99.6840276162883,296.506914285952,13.930238026817,368.314760744362,-38.9811979023835,785.809928959888,-72.006009547329,292.208699914254,-15.687572321248,1861.7970803903,-142.493829971084,568.528716737088,-51.7466934407578
669.508343057549,-17.9651792807876,1664.37588903238,-102.860830256758,843.049142552762,-103.088388394324,2215.53009466892,-315.201980615026,579.797566662143,-33.5375460160793,1800.0661097432,-238.953114435196,1266.39919717954,-124.649826921663,1519.80256827052,-266.658205403906,641.608432580829,-101.617687015777,302.63791798335,13.292442360205,373.920512621501,-39.4376689077598,800.38081347376,-75.3052789886515,296.161867233635,-16.3895185771186,1886.19501051802,-147.406995302321,579.901138157206,-54.2888622483589
682.951388256054,-24.00075415556,1683.636434407,-105.048824281177,850.588014952879,-103.811906428371,2243.58315469447,-320.924255553827,591.053272681091,-36.2408230494943,1827.76877578636,-248.298081945297,1282.41507131126,-128.563513195683,1535.52336643334,-270.584325946614,648.382211608776,-103.006354729616,308.67002479782,13.3398168066607,381.383353758214,-40.7480988764682,815.289902377332,-77.1832339477065,300.794108970246,-17.4664492681495,1903.7119326374,-149.32195281093,580.755780129057,-54.2065762286104
673.748299676899,-21.677057097945,1649.77265829919,-96.7957915178553,839.753251686985,-100.982002321325,2203.16434864826,-314.922596710971,576.184666877326,-33.5328106709418,1790.02350178878,-235.208155447996,1252.89185624629,-121.595319084534,1511.18731344579,-264.457857361264,635.468228705,-100.007343847689,294.02084912362,14.2496675537383,366.73654719241,-38.3149581005631,779.248611756949,-70.5404280437793,291.364289217288,-15.1605619364249,1854.18183974013,-141.180571092529,560.173336883662,-50.4211154886888
672.362754610525,-20.9728909273842,1644.77528451621,-97.5736098450625,838.899964030286,-101.725052602991,2195.74633110695,-309.409356840849,576.200719678255,-33.2083900406209,1794.23828507146,-240.77191945076,1256.37911748418,-122.634219779299,1511.58769393642,-265.261025284067,635.350461742986,-99.4237822934146,296.760242468346,14.1566159904452,369.984599862926,-38.901622775421,787.996231406298,-72.474878715361,293.097433121766,-15.5961461091253,1865.49182724653,-143.368371990512,567.59512577014,-51.2205646703695
673.91717138539,-20.6813226393478,1664.27172679542,-101.15826072591,843.045195326453,-101.747523570991,2223.97031848497,-318.335595932657,583.494625846257,-34.5346724978068,1800.22781044468,-241.002314961837,1267.09280961108,-124.498754224428,1522.1744492242,-267.54026057209,641.801401911597,-101.056193608755,302.882166174844,13.4441926259709,377.75102728947,-40.718409176367,804.026260360139,-75.3515579114406,297.423479658553,-16.3995614168693,1891.50816406858,-146.984786794091,580.700252543999,-53.9706124700352
684.813418854609,-23.3274026255567,1686.31774526687,-104.12302854355,852.825393177057,-103.890049242252,2250.21574431988,-324.269818893337,593.361806283216,-36.25475287689,1816.26828890411,-241.546018897032,1283.734621742,-128.888605941266,1537.26540301029,-271.680997197663,650.25684051888,-103.039017366413,309.567062263187,12.7106825653748,385.240093226706,-41.9940340739642,823.298112217251,-79.0964337730909,303.615360536113,-18.1120654831217,1926.07962832445,-154.156828195279,593.237981815324,-56.5312307023767
679.418085712349,-22.9258865832615,1658.30483598698,-98.3748425396193,845.465635856704,-102.528668443264,2218.89709696557,-315.569279834005,581.826644690334,-34.5732505505572,1800.17688249911,-240.67570184981,1262.41915795267,-123.776547697431,1520.87483109821,-267.638435753191,640.000688094441,-100.52774619177,296.582474465351,14.0453944113396,371.976063957658,-39.403051510604,789.107602341832,-72.4382387886627,294.701250168423,-16.2545287193394,1871.23538935493,-144.443163471077,562.522392352171,-50.9477445530331
669.760458081753,-20.5541642900236,1649.54768701977,-98.2016321485995,840.577075163886,-103.121215360373,2207.07392647284,-316.616360603274,577.774579863247,-33.0102041084597,1788.45604340478,-239.460158853801,1256.47351708984,-122.412191342107,1511.88224338685,-265.675082641354,638.164200522623,-100.31336407033,296.72795781389,14.146684499037,372.037984696097,-39.23674841319,792.571886574001,-73.3668086099465,294.329990294143,-15.9989384819292,1874.68470051803,-145.545363559904,568.186003635161,-51.1186947693575
673.772348502972,-21.6186613610254,1660.632841228,-99.6993344516306,841.925921463849,-101.688153397177,2216.42690967473,-314.790829611037,585.158504852333,-34.8339404754969,1793.42093005535,-238.213405387869,1264.60101590539,-123.89161055841,1519.79567228067,-267.707991366626,642.014729886459,-101.364746143596,302.310730599413,13.4612076396528,378.391684569492,-41.0641276618655,805.394357524478,-75.5677717891919,297.631554133615,-16.7141305920517,1894.40729158546,-148.98685488672,578.730974681308,-53.3004330785802
679.620843119373,-23.1801994294851,1683.61616838863,-106.543099433137,850.745189131121,-103.80686655011,2241.60493430829,-321.229532993539,592.843854215722,-36.6454735197397,1810.94183885442,-243.176723830773,1278.84427604391,-127.425468819446,1530.91999575478,-270.591289769658,647.92559932081,-102.697343368198,308.455769012361,12.6589332347865,384.820921826345,-42.3619770827769,821.593067244246,-79.7235640614993,301.779219032474,-17.5724106226336,1915.22526009645,-152.6955356354,585.82971371339,-54.9362227527463
668.637028159683,-19.0547712743928,1652.4226605355,-99.1478889547641,839.9411091109,-101.601185131009,2203.6786338051,-313.665683142884,578.737812932877,-34.0575303747158,1782.15819201935,-235.391283055584,1253.1368872053,-122.474220355256,1508.88329793607,-264.71544055951,635.616104422913,-99.9333012967379,294.418412554234,14.5911623656972,370.939758878796,-39.8931978903383,786.931039208067,-72.836700961028,292.597504449439,-15.9408924344024,1859.49493359991,-142.257080116591,563.535048199659,-50.8100022047067
667.570095513125,-20.7634382097842,1641.40171618542,-97.9919145434612,835.821211873214,-100.032634742725,2190.24102650643,-306.363969586197,576.898518212706,-33.1342509555579,1773.70851817675,-233.716108504581,1252.74938178191,-121.723588124265,1504.94420398734,-264.078710188772,635.064965230828,-99.5877522878574,296.800778451479,14.2071797806029,372.206769573805,-39.6158164692334,793.138051648427,-74.140478125695,292.966386065475,-15.521644343431,1865.09189512999,-142.89050988488,569.987707781428,-51.7321003914838
670.485078974412,-20.3711543905258,1661.52255958531,-100.646510303016,842.374038754077,-102.249446497287,2208.39813244854,-311.322978442738,584.351616464805,-35.5341937821106,1784.89714969974,-238.5021120697,1262.73192747991,-123.482331354414,1514.3833960399,-266.207052737398,639.678062544565,-100.651103192344,302.712252606239,13.790564295368,378.414544987876,-40.753128401484,807.094174994113,-76.4677391866083,297.080501368057,-16.6554226627772,1887.7506127687,-147.651761087955,580.223542568434,-53.2453317531108
675.786187758295,-20.5601511849772,1678.18755396317,-101.630911242172,847.53004864516,-103.817201699743,2242.36088357744,-322.327624250649,592.14076244502,-35.9697604637773,1800.42197122791,-239.302068724085,1277.2462360311,-127.252740104925,1527.13471851133,-269.585859596975,646.417313696637,-102.277174533548,308.544410032603,13.3457693211823,385.540511580171,-42.2597267410308,823.096766706686,-79.9760885563374,301.319297401698,-17.2833593975371,1916.75958846017,-153.122311607869,592.043688344095,-56.0362526552038
676.870558220474,-23.0423206880352,1665.68597620857,-101.284613722934,846.378441303075,-103.330781384589,2216.47198990294,-314.649119126295,582.733033937471,-34.0488640414488,1785.74457124089,-236.636252528523,1261.4240042124,-123.57095786351,1514.87325623065,-266.044018569797,638.429774246005,-100.202812094241,297.857547111003,14.3307003873537,374.349173364999,-40.3146435017727,793.271522914675,-74.2746007969375,295.038100013853,-16.3912745386645,1870.23830354518,-144.795965200148,565.955870105135,-51.1697608471378
662.743984296286,-19.8179955723478,1645.72759566284,-100.290277746338,835.199986254026,-100.589547182464,2195.36982948233,-312.477622840067,576.368494060762,-33.6555762727588,1767.25225343475,-232.193210284463,1250.74548371631,-121.661755428759,1501.45043902406,-263.368386605083,633.558257585231,-99.570277537709,296.213800779105,14.1791557097857,371.6762767823,-39.5889809201251,791.815183837619,-73.9800882343971,293.22174839547,-16.196123305869,1864.30734661728,-144.096597052934,567.908089620711,-51.5599526678912
663.255674488523,-20.141662264896,1647.92902401373,-99.4445811264481,833.976633434897,-100.276300166283,2204.13613401532,-310.583640090963,580.348533036784,-34.5166952550129,1769.03755655856,-234.836391320616,1258.50902996864,-123.252728600842,1505.12336742705,-263.813734813293,636.643283552441,-99.8896922465645,300.87124131732,13.8628487240353,376.525344235078,-40.8751514044922,802.556823957186,-75.7513343185988,295.454171711714,-16.4889969608449,1881.32887324252,-146.770473682679,577.303881228241,-52.866267475096
668.912422526606,-21.7988381419074,1668.06382791921,-100.778902064325,840.273113448093,-101.77699530154,2225.10554367659,-320.124323379211,586.672446291596,-35.3181511243748,1782.39225724079,-237.440624693847,1269.66637356853,-125.77774676081,1516.07735484063,-265.606561240166,643.253160434979,-101.705270723508,306.114448242601,13.0829725262088,382.320607774618,-41.8717224822946,816.738175040031,-79.0107286256965,299.926615111939,-17.6233700376775,1905.47876973556,-150.604570331233,587.892751095266,-55.0124951934546
668.736902393817,-20.9774132210249,1661.50603165747,-102.828246027372,839.442323717305,-101.246939249051,2213.7380611304,-316.954904530587,581.967529385349,-35.5948166701442,1773.54236505296,-234.647789651119,1259.24487351527,-124.450367651459,1509.55207804539,-264.726515601186,637.503880839684,-100.486862947764,298.382407116452,13.7300349308781,373.171954141503,-39.9955224340741,794.716496845313,-74.6810453141391,294.503396645285,-16.6901325270278,1869.45500308313,-144.095501811764,567.088180458525,-51.7532609982652
654.226868529962,-15.6056428874411,1638.6437836323,-97.2041792647779,832.130452056954,-100.427769583044,2191.63880170428,-310.716367138222,575.839041476727,-34.106762749528,1756.81961834046,-231.42258902587,1250.89009231161,-122.284097352274,1495.93429232377,-261.125783643843,633.173641062624,-99.4412450704556,296.284019973439,14.2521441553323,371.493613780894,-40.0576071246624,791.926327666455,-74.2846231683969,291.836418084509,-15.6238764200719,1861.54637252129,-142.63207365448,567.221131507626,-50.6076540879704
660.442756452685,-20.2327419749167,1643.12910898022,-99.4395654712392,831.172815805712,-98.7814992411683,2194.91765062463,-308.145358583262,580.419655913946,-34.5742275034926,1759.93479507207,-230.3981348986,1257.9412407971,-124.013931446234,1504.4588290167,-263.833471007632,635.841471057868,-100.030675157766,300.765775318875,13.7343634622339,376.103621162998,-40.7311066208369,803.259335962641,-76.2387756203168,295.464002233316,-16.9813746514866,1879.41980516599,-146.586574744117,578.421325787627,-53.3508117661716
664.571754813121,-19.6425946653121,1662.74981469321,-101.023739272769,842.382528306636,-103.858406556948,2225.63079913372,-316.935519994281,587.317378355366,-35.6910859341321,1781.29872478819,-236.124448158338,1271.20866286639,-126.747473570889,1513.18199544509,-265.490534241432,642.517462305914,-101.939807433083,307.315483015842,12.7391055427352,382.35490798909,-42.0229812975412,817.175014364711,-78.7462285656586,300.0581116816,-17.6063106577848,1904.94683713797,-151.928869819673,588.458096885434,-56.0301138884522
661.434492946271,-20.1636290184566,1637.86178451468,-96.5821793090355,831.340005926189,-99.804426834276,2191.24404108576,-308.138230487448,576.742307081133,-33.8402487345246,1764.43102462553,-233.054423707809,1250.53419327067,-122.086226618995,1496.98664865157,-261.471690422156,631.910407307182,-99.0131795439105,294.992052847684,14.4221797735257,369.07804702705,-39.1319482627655,785.849564457201,-73.2157385083251,291.420035916391,-16.0840607213245,1849.48140158051,-141.132030965019,564.196639969972,-50.9636696635205
653.09652083564,-17.306193443346,1628.91751415631,-93.8560048685457,826.55597481937,-98.8019075755385,2181.41638734906,-305.532798221432,574.018790718528,-33.1233749581582,1755.23522821238,-231.691656604596,1248.28588803992,-121.596848453502,1492.55803958399,-260.730275849811,629.626485911746,-98.4838093424393,297.24205950346,14.0559306701524,370.959775497935,-40.0582340743966,789.779090880661,-73.2067510319134,291.313182325219,-15.7439751942531,1853.20565259005,-141.097008915144,569.671022164162,-51.1867233251386
659.962667715741,-19.327823448539,1642.99561527729,-96.1561449478328,835.935741298313,-101.115041737224,2203.85831699572,-310.903740230347,580.774313082196,-34.5119222823272,1763.82107794319,-234.022998915558,1260.52162444227,-124.199245757626,1502.38312184017,-262.611615903137,635.53929737983,-99.6681536278288,302.441370147412,13.6576875169672,377.249231503301,-41.2950953959698,804.231924288404,-76.4590635440079,295.243799020665,-16.4722983167789,1877.50748979631,-146.194098033347,580.449003991805,-52.9617884402059
665.479753258052,-19.9524565330455,1666.50964207075,-100.402155850691,841.565031803164,-101.015582323142,2229.04785302822,-316.278509229264,590.146011783621,-36.177284026478,1783.50543346601,-236.355058757737,1275.50299892814,-127.351977582604,1516.68133127595,-266.52043268163,643.019897249241,-101.707752791419,309.271185291044,12.6026816862614,384.467244627219,-42.5696967627373,819.395611709331,-78.4826200444942,300.999790698268,-17.7810220963528,1907.41711824241,-150.929482594475,592.450716386017,-55.5462492204446
658.801643864208,-17.2544707862438,1638.87508118163,-94.7656807255076,830.348689976905,-98.3887773785341,2201.31568219649,-311.2175737223,578.60383295839,-34.4196224520072,1760.89166853014,-231.426599375409,1256.11818704287,-123.298634754929,1499.91014145049,-262.459345668282,633.212648248994,-99.2459760906188,296.97827333846,13.6692397195804,370.729550267752,-39.8732884691014,786.602775102715,-72.2398261979696,292.539382578895,-16.328460842067,1853.38098721232,-142.095505966765,565.084918148256,-50.9626092230896
654.6906353039,-17.2019080738938,1623.87610894183,-92.2814797897324,829.512588463704,-99.0204832885977,2187.73603027351,-307.953453705027,573.9094269369,-33.0800345665944,1751.44225269033,-229.026167745237,1252.3795695624,-123.04969934884,1493.45997230066,-260.54294982791,631.684627437532,-99.0889008955543,297.513921947239,14.0143944922568,371.707899994468,-39.7326809499208,790.834909605742,-73.2409659182639,292.941973930518,-16.5106312929491,1858.24435998005,-142.684444805081,569.402188658632,-51.3174967385691
654.022911953702,-15.6951261072483,1639.01459242983,-93.239971333232,834.201111828901,-100.172745851115,2209.20969613516,-311.771581026417,580.600840116586,-34.4983905434845,1761.49866049761,-231.383355077398,1263.60053070146,-125.103483183442,1504.44456224824,-264.298517782631,637.265056889634,-100.039936570092,302.803037916838,13.2342996183896,376.528296099817,-40.7409898692315,804.316138886565,-76.399925162808,296.151080259802,-16.6629940054879,1880.6924376912,-146.331305729457,580.138205728729,-53.3335669304861
663.10389816493,-17.0820786230779,1657.28269273487,-97.4689600049399,841.506453524755,-103.246514348136,2234.85426352135,-318.771407566044,588.844704633342,-36.2687399635982,1776.98841039551,-236.870819384672,1277.53345125618,-128.488523400835,1516.56980689324,-267.001766731717,643.699738472198,-101.661768148468,308.920372649362,12.7572613800512,383.52708072842,-42.3911948582239,818.630870334191,-78.4981022382436,300.747857879211,-17.6325000787986,1907.17347756518,-150.875664502222,592.36261425942,-56.0149458437959
659.456717709166,-18.5611954198523,1645.66589906365,-98.3263462790319,831.165008667173,-98.5098223827218,2214.86110527495,-316.43779899285,580.706069770403,-34.9741317220648,1767.68796436333,-233.123381322839,1262.5905101315,-125.879302149988,1502.75277535868,-263.095135077652,635.803657064336,-100.03134928647,297.961490944247,14.2353418190967,372.028980551779,-39.7831830523946,790.810060421272,-73.6021156186795,293.562395195524,-16.614409054113,1859.73257983735,-142.713324384219,566.740484556726,-51.186506531091
654.02976117092,-16.6141535733968,1629.3561190639,-93.2578274664498,831.797378816875,-99.4683075180633,2200.27046575623,-308.87790746412,577.312548619943,-33.9057782003062,1759.28313386998,-230.436138824099,1259.85621161678,-126.055484691702,1498.27459399774,-261.855178123193,634.525396682898,-99.8444063199485,298.777181206014,13.8724857389796,373.186589641485,-40.3612583332437,793.671564429724,-74.1992839205709,293.518490576884,-16.3735119522238,1864.39844087551,-143.173154467616,572.197374582692,-52.1474905795997
659.732484818596,-17.199490563944,1648.82617265271,-97.4902853043147,837.330531228209,-100.401310902016,2218.91284390253,-312.26633008658,583.541628172622,-34.9018464754074,1772.29240839169,-232.711202185472,1269.61070530154,-126.91656304711,1508.21075729141,-264.241399709845,639.754702092429,-101.394651331014,305.395743258891,12.957898556111,379.385947458559,-41.7103032456829,806.943656335908,-76.4258925636647,298.023570066985,-17.3256814726712,1884.53862194121,-146.031348635952,584.049690296863,-54.5245045852007
669.885860273713,-19.0908907040779,1672.5170597016,-101.4361590767,845.041295656091,-102.557582478652,2250.16379161452,-323.396146625955,593.507296001173,-36.6449740004046,1791.29664446219,-239.370796925826,1286.2294909817,-130.743437114247,1523.55947490434,-268.085453206689,646.237717766586,-102.55954508974,311.70146209997,12.3970850357555,386.609440703072,-43.6048234226789,823.356904102482,-79.4138852349116,302.451952188764,-18.1230030847109,1912.59771771132,-152.741864528056,592.42111535417,-56.4714428332966
662.163996085027,-18.6526605989791,1642.52813186532,-94.0067441448045,834.001347166852,-98.580104210228,2211.10520477758,-314.030942821605,581.996341071641,-34.9905466036198,1774.99946873064,-234.03555763612,1263.46776207227,-126.256117505147,1505.64180300308,-264.201012262822,636.007705923778,-100.338859305752,298.169037203448,13.7820078454482,372.392084554322,-40.2370592712711,789.030621954959,-73.0812788818086,293.624846699652,-16.3167556494341,1857.21795148132,-141.213722685656,567.801182385501,-51.895546198468
655.821949249846,-16.0172407257764,1640.53438835738,-95.0375085920137,834.91739280625,-99.7111800219259,2214.5612284655,-315.030336746742,581.027807621979,-34.4917869087817,1767.73383966615,-234.274667003668,1263.83993791802,-126.937325001132,1501.36048007441,-262.118329107913,636.010579165934,-100.336200634508,300.879814339721,13.2942662056374,374.852762414626,-40.9757804898428,796.052454937087,-74.7206965396729,294.922225022406,-16.6792570267962,1869.05720025633,-144.167425379223,575.249026156301,-52.8809637813873
660.844396293788,-16.5239909671227,1657.96346923022,-97.3448927955306,841.379162801578,-100.341837392569,2232.17940482082,-316.561693689987,588.337766536378,-35.8564988171691,1784.10570737855,-235.791220118317,1275.91817627758,-128.715986019439,1515.10745149736,-265.951544780232,642.37107732111,-102.199584735744,307.250408379865,12.9101960955941,380.572658121113,-41.9987419048156,810.68129168406,-76.9819924618434,299.38867949557,-17.6244465373121,1892.55020657115,-147.562224644409,587.702094756904,-55.5422624030382
673.300728560816,-20.7089166526642,1683.83582807082,-104.259520810285,853.450026773709,-105.112795091438,2262.83781784022,-325.716045481882,598.287083057571,-37.7078742543133,1801.59344223782,-240.421533092712,1292.63150980502,-132.014386898541,1529.2610489241,-269.255281409262,650.09764087124,-103.579916815021,314.128238494435,11.7406075641434,389.209727145691,-43.8383519245246,830.086046456166,-80.9443896095532,304.183588920693,-18.4884684320105,1929.9878953768,-155.399546279071,599.547880561259,-58.0066789049779
666.287466401512,-17.5499569904334,1661.46561288895,-96.7615197288974,843.491056863256,-100.947296278362,2238.04337866935,-319.451418390711,589.460047162147,-36.2709929812104,1788.08834038008,-236.840916121504,1276.11866918744,-128.987071508881,1519.93357413088,-267.771902847837,643.44240270848,-102.1731925863,302.146506419702,13.5904522690022,376.846013526149,-41.3410613595805,800.987331448946,-75.4631477226998,298.037793949123,-17.6307135232015,1881.72489665057,-145.905993082202,572.810802418783,-53.6574152037778
660.575093725616,-17.7755278007116,1645.79520873739,-97.3942966932695,842.089643391195,-101.961352190084,2234.99705235805,-322.091141088139,585.056666487633,-35.3789806912599,1778.04378181406,-236.26755351662,1269.11276362414,-127.678140532003,1509.86654663093,-264.925428181288,640.952613033041,-101.696429866578,301.800541476834,13.3944618224773,375.453949446272,-40.4328881394676,801.339398626441,-75.8648344532758,296.117691218365,-16.4583503975479,1883.02172167975,-145.483409663444,574.926264452948,-52.8340506003314
665.60052049787,-20.4137844183417,1659.14076272489,-96.2084723721045,847.219674595266,-103.139473588406,2246.15069470098,-320.406565422083,590.604730608421,-35.7085587496499,1783.87075683562,-236.107300316781,1278.87918767382,-129.031225255344,1518.27346922787,-266.765843095381,645.447152261697,-102.659576980596,307.33954556023,12.9367221537329,381.018557612403,-41.9690186425837,814.853561735536,-78.7454028340955,300.230159058691,-17.6073241428066,1906.01259515893,-150.629026894544,586.230124479094,-55.5041870632042
672.498034737263,-20.0747127849538,1680.21628086763,-102.399852699961,853.864488785737,-104.810247392353,2275.30975711823,-331.604421080098,599.972388023921,-37.9210092296315,1804.64120758714,-241.486770616825,1292.65356018628,-132.410010301851,1532.47959185978,-270.622983071748,651.484543133299,-103.791626581666,313.59760096983,12.0791933303678,388.012290213381,-43.2465684539495,829.197304158473,-80.7333239933401,305.194401908293,-18.6628862590133,1933.51610659427,-155.397437168425,595.916858591796,-57.5848296706007
662.897302795433,-15.7714560152806,1663.31567700732,-98.8463544748809,844.598836123227,-102.265889553339,2243.41682566776,-319.827146781935,588.874091830257,-35.4199647257858,1787.57524137491,-236.998868346681,1272.9496013297,-128.522200329106,1515.66801399835,-265.743499612462,641.671557231504,-101.513104916525,301.408538558035,13.6008922776374,374.428374600693,-40.1943360487652,797.769345220506,-74.7476043570321,297.030840031204,-16.9233692438188,1884.41963764373,-147.415039631637,571.643360103391,-52.9054336385098
661.136261019125,-15.5942009587875,1653.05312480591,-94.5005004246621,843.371941525119,-100.369647821521,2240.96561597347,-318.875724624428,589.792358245692,-36.281009543597,1780.91038436836,-234.455345041779,1272.60775468381,-127.701119784732,1513.60366257045,-266.032497178147,641.916814019966,-101.837911799788,303.736205272154,13.3458563008045,377.120586340301,-40.8988522049298,806.032895447344,-76.3499099685313,298.215632579175,-16.8077008992048,1892.68133754922,-147.715903009222,578.973258262789,-54.2492841990991
669.995177422269,-19.4758773506804,1676.60473252431,-100.9576976793,851.943223591533,-104.604664095674,2261.31712056387,-324.981804311276,597.083075348109,-36.8866821906125,1793.56870151315,-237.097600300169,1285.50681289972,-129.969653852589,1525.34008343729,-268.03781564006,647.818694490049,-102.618406382014,310.052476568252,12.7516262457185,383.198656343114,-41.8117999235279,819.082984933684,-78.4347713033332,302.115435485153,-17.9152893409096,1917.59797705734,-152.850804298039,590.257385502828,-56.8305394429038
679.510890642495,-21.1584545313837,1698.75936051564,-105.631592998365,861.701685235812,-106.367282655909,2293.88555198252,-333.168105710284,606.957184816263,-38.7931983456208,1817.93037558308,-242.962077018138,1299.90766880905,-133.034075458007,1540.92194864602,-273.085248842586,655.132963815593,-104.870476459786,314.218801709796,12.0823235061137,384.750375341772,-42.443194242692,818.329437502193,-78.4576427569469,302.514180260428,-17.8588120376011,1910.19524132483,-150.638192951789,583.086947863588,-56.1999808198728
666.552742016309,-16.5604752441099,1661.46751777503,-97.5372553877791,847.543830137876,-102.846876929527,2248.97443625094,-324.460749633721,589.788390415285,-35.6375173933891,1784.78307623609,-235.405629190026,1271.27298230112,-127.406964245651,1514.09698512276,-265.584141220055,641.385755695884,-101.650482211976,303.225752953056,13.0628246101472,375.416676284563,-40.6179734728171,801.247074350395,-75.7257328173104,297.733381099356,-17.3008701538407,1888.42323911319,-148.489965184358,574.935965111635,-54.1075043186364
664.730310221668,-16.5762840097275,1661.79023888781,-96.3696105212206,843.534001815479,-101.957947099673,2247.25013504302,-323.31762683025,592.336236979686,-35.8401591907106,1782.47110854229,-234.344954275028,1275.21440850343,-127.799202805607,1516.87444971533,-266.393305556187,643.058800269578,-102.481461401259,304.822884544149,13.4330862280045,378.684677166833,-41.1140009880947,808.237862430735,-77.1561652983729,298.931825110203,-17.4386513763137,1897.75175955191,-148.486053608749,582.632012371479,-55.1685645201468
672.337316024425,-18.6669417648057,1681.16302594474,-98.0570707594263,851.741846272683,-102.600658481307,2272.08841747902,-326.356303079244,601.149108159108,-37.937773938319,1798.3286359932,-239.616067526123,1287.87478405667,-129.91476671168,1528.14177481577,-269.484024182493,649.181896208505,-103.748107115992,311.214691747149,12.8514205020446,385.4134373669,-42.7299337904185,821.801588607848,-78.7949778566527,302.687462806121,-18.0572105777778,1922.23010492958,-152.540778959099,594.551773193595,-57.3523302763374
681.295105022157,-21.1767302086356,1712.2514996171,-109.035769330279,859.590719830623,-104.910889954114,2298.16401140326,-332.769930968157,610.496790827067,-39.6797112876081,1817.994447422,-244.780818319666,1304.29874520443,-133.948357530539,1545.80081415735,-274.680626073785,657.1714520758,-105.124351875754,319.029935082303,11.7433584651103,391.685288925106,-43.3661982715559,836.819723982086,-81.7925871331213,306.245400218568,-18.7356880000461,1940.70119126106,-156.659797505612,595.116387896666,-57.532610860719
666.822742879556,-17.8717210382929,1666.21204164978,-95.027855973859,849.539700255665,-103.280835828445,2257.59919295601,-324.578762775337,593.382633894582,-36.2197483505616,1784.29061294554,-235.248469969405,1274.76140560858,-127.578699920097,1517.97273604436,-266.841605890946,643.737393689498,-102.132261236059,302.922507710805,13.4179604989693,376.938569868821,-41.033072188527,803.324139588702,-75.5283900732656,298.277140558201,-17.1374449520563,1895.75961544744,-147.552987045606,575.565518344846,-53.6956155028784
662.632454074641,-16.3433974445084,1668.51993980074,-98.0913197322448,843.308914611433,-100.039536248679,2253.36333231913,-324.083426616955,593.690048449127,-36.5688619230336,1785.61322577883,-237.853285321174,1276.4097546676,-127.780998434207,1516.89297837621,-266.937969496468,644.713035091656,-102.581496926808,306.045065988551,12.6426914944858,378.301209636009,-40.6637828131512,810.504656469043,-76.4410844952938,299.321901914986,-17.3925308442507,1906.48394427955,-150.898839870925,583.135015394134,-55.3761972487938
667.786692104062,-15.5537015485709,1690.99199840421,-103.607393533817,848.885881208958,-100.378042708669,2275.41406895672,-329.556285815943,600.849910168657,-37.6902452026716,1798.60115442243,-240.122569520204,1287.49891334929,-129.761235953961,1528.63361325577,-269.093953023844,651.665287724782,-104.308521019105,311.592776355854,12.2834983743835,384.183335221005,-41.8266850709668,825.04209973932,-79.5788469593977,302.889421224424,-17.987721441877,1928.92555181047,-154.21358167586,593.88675979184,-58.0683594386359
675.025190968693,-19.3728795976076,1708.53652628192,-108.994374453928,857.997334454176,-105.27379654054,2296.33945342476,-331.265899412433,607.618331092238,-39.1736804780823,1808.28783484762,-244.615951197396,1294.01123940775,-132.220239852635,1533.69699385301,-270.898997224672,653.294580285126,-104.745110115236,309.195961518287,12.2615666944082,379.875306288056,-41.300099806466,812.535738890152,-77.1804501073342,300.307045648935,-17.2944960887724,1910.98118185056,-151.027055448614,579.980999994596,-55.6650046135839
659.920159846054,-17.1784710536895,1668.17970094591,-100.080421296645,839.403773289651,-100.933670024774,2246.74150309109,-323.176778072135,592.214191492796,-36.163121344545,1774.08504983726,-233.844209848933,1273.11016434898,-127.706128065926,1514.37603355026,-265.110396210171,644.287386593393,-102.3667849035,303.52517272791,13.2116110248367,375.685828869401,-40.1638036423754,807.527673142382,-76.0188727103507,297.008508720953,-16.8696438069144,1899.33769652061,-148.187121307094,577.890126654501,-54.9580887968502
660.171421757556,-18.2051502288387,1680.63513227968,-101.28675649231,837.775198137106,-100.468790883532,2258.67632462863,-325.259820638201,596.642935872313,-36.8850440289504,1769.97427306808,-235.027918918218,1279.74780815497,-129.296092928784,1521.5855575257,-268.350152646815,649.211338507041,-103.312029870199,306.98700822443,12.8169397620932,381.04571175974,-40.619508198277,821.472611724675,-77.8687063761647,299.014769523485,-17.1352978889464,1919.98681507808,-152.480808019851,583.424256525206,-55.7416295445087
671.380159196134,-19.9089422604018,1719.70903073834,-108.625210432929,847.216518575457,-100.967474826916,2287.75910386623,-329.894309423981,610.639509870507,-38.7981485495116,1793.44368371431,-237.966182529661,1302.09178549987,-132.813091866936,1544.05432561433,-272.132063975203,662.819981872723,-106.288116955309,314.774637683575,11.8839238058527,393.25783638573,-42.6605980814009,850.929680768467,-82.3345384595594,304.929717913393,-18.1388864201459,1960.77128100413,-159.020555852827,594.231324557085,-57.8165160300744
675.101379615101,-21.7995492542268,1721.95458022155,-107.766627980998,851.193019302386,-103.967313476636,2288.05961468054,-331.638276057145,606.262818530424,-38.0359919275731,1783.19131430003,-237.854366321721,1288.54196233946,-129.760205013674,1537.2779240841,-270.837782384414,659.671674026559,-105.473101766596,305.849776216052,12.8766304139878,384.543380631233,-40.9135263904042,831.019025891522,-78.8655885546163,300.716472369122,-17.5349829107373,1935.59756331551,-153.408682905015,574.529304513922,-54.3427624114444
653.967445170134,-17.3321300074898,1683.14131697192,-102.108633062764,831.732875110085,-98.7820175056279,2245.85386840379,-320.669281579883,597.14916590062,-36.0500592875401,1751.68441398583,-231.619952444267,1276.4909407653,-127.364618802807,1521.94444443391,-267.190691924415,653.865362270598,-103.931134448806,303.135789951622,13.4128156134163,381.827397450893,-40.2746541088795,828.044638797056,-77.6541065524048,297.774578062278,-16.6603407706516,1932.77900566573,-152.187018245488,573.981034012331,-54.2732768351831
656.839591325015,-17.1984939189534,1698.25160514866,-106.210803789048,834.35995391225,-99.7639901959243,2264.24224222867,-325.854413402215,602.903757479297,-37.7008419927575,1767.86505193594,-235.342206143859,1286.37134630385,-129.475571425586,1530.49459445518,-269.036775783102,658.995915047374,-104.941792135543,307.970107783328,13.0748485204294,388.335072959769,-41.6501886749984,844.020974730763,-80.136869195607,301.445904507736,-17.1229890345884,1954.40022341224,-155.866084339182,585.564571774161,-55.4932004708633
664.424089978704,-19.0519766800264,1726.41179915211,-111.860277157496,847.396532842926,-104.125453707082,2301.3378892712,-336.656138310291,611.805719464493,-38.9858464842806,1789.19479890956,-241.414005981275,1302.49645963184,-132.692844856875,1546.63318708339,-273.454427441449,667.255012654103,-106.971208385154,315.078805220658,12.5062450069504,395.517694351097,-42.6537493519126,863.169208931466,-84.2992438373128,306.528359862146,-17.9674565360312,1987.81887236432,-162.572948335147,596.951711403852,-58.3292986025183
675.762609272515,-22.4589953431409,1747.21561391542,-114.118192910295,852.876354875993,-105.005339402882,2308.8248016755,-335.765652217714,611.516825167341,-38.7740287458115,1790.40059109248,-238.007862626721,1296.91064895077,-131.670511462501,1543.46234719172,-271.334562815686,664.899877888836,-106.501812974938,307.121353197041,13.2117912553391,387.538439732144,-41.3461765022767,839.331469235191,-79.3256993430559,302.357263221548,-17.1156736316636,1958.35721234042,-157.18214890286,576.020800524674,-54.5378644898288
661.716038584321,-18.2432047089045,1708.19327894661,-105.010236346452,840.449230847247,-101.782552991034,2277.46397896036,-329.46272295005,604.783880150561,-37.7417837644575,1777.17965204965,-235.958082473402,1289.63271684397,-130.223243895452,1531.98805137543,-269.009565612511,659.916802146879,-105.005925657346,305.46582011748,13.3518818891152,384.231623743422,-40.0446078493299,836.568627047144,-78.6264748250758,300.359373439994,-16.8288226667957,1947.85838643472,-154.748635795435,575.658742092608,-54.2301106045685
666.837473514597,-19.4736583539211,1719.71737345968,-108.927847878377,845.251737019235,-103.187477295772,2284.33339668935,-330.112951478536,609.579267768386,-38.121585056428,1783.10099360411,-236.371513869513,1295.14539972668,-130.67037150496,1534.55590549968,-269.080371387601,662.183628596235,-105.104849821968,309.663887187903,12.8689295817937,389.590719197681,-41.5022397251181,847.813992298982,-80.251170486503,301.841018508879,-16.8835844201034,1964.21590599861,-156.962581309812,585.485167045537,-55.9122466884185
673.610046516004,-20.6163526259796,1744.26385334508,-113.699182302806,849.849813265246,-103.30308199612,2316.99305401692,-337.075137787956,618.464655309409,-39.6628462387921,1802.99588609778,-241.568382737276,1309.97807910192,-133.748267317245,1550.5291910328,-272.956117913871,669.429949712392,-107.354193238352,315.276393861844,12.3076994317745,396.382581258344,-42.3655636644862,863.931771631352,-83.1700813192512,306.717151696753,-18.0431731595316,1988.89285942834,-161.950348101842,596.529183295705,-58.1360188277354
670.144529351402,-19.8336033320294,1724.14899321617,-108.676712580748,842.00764524267,-101.477698822482,2284.80091506566,-332.092405154956,608.12160409696,-37.9017657380429,1786.92958455786,-237.496494633537,1291.12046244227,-129.646665795732,1532.50295151611,-268.332795167913,659.147224951797,-104.687454258304,304.354646642228,13.3417791650965,383.223966523063,-40.1330319631081,830.459912488188,-76.7814502810508,298.927415283674,-16.6747676922651,1940.49862160892,-152.73549651027,572.678413234062,-54.0208433538871
667.147236497382,-18.4756554968801,1718.93920737555,-109.493032308298,839.991418095747,-100.085040412106,2285.20802452447,-330.564257218231,607.024739958374,-37.5001470120586,1785.05530183733,-236.47672690876,1292.34041414361,-130.351204280223,1529.38193849271,-267.539219270594,659.478263037794,-104.829839947313,306.216138965528,13.1097423454205,385.405952495764,-40.2605397488779,837.938166593043,-78.6700269769029,298.594033881254,-16.3498716549469,1947.70488153361,-153.426989351924,578.95493228958,-55.1418127286287
673.504787706756,-20.7313647327279,1737.36529236658,-110.7082274004,848.279259593337,-103.233014318117,2310.17006861169,-339.353965645411,614.165599308006,-38.5048979802304,1795.33357359833,-239.373690996912,1303.9809301938,-131.79680069334,1542.13246711013,-271.360159636983,665.376267941317,-106.032333966776,312.70952961477,12.4555429764527,391.999352316695,-41.5846018788121,852.719870379878,-80.9799296530715,302.906436749799,-17.1246682826928,1973.92104500073,-160.132269876548,591.191157023352,-57.5350282628389
684.05736858768,-22.1054574009166,1764.05483797029,-117.264556884887,858.272387845234,-105.461893453851,2330.67843311361,-339.205832139209,624.751713973149,-41.3444519045506,1824.26723126422,-248.271840528723,1320.67134757373,-135.310623648296,1555.97473437785,-274.1927851845,673.051871141522,-107.807993248659,319.715949546645,11.4310950774705,399.346377882914,-42.6970157329827,872.452246235265,-84.9310464447612,308.176515392184,-18.0165908104434,2002.71233506263,-164.807170965974,600.619216425976,-59.4964958241295
670.01252169648,-18.6765442738621,1731.65662028761,-112.375682614609,848.172547046615,-102.590668010399,2299.60159404178,-333.508506370494,609.573597024214,-38.2600408005027,1795.42650024106,-240.936620873777,1294.82017957095,-130.471298871447,1534.8188371976,-268.938731480429,659.354165940971,-103.901721655427,304.425799768667,13.6453484078032,382.235434265072,-39.39665735392,830.081033659386,-76.591536117421,298.530160598509,-16.4323413444475,1940.41349327762,-151.874321020521,573.63337969661,-54.4975711801232
669.637611302958,-19.9831347524378,1727.36849391907,-113.548759391796,846.964683681464,-104.060207452185,2293.65345961907,-333.815293570839,607.515565072144,-37.6951166068419,1789.75430841118,-239.548422462984,1295.13908314655,-130.750930722263,1529.94399782846,-267.52413144177,658.912606427414,-104.045966169349,306.261521475023,13.4148123274395,385.202697012983,-40.1926230102163,837.556859703856,-78.2710839469705,298.659057299404,-16.3212940714353,1949.03153212884,-154.31578234036,581.791339360748,-55.8174827891397
676.692333146045,-20.80371032693,1743.69855204644,-115.472154092186,850.974860172429,-104.36047995443,2312.22394222948,-338.01268300259,616.436824590813,-39.6991181045688,1806.02227617929,-243.066024542702,1305.93456902879,-132.41646097239,1543.31281741483,-271.733656678656,665.543181327496,-106.273858053506,313.048159759688,12.2230581708228,391.879266419413,-41.5702505290711,853.09793370046,-80.8018089240355,302.528642575249,-16.8682417317806,1974.00210829159,-158.47816845056,592.599548976626,-57.9591148848897
682.855491859145,-20.9539249862303,1763.61393322924,-118.268705192612,859.522360104817,-105.938163762382,2343.76776042652,-344.538092722877,625.819994966445,-41.5505717961067,1824.24550811778,-247.746589503784,1321.51711823546,-136.630531508028,1557.26375659173,-274.878512621542,671.921478456014,-106.871536328935,319.098522004504,11.9958924826537,399.118534714685,-43.2182748928229,870.243406270478,-84.1483334754283,307.74527357928,-17.9569477077854,2004.39672446981,-164.321837136546,602.936818203303,-60.7081061276849
687.373293218818,-24.2325992063688,1767.23046033242,-121.983831279067,858.130968834048,-106.15724436972,2328.52337893871,-341.280737969155,618.598494316922,-39.95984592972,1819.17462959016,-246.598799115073,1309.23164548364,-133.983146652787,1548.81047186026,-272.455214812105,666.604382652986,-106.27011196755,309.738291050933,12.5690156645267,389.082557994971,-41.0835649301344,841.722897546359,-78.9764722343205,302.818799236473,-17.1632343672674,1963.52028475035,-156.697818020532,580.358321682513,-56.8127760376838
679.446984646231,-20.8928898850076,1739.46547164517,-112.682962031422,850.35035070544,-102.320334288573,2316.16397453041,-339.966486051763,614.881438315891,-39.0670906320251,1808.66963140413,-244.894181410313,1302.60463366857,-132.809998773411,1541.51884013576,-271.371475985762,663.012428466178,-105.463611154788,308.959474335798,12.1621429876324,387.093721349312,-40.1768401328596,839.898583491326,-78.3457976351682,300.675503898099,-16.8570870037541,1958.08574951742,-155.389423421761,581.335946339537,-56.4920359833718
680.482939368334,-22.3491638414698,1752.36213138639,-115.894035081298,852.671494693071,-102.755476561784,2327.30760436675,-341.886732124928,620.134445003442,-40.4903859062702,1819.74013971812,-248.449796181555,1313.42842835311,-135.077963247441,1549.26658679329,-273.134529478819,667.170595016523,-106.481401606411,313.843143396289,12.3563982043275,392.606510366467,-41.4338951263686,853.310307243795,-81.0374436040237,303.974482056226,-17.4009295962245,1977.02122474602,-158.750293147647,591.070327269835,-58.1773636685275
688.618131664424,-21.7397004732692,1774.26938179251,-117.435083875327,859.895284840691,-103.756977647275,2354.59381086725,-347.355150802366,628.922336704206,-42.5609589892647,1833.06553568565,-248.988525076848,1326.1781074441,-137.373243685458,1562.12789722739,-276.113067568868,674.074408194711,-107.713418956691,319.479285820063,11.8489787201439,400.455428528479,-43.2960805877243,870.734589184725,-84.3367105878119,308.689042128544,-18.2761833890188,2004.02467851508,-163.927812179095,601.838418180883,-61.0923908246417
681.723419787698,-21.5357102676058,1749.76257625179,-116.211589829922,856.858104608937,-103.952144666783,2323.47789533376,-341.171159286451,616.126154244497,-39.5979468981106,1817.93835634757,-244.795093684492,1307.52611578649,-134.7045523674,1544.25557245483,-271.122167848815,664.045849381811,-105.637417484513,307.619762290382,12.8789957689177,385.251451295582,-40.0247011678588,834.193635348713,-76.7270705056547,299.737873583999,-16.4668073695443,1948.25538316839,-153.117974059628,576.025232740769,-56.2649690047587
