263.101858644989,-23.0614874085119,1994.61989340448,-58.3825571889606,337.495915191435,-35.610443904295,1011.52499047498,-94.8289334633142,1392.16237700767,44.8340225413972,377.754877554925,-49.1213629544101,1494.92277796741,-117.851935366169,762.319374777371,-113.058425946497,682.036930675695,-114.814103826311,507.133585611933,109.677427963897,2129.18297685348,-372.300801481262,475.784736335919,-83.0245229212019,810.310759225231,33.6135885300959,1041.63592115263,-94.8582026447018,334.472324597302,-24.9817135799638
262.420905224582,-22.8282509524639,2007.24586194587,-62.9019532989561,340.37457315003,-35.9870293185794,1016.92604757851,-95.5819542642879,1407.12194270841,43.1575557625969,381.786758730658,-48.4563284670576,1511.14053762636,-120.467055144186,769.26101596213,-114.732053754055,689.343349743621,-116.974065858419,512.609426484266,108.836768824626,2151.00111440026,-377.314117129498,481.759013402552,-84.5646785796064,818.683880238188,33.0397320319079,1048.60047023087,-96.4423448924057,337.360161110436,-25.5091061065916
262.406764368604,-22.0219660615539,2009.78481913403,-63.5270498499953,338.795358823508,-34.6709557561201,1011.47636286578,-94.9495799213011,1391.10497909011,45.792233140431,374.930873678755,-48.0093527003174,1486.52829681566,-116.242385637155,760.315608430007,-113.351133097637,679.33479237426,-114.215266297526,505.422474206122,109.435637429345,2117.19813590816,-367.406321346872,471.573170882586,-81.7138916930541,803.546820318495,35.2733806444657,1036.84164116215,-94.1273130688556,330.831230440351,-23.9555917152718
262.035220056291,-22.3178350154909,1991.44968836734,-57.055454776718,338.355964225531,-35.4772397405772,1006.57197429412,-92.8838965418096,1388.29645735186,45.7483684171633,375.813220649977,-48.5553291740446,1483.96111880391,-115.686949856889,758.617924093016,-112.62682160925,678.46630166207,-114.012778389191,505.182629888333,109.797832573398,2113.96023419768,-368.002458305258,472.052038163482,-81.5083533447977,803.296288204689,35.7692058737037,1036.06207045639,-93.4147785444888,331.610242216435,-24.1471444479052
261.555216670955,-22.209009676566,1997.49665400267,-56.4452607818387,338.749213476073,-35.4124671073333,1011.28079673732,-94.0487055291995,1399.17640615139,44.2760550815326,379.83978325598,-49.5805286272454,1501.88288369898,-118.789695938102,764.755052126499,-113.733146235047,684.422958833069,-115.117766843446,509.242869011236,110.182202067847,2136.42979580623,-370.885004687242,477.200864617778,-82.9540329154839,812.83238717519,34.9528024780041,1045.6904047362,-96.0433906670388,334.225217441924,-24.6165798615094
263.522884491128,-22.9056205620005,2019.39711772033,-62.6215318170536,340.037045767973,-34.1740550322523,1019.71885457274,-95.6849858279934,1411.69605397102,44.3450291039514,385.560409777212,-51.5194108671956,1519.79604741097,-121.237967805648,771.299141665156,-114.674814618722,691.119514709691,-116.41838240173,514.172186357138,110.407280517746,2154.66100151539,-377.031040648609,482.897310761711,-84.2066005241489,822.538744597286,32.5615397068642,1052.29366028273,-97.7991695757569,335.451006491962,-24.6198025312982
260.962443199534,-22.1606488267478,1989.97926501264,-57.4958360376151,335.710326724317,-34.4432162572199,1005.79907359064,-93.0188601272114,1382.26726661239,48.5283189418746,373.068857911262,-47.8142562615095,1481.21518264478,-114.575832899306,756.030220919044,-112.148196742631,677.113883441484,-113.874820184229,503.624127676148,110.163950253017,2100.05241688173,-360.353004415778,469.003079513687,-81.1318623492724,800.707893368365,36.1327855772109,1033.89559958637,-93.3060269124186,329.916888984686,-23.9762618512206
257.941888465612,-20.430969406112,1979.74716824473,-54.7618378873079,335.331379664777,-33.5665561741525,1003.8822781636,-91.8174067506214,1381.3181844729,47.6152207737925,374.60582900958,-48.7979827951679,1483.64965715026,-115.054884211471,756.395895695154,-111.459253240874,676.784965044476,-112.73850858456,503.642007698083,110.361300744543,2107.23098756133,-364.382163549866,470.315924871118,-81.1573305975837,803.345191854751,35.8884327174279,1036.34660301537,-93.724800333657,329.502249100438,-23.3977278600519
261.754177726228,-21.9053110088799,1997.54551168204,-57.5936427054191,340.59057629077,-36.942163524072,1012.89439246802,-94.4473800004264,1396.35873861765,46.7992709364757,380.968286166092,-50.3325470979351,1502.97490847134,-118.879182427539,763.466784683065,-112.903628394657,684.615485714761,-115.319349499344,508.448505945609,110.850219744883,2128.86801590093,-369.439856782507,476.757772741202,-82.8214754206039,812.537501513857,35.2635852968896,1044.68719659111,-94.9910356564956,331.786380476515,-23.5321977376386
262.666755349253,-23.2065225958012,2015.75288578611,-59.1588393222033,339.48661153427,-34.1757353693612,1019.86708806928,-95.5164986560557,1411.88348091655,44.9740703670207,384.007544190765,-49.6896333539861,1522.55136980016,-122.317242041603,772.073553797662,-115.295761868985,693.403976708028,-117.646923060968,514.914531704145,110.179775636317,2151.80886519555,-375.925990143264,482.261975159099,-84.0151017969408,823.634348203032,33.1708885007445,1053.23198268735,-97.045422199266,335.775020392251,-24.7366869621088
261.823959123736,-21.9035645007075,1995.47474591291,-56.8876790787827,336.896939474507,-34.2622343195276,1008.15873564619,-93.0253421367393,1386.11416875457,47.0027394492031,373.81044299912,-46.9325305534461,1485.0060231594,-115.167100466632,756.467750826216,-111.560708835251,678.071065361006,-113.806850778165,502.503813455139,111.014162699571,2102.03670998203,-361.205734822475,468.94581009287,-80.6805962271891,800.055081998788,36.2187283764548,1034.97042666295,-93.3242754707401,328.341791034876,-23.7599836318132
260.598319659267,-21.7689313139541,1984.10741090923,-59.3786386002137,335.596256970561,-34.2284206794693,1004.90688781254,-92.3726683859096,1379.23667691166,48.586947842519,374.73136639852,-48.0398482046874,1482.45571001651,-114.545303051911,756.650290351328,-111.762245255179,676.951696524946,-113.762958863331,501.764314244968,111.0631826696,2104.63263843905,-364.871672249117,468.768917956283,-80.6790026526512,799.856241086897,36.8229978729079,1036.41707914967,-93.8431300695764,328.959292246082,-23.534833761364
259.481929014931,-21.1371130037278,1991.50265049209,-54.0856793729916,337.684370679394,-34.9967798066287,1011.60767328677,-93.4726194366189,1392.20074194126,47.9731081089082,377.898631449393,-47.9925441680697,1502.80347471707,-119.035361564789,763.51083500285,-113.077077213197,684.074996665787,-115.376266872121,506.905218983305,111.20667096191,2122.12375038917,-367.527316481088,475.677431634577,-82.3364263921083,810.359452201004,35.5292457717084,1045.04799385925,-95.1031063253218,331.853696015177,-24.1010066082588
263.815502070941,-22.0194286732048,2013.75317860681,-59.9643155404252,340.020404321102,-35.32575446089,1019.63482748967,-95.0957754468906,1410.01414535987,45.3020135357093,384.706491760587,-49.1328269908733,1521.34210737088,-121.699589655774,771.063673425765,-114.644228057342,691.62544466719,-116.661942558122,513.472797715221,110.29617700189,2140.64928074695,-372.649228681853,481.114220989067,-83.6575256246225,820.695315864647,33.6407937192696,1053.86309926041,-97.3225261341357,334.835048315246,-24.4681218562905
263.127749061614,-22.5135370688385,2019.41075115378,-60.3651325027822,339.778298943817,-35.1302740352824,1015.72852119896,-94.7836512176674,1398.26524404063,45.2259382678963,378.201865482921,-48.7426651150531,1493.50037849057,-117.871400805759,761.640466471817,-112.929951045905,680.89094941495,-114.390991745312,504.744902032991,110.216997461353,2111.85118092225,-367.629992856411,470.421064462796,-81.3893535211613,802.142975496943,36.0330053626219,1039.55332954746,-94.1737162336623,329.292398762862,-23.7750511607889
260.457424482694,-21.8857977967727,1993.07918813803,-57.1047156562179,337.509308418638,-33.7406814753101,1010.80782365649,-93.7651292986696,1385.26418128259,47.5124446706061,376.433043178861,-48.5717678227979,1488.36041446275,-115.554443900702,759.524430552692,-112.30203615531,679.032058637022,-114.073290259832,503.130020949383,110.631702121533,2098.95895959023,-359.880845739905,469.806512873145,-80.8772454004104,800.688208991489,36.7184415616371,1038.3753517891,-94.0735930049199,329.116303240222,-23.8588684455543
263.250764989057,-23.8419803145196,2000.74562755369,-58.9354988124253,338.111523571705,-34.1661015876789,1014.38546528022,-94.1299295939031,1393.44155703831,46.6653700343726,376.782011886791,-47.525119830648,1504.05949798021,-118.730143799211,765.072706080315,-113.194209589325,685.078086138552,-115.443583316224,508.222378723237,110.180451568867,2119.85210421627,-368.085910200788,475.431477964187,-82.5272462936994,809.464249959009,36.1003871620165,1047.389076263,-96.2961958669189,331.716576530541,-24.2108531138653
262.499522983538,-22.4139512045737,2016.08772931404,-58.3872225329578,341.315722024204,-35.7737960124442,1021.61170116714,-95.3376507309079,1409.7931934632,44.4813250812942,383.933846187357,-49.9616779603282,1520.54066093022,-121.404010268458,771.639530139947,-114.435999114445,692.328053985255,-117.211841507333,511.139906585091,111.071624873559,2143.82331389621,-374.506756998024,481.252113550868,-83.9944727069502,818.746299851443,34.4242628472527,1053.86438489496,-97.054883433701,334.594921169764,-24.5523594793569
262.980069986822,-23.0551934526302,2014.37258454559,-61.3733690731279,337.671416660359,-34.1601736121655,1015.09063971886,-95.133686966559,1390.43219441717,47.4964954981256,375.8853646253,-48.0385266729658,1490.62966752761,-116.354341498776,760.26831234701,-112.267050715419,679.83803090979,-114.247607370869,502.843290388942,111.216191276923,2102.39183383228,-360.429628815004,469.630793832418,-81.0089643299365,800.369591839776,36.7101907570149,1040.46955258478,-94.7636686683951,329.111546454426,-24.4648975873886
260.551770994667,-22.5520692495956,1995.37529477465,-57.5370873392356,337.291219443606,-34.041382729788,1010.82922620241,-93.6566716674933,1380.74648952914,48.5096016906335,373.69813358468,-47.3834775433212,1485.96715000793,-115.537547222933,758.388880795647,-111.920738213978,678.226044736326,-114.030492387681,501.726827930988,110.8360112555,2103.37041065361,-363.340512366052,469.956053263356,-80.8966495460253,797.818531732265,37.9468623498084,1038.08852529651,-93.4680436914985,328.408721159868,-23.7124486242056
260.61127925752,-21.8128174589101,1999.75984954923,-57.0694850329181,337.825204638668,-34.1905783093878,1016.2020759856,-95.1063368151791,1389.86687262576,48.2874919997514,380.615399840339,-49.4761167171616,1502.46132158117,-118.159335802204,764.326727150046,-112.627234148963,684.611819348319,-115.278458985951,506.08646584457,111.289917004282,2118.49948844381,-366.237623799507,475.517709728439,-82.3408955549699,807.48182047479,36.4364808503583,1046.93886778181,-95.9734940193521,330.977906800562,-23.9673435974541
263.00965010648,-22.1480568359462,2022.46917394774,-63.3914179186591,339.950918780764,-34.1774664678339,1022.91085005242,-96.3125723989188,1405.23117939733,46.5930337996607,383.901921974851,-50.3117652044978,1521.48430019033,-121.807034028904,771.905432865437,-114.861907513423,691.546518076229,-117.110964229577,510.659218420048,110.542161099419,2141.409024444,-374.2907031789,480.884137065604,-83.5852432571385,817.516552002925,34.6789857204824,1053.15834726695,-96.2264341105657,334.128962785448,-24.7537161459704
261.404416288969,-22.2613990297942,2000.92440099249,-57.3889710842604,339.350808728646,-34.9490097375041,1011.82273420357,-93.7230780409452,1381.10579001318,48.4434453717126,376.297378294324,-48.4696025807825,1485.19667566378,-115.38299861277,758.006285412828,-111.984305321324,678.412882429301,-114.00558896585,500.152028824151,110.831874406509,2095.3130343991,-360.624134604646,468.816443362372,-80.4010232894114,795.572019681962,37.5021262178608,1037.92590057257,-94.4067134331055,327.755023977923,-23.7882719425771
259.294806810451,-21.2254772073997,1990.58857420877,-53.3910957132028,338.022558738729,-34.6632024110298,1009.06077425684,-92.2102130221168,1373.41710305355,49.5866733517035,376.497204674974,-49.7212896083505,1482.05994206343,-114.388802717185,756.851711772744,-111.722729785685,675.249186912364,-112.408992207811,499.197910651788,111.358185101178,2096.18445996741,-362.996538654723,469.952941773573,-81.2318839999257,795.084633319435,38.6436982575729,1036.70362020783,-93.6058018753175,327.891543187482,-23.6703752731733
261.302001566417,-21.577726853405,2000.09596913375,-56.6150047891576,336.98305474128,-33.9944273352293,1016.35046112599,-93.8969829329859,1384.91612370271,48.4313110327564,379.926071182722,-48.7369633502981,1499.11469125956,-117.901090849905,764.801710995147,-113.715299870682,683.198148113196,-114.836798209838,502.789578100059,111.749523599275,2114.10595578192,-364.978833164382,475.345478060115,-82.2404899828293,804.336617807687,37.4939738164927,1046.3592215583,-95.5890881246571,330.013674290854,-23.6873235876009
264.519296332931,-21.8069710641599,2017.66091288734,-56.7694149596341,341.742638382158,-34.7161752933282,1022.92938992412,-95.4341104117563,1399.40609135837,46.8091050870527,383.766650620695,-48.6514210573667,1517.21198487133,-121.257875232597,771.061473375744,-114.535799914693,691.002032113253,-116.86617982296,507.903741545228,111.800421674752,2141.8067704057,-372.487499395082,482.516784576596,-83.4035844977244,815.159247176452,35.935793906758,1054.02404597439,-96.8469566350532,334.699036513411,-24.8386388747784
262.811584912229,-21.8336178341701,2014.46241442954,-63.713904570566,340.641783443561,-35.527242403255,1015.1818453381,-94.2314252418893,1378.53188817671,48.5577973992274,376.139110898477,-47.48709217274,1484.55701210024,-114.743557149921,759.970197844536,-112.825433168967,679.563138179161,-114.142899767795,499.63656149998,111.517146495685,2105.98219779731,-364.234330583403,471.681000715342,-81.1385219944752,796.245599019477,38.1661753486327,1040.10695568058,-94.5260944476354,329.772263208326,-24.3064962969052
262.97189753869,-22.8450094541333,2004.9637703955,-59.1329594205808,340.254220231714,-36.3212874603246,1013.65782709477,-94.1949363919805,1373.6003239154,50.1647570986763,376.36963055785,-47.9001419260546,1482.40068514242,-114.344358038882,759.932482482399,-112.183067391233,679.211689562756,-113.624492228918,498.925955349764,112.246189511922,2096.55870486673,-356.462236558675,473.6800168779,-82.1198558988076,798.54931439732,37.772137897353,1041.46765139568,-94.8359513089385,330.172091686691,-24.2072836649782
263.105898111947,-21.2796844519681,2017.41653776136,-61.9287564754278,343.150826823878,-36.7934572024383,1019.10964497741,-94.1746458879969,1384.46531090567,49.5740705770392,378.325057960172,-47.9481414719249,1499.53807110366,-116.308944679906,766.99605863267,-114.20673364549,686.236150855916,-115.534300129577,504.268328636658,111.606628349844,2126.22926487749,-368.101361338172,479.470979183746,-83.4354822021817,807.422384151387,37.3352838432174,1049.60180329905,-95.9082658678741,333.510244142024,-24.6037197939479
266.63125826074,-23.5759570029636,2030.57371432368,-62.7596980093265,344.98154127773,-36.5588927928558,1027.55234740527,-97.1767985063818,1398.98705411505,47.4219479633005,387.849094515183,-51.386523486993,1519.28364383083,-121.228851850446,774.951621447986,-116.166231569621,694.757541610207,-117.914977201681,508.686559628368,111.948245587666,2143.63162377755,-372.112843046873,484.189823342268,-85.014409561859,809.781645079296,36.4342963437828,1052.55963757763,-97.2125372700176,333.315798303105,-24.8593393938761
263.409165557316,-21.9269305909705,2006.55011398962,-59.5368323543766,341.125438569682,-34.9554469129479,1013.36769077899,-93.3399305090077,1369.00718796812,51.0893829296663,375.509949906047,-48.1751098948347,1481.64871627185,-114.341431270026,761.231142992739,-113.543096033191,680.141561825067,-114.486344075451,497.715358069578,112.331580597203,2107.14329546274,-362.998829098908,474.303771726407,-81.6711166682207,798.356476389862,38.2747677915132,1041.65050146948,-94.8617630659489,331.249811448492,-24.5028696702051
262.569834515506,-21.8353468931237,1998.94648073314,-54.3403595195809,343.120676713024,-35.8897050543614,1016.17314615603,-94.1599422774417,1373.24468917255,50.3427675757733,379.628482494957,-49.2405618658521,1486.04412724625,-114.306582161832,763.885386521114,-113.791104111083,681.356902975867,-114.418332763512,499.119314829042,113.115428682668,2118.1805051498,-364.870130902556,476.290542513793,-82.004132514664,804.266654080426,37.1660708862399,1047.80865702798,-96.1360697509815,333.18959407666,-24.3369242209987
264.483238514851,-22.3383505379194,2018.70724849263,-60.2126959283556,344.676483714739,-35.5549887006627,1024.49457019676,-96.3538159096626,1387.70452575102,49.5757913557092,381.954176052096,-49.4824004604551,1504.81603960128,-117.633764843318,771.522501424988,-114.899181417167,689.908657632974,-116.472851274057,504.468796946825,113.259026858325,2140.46351294252,-373.030221651665,484.219317463383,-84.3505724472043,814.795122876003,35.9644013993793,1055.06649638399,-97.4328123599178,335.539507761758,-24.9736730108452
267.68397660144,-22.8163358553838,2044.05656815796,-65.6734141587766,348.095126267867,-37.2679272954612,1031.81756056018,-97.2896966591094,1403.31642429256,47.3149123125966,388.885926333908,-51.3977339501473,1518.79747807091,-121.208818998337,778.292068483686,-117.301467240251,695.990038171279,-118.055911151426,506.491635656779,112.600585119634,2145.19738968775,-370.132257694428,482.706864940547,-84.0062290054684,810.00611700684,36.6460905120737,1052.96888250991,-97.6481480787051,334.282721105868,-25.1043552748288
265.611654771007,-22.9990833367599,2007.11068994894,-57.5188761646305,345.970191861109,-38.020185552548,1016.36305055413,-93.9939289871452,1369.19180910373,51.2212456729106,378.347475209026,-48.8754966920235,1482.89794659554,-113.685341525759,763.384593618984,-113.762061642495,681.925421813144,-114.665571229521,499.727658590263,112.476982168538,2127.37905064823,-370.614469255859,478.225626147938,-82.9153884598819,802.795660266511,38.2585744059182,1045.71866454701,-95.9390481247668,333.252050431461,-24.3756595376541
264.471996644891,-22.9390376289044,2015.97345363969,-59.3129954544459,341.593971609065,-34.9173588941238,1019.21594533148,-94.9049073117668,1373.94828735006,51.6167207473352,379.588652683419,-49.2518813698053,1490.00232273254,-115.115788760789,767.080196655158,-114.528354295434,684.78341929093,-115.577690884347,501.436991265525,112.688176871156,2144.02964093497,-376.264091166661,481.334953011072,-83.707458628026,811.977520659879,36.1387071242992,1050.13329073886,-96.6130337643141,334.765376286966,-24.957892505871
264.686645925671,-21.5994123799458,2027.96803399615,-60.9896519724445,347.080344894676,-37.9160257268259,1025.1856479564,-95.4334815766974,1389.72248483873,49.5362150822789,387.269513762529,-50.4076124943416,1509.01119155102,-118.797342237618,775.319250942503,-116.302529182944,692.092746682216,-116.999518332743,505.285488510369,113.333122862572,2159.96230742812,-376.470535029027,488.665162064411,-85.7749776885866,821.8267913515,35.1869725416681,1059.05202050882,-99.0002958010069,337.882198988568,-25.5038064173289
267.141486389732,-23.3461952075888,2046.65033952367,-65.6460601119584,348.960140438647,-38.3061492421518,1034.11762898009,-97.5045248012068,1408.17509568229,45.859635803719,388.913538850868,-50.3896171278298,1527.73444204121,-122.266254805196,782.525575120333,-117.935935322821,700.299398307309,-118.91262867297,512.252342131934,112.400843097492,2192.17954281612,-388.42181388018,496.310321366578,-87.7877133919883,834.69427214654,32.5750467521197,1069.27810629074,-100.861751420124,339.964014860679,-25.3414882135259
263.702921569485,-21.7016058826613,2022.1071330197,-61.9729510590191,343.952091977911,-35.4553763226499,1021.40285895606,-95.1808409703657,1380.75095671529,49.9748375025853,381.09779542386,-49.0919178764029,1492.95716364715,-116.014985731131,770.324116296436,-115.807943691982,686.27531560838,-115.66899245571,502.54647594007,112.511413556416,2153.20313623438,-374.866913135886,484.97502693535,-85.0010168184804,814.804004411236,35.1093670779818,1052.72814315958,-97.3199050371534,334.985958368512,-25.1575289836768
263.261476058315,-21.96326213064,2017.61428688238,-61.7948510580478,342.059712524166,-35.7667669232407,1019.43280785516,-94.2813169041673,1381.36336153598,49.4731758512611,379.802300438597,-48.2962014124568,1495.16120453372,-116.372417445718,770.079565917558,-115.016842487613,686.622037032482,-115.592809711823,502.718174352336,113.36127235855,2157.14573988911,-377.333120373206,486.42865821361,-85.0687803262956,819.12063342328,34.0586865394392,1055.89367877714,-98.755727710364,335.958387557328,-25.0001974998582
264.24338882754,-21.8306052378753,2025.47867731407,-58.3597557966709,345.959646015558,-37.4283982429897,1025.13096979643,-95.2200057082223,1394.75658992743,48.5953055208257,385.361943652734,-51.1500764253818,1512.51662833435,-119.527717214527,777.141806895182,-117.191679597927,693.640709884143,-117.193597271233,508.499370570742,112.945099678665,2179.23239576951,-383.587008812381,492.981056931321,-86.8419558480717,829.342180999369,32.5178714934808,1063.93368642547,-100.224401611385,338.789185730155,-25.702126139718
266.710797787143,-22.7361829821423,2046.49703241893,-65.8437608460678,347.226206046402,-36.8848736597204,1032.80193619568,-97.7506246881886,1412.44587037133,45.7989859220095,392.751401252976,-52.4336581004336,1533.09102181069,-124.269762782183,784.367062266857,-118.415330463524,701.782641749889,-119.411181165201,514.712097714502,112.076929621081,2206.19624844682,-390.991524445459,500.451752506801,-89.2620822194246,839.512903253683,30.8222825127904,1071.12631900508,-101.721648991979,340.182617934677,-25.7597837617023
264.305262334267,-21.2295875181861,2021.83042692905,-62.4379489865089,341.685954694603,-35.229733222751,1019.83145589862,-94.7157014158651,1383.65943054925,49.532798064644,382.045579168237,-49.5564928280855,1496.45271313781,-116.792974007628,769.969995080803,-115.718341320604,686.755246532033,-115.748617895565,503.615705605654,113.100555712598,2166.82732281939,-380.89833190944,488.691419558091,-86.3346552107535,821.153062431907,32.4397078025184,1054.88543643287,-98.5354299565353,335.108774357567,-24.8000294311686
263.65130897843,-22.5996829555907,2016.21049477923,-62.2826064150219,340.978795878776,-36.0713054195615,1019.16782064007,-95.1615794186156,1385.28235567737,50.2524573702284,381.631842205599,-49.2732418208933,1499.12099976886,-116.881048646018,772.42599938223,-116.210642982991,687.72885477656,-116.227733117073,505.148978045095,112.650721646255,2168.64109171538,-379.535347297067,491.170237661956,-86.8490903435352,824.303077949649,32.5044423032359,1057.59256116585,-99.3476341580154,336.338192306949,-25.2538113550678
264.480653356433,-22.475072192211,2031.19414473494,-63.1063884113537,344.416747837136,-36.1050426909609,1025.53739992973,-96.3800544698653,1402.75003188288,46.2777318511751,385.706204894056,-50.7516597334741,1518.77904601467,-120.961246636546,779.666124822837,-118.437378843432,695.872697678519,-118.227411161352,511.623165524211,111.796089598772,2200.006456974,-393.089885479024,496.803030109331,-88.1883660466948,836.265724856123,30.1906544002805,1066.45883070778,-101.622949221781,338.734996602763,-25.5837410554842
267.659845183908,-23.2756183296556,2046.55982301862,-65.6400591890752,346.329551705725,-36.2218803938992,1031.50840780477,-97.7085124946775,1418.95329877359,45.015809951807,393.08436915586,-51.9788645360233,1536.93059936344,-124.708471636785,785.903784389007,-118.878955844259,702.441884242295,-119.466971355444,516.858429824854,111.361548949451,2225.11352133218,-399.844746710695,503.581029137341,-90.2873175185303,846.187218175353,28.7101126031076,1073.80493988317,-102.520674528634,341.675010664092,-26.2472233612705
265.511489116791,-22.745333851029,2034.32260609261,-63.1408861357397,344.647331513377,-37.6130653650468,1024.70167963336,-96.6186603680673,1397.54887945769,46.5951338531099,384.818081347538,-50.0419944195209,1506.48179504955,-120.080660306058,773.581404989218,-117.146661508509,690.87164735622,-117.079312892739,507.908440637041,112.074852471357,2185.19633184723,-387.014967215995,492.229258204862,-87.449588877617,829.027242558556,30.308951321839,1057.97307569679,-99.4026892092567,337.072450211811,-26.1366828405779
265.39007243971,-23.0009549354359,2018.5783950749,-62.9350417093715,342.664662459304,-36.7776797094465,1019.32217366447,-95.3141668021583,1392.68182791129,46.5794895183021,383.287057133415,-50.4562365660423,1502.77353566581,-119.082443988751,772.365458042364,-116.865335054709,688.935676689473,-116.596735732769,507.91506540861,111.652494695076,2184.43143719418,-385.101895400016,492.753695153193,-87.5088744378224,829.442929707459,30.1839186861302,1057.18749878785,-99.0713739766279,336.687012956371,-25.2242599733985
265.647363228533,-23.302343734457,2030.62490444688,-65.2694210228811,342.34385071729,-36.1945392809488,1025.3937269565,-96.2634178092387,1407.28824600102,44.396518041,386.549643512632,-50.4087366835977,1519.50481666666,-121.432847966838,779.144460388722,-118.141709204532,696.38144183365,-118.472036282881,512.521207606941,111.808674377653,2209.58731997743,-393.574031771718,498.919341888249,-89.3789229625485,839.814929475221,28.9716399129456,1064.92503015691,-100.611729514498,340.090634596104,-26.2549379397611
267.914636809502,-23.0221935806849,2052.64976169483,-71.0895808165,346.181664318986,-36.6896450014127,1031.08641290191,-97.3063980730818,1422.89223758775,42.7620558758038,391.789242980787,-51.2926021569853,1540.12459691695,-126.076547666109,785.471003389249,-119.779410338168,703.7668305102,-120.692020571063,518.189966271123,110.953422293615,2230.8690355097,-398.817188425385,503.862074657045,-90.2965761429056,849.298396892266,27.4185753742208,1073.74341437319,-102.920679213433,343.106250800187,-26.6626729450159
269.770324295233,-24.2445532809248,2072.38712425794,-73.9797509884311,347.230966700904,-36.9529985824926,1037.78017535142,-98.8579531427708,1438.26241230456,38.5908957415592,395.136795840547,-52.9768241010205,1536.39062965066,-126.290480454513,786.716047097426,-119.935271822566,703.188234887713,-120.323140679717,517.012759873494,110.236962147615,2216.01741074438,-394.165537156067,498.312039593685,-89.2668591202068,840.94432840227,27.5851136348636,1064.93122285966,-101.035729565317,339.647579532026,-26.5176306453816
264.747402763975,-21.5444405423355,2037.97615910978,-66.4059012691114,342.01363964311,-35.0090366364615,1026.02708862618,-97.2396669870131,1408.46020693847,42.6330989063335,387.361827048633,-52.1868108984679,1517.63116875847,-122.948792353209,777.305382315976,-118.217815283309,694.738995519243,-118.214788726755,513.326229946197,110.68050886879,2205.890477002,-395.192636302297,496.160261382596,-88.3851577569121,838.049113667563,27.4415930597261,1061.92472923584,-100.310191680246,338.748219806066,-26.4391783850713
264.974170422969,-21.9967934106123,2039.14785761964,-64.454345887905,341.591977362776,-35.2971289041454,1026.78743168275,-97.4294571986775,1414.42305671138,41.4700384818257,386.540179374219,-50.1797153003917,1523.13584533874,-123.070429128581,780.692502235223,-118.552617572299,698.036169609937,-119.254197051274,515.352533886126,110.899326421871,2220.22648002716,-399.053955330373,500.735692505078,-89.9460211464084,844.123589111383,26.9452963624614,1067.75992137774,-102.459229887916,341.60476537661,-27.2730167224425
269.836826893884,-25.0800377398939,2058.13326775028,-71.271407082564,347.36910849046,-37.7788671622246,1034.02073338299,-99.1408696529801,1430.37658268835,39.1462167305361,393.311083894282,-52.0828783402883,1543.80379256436,-127.704670407429,787.023689734899,-120.010651253401,705.58664527777,-121.021241682433,522.669491655363,109.070097523455,2239.59619054888,-402.70888597634,506.090279403207,-90.9554883585945,856.123043834916,24.2682915466498,1075.29489217662,-103.626749603112,344.744459059817,-27.5374976933997
271.937271698237,-25.6495813745231,2074.97626279544,-74.0892489799108,347.988164428461,-37.4508741964807,1041.96206513978,-101.53802896502,1442.32736421244,36.2101969519221,392.346117885663,-52.1137625430355,1534.56461210533,-126.454912839991,786.018776003041,-120.175835371852,703.271551559588,-121.036097742964,518.789816731265,109.211942200835,2230.30691750143,-402.834106514318,499.811493627197,-90.1553722227786,843.434732890152,26.0631095923813,1067.53160901438,-102.432523588379,340.283201326355,-27.0798191877618
268.158570221335,-24.1973347884048,2041.2205308514,-66.8068990911091,343.616956829364,-35.8484013937874,1028.39710072249,-97.8819326828807,1416.81859709298,39.3112260717522,388.203276356806,-52.1364282766279,1523.04450966254,-125.256829348044,779.262782117115,-118.955831651793,697.05291528708,-118.897432661713,516.295940760685,109.334662267866,2219.80753247479,-398.031377254294,497.501871120874,-89.1572899483548,843.589581688984,25.6564957029532,1065.19175947373,-101.890869623604,340.269924296905,-27.2897455014857
268.057444279955,-23.5649531176859,2052.94765727317,-71.0042097793545,345.17639653182,-37.859026833863,1030.33475354553,-98.4700484457879,1421.81015053442,38.8099614183274,388.539120743137,-50.5464141619544,1531.35705665911,-126.472740117919,782.098321667387,-119.066158622307,700.630169102237,-120.427644739966,520.389433142026,108.644280739377,2234.53364449242,-404.478065750605,501.457097865812,-90.333295256824,849.409024912621,25.4405359491199,1069.95699311678,-103.213460033389,342.230914079752,-27.3349506013047
270.30580131239,-23.9596471952707,2068.10576321973,-74.5174272234715,345.940968752467,-36.7928374152511,1037.96327399567,-99.7921123866824,1442.07972839097,34.5261386789479,393.121859674516,-52.7767280346802,1550.52015340288,-130.714263494567,789.540670339742,-120.831443047242,708.086786388674,-122.036745484362,524.998371776111,108.290087447903,2252.89200788637,-407.314257578866,507.257526064485,-91.7067601787523,859.142869614741,23.7050820065652,1076.93710023374,-104.24809485551,345.22524950142,-27.9432155316994
274.311966454566,-26.1897201295058,2087.78032559481,-80.5032806031912,350.708800847555,-38.5234758630811,1047.28747596227,-102.545062679631,1457.157682579,31.5405410610033,400.045943554324,-55.3445366497466,1557.80162183392,-132.354934477874,793.456518480001,-121.967388460683,711.9268832249,-122.917313221903,525.144712591034,107.577300350463,2247.63842001289,-405.828913200609,502.547321297201,-90.5658064105719,850.810241408373,24.7771827188541,1070.39426646934,-102.576505068512,343.10225361139,-28.569427536876
269.229567312162,-23.5883765410963,2053.67999398063,-75.4788339461359,344.886672331613,-36.2352297261193,1031.67306877136,-99.8128970548538,1419.95025673843,37.9398142784846,389.1081685694,-51.6463187493144,1524.67524487907,-125.767540424702,780.666795437873,-119.269132523641,697.473950936215,-119.045014679304,517.420253241336,108.558829122823,2225.66044483235,-400.49828153369,498.029568938852,-89.1682284340319,844.567692699908,25.433359589308,1065.24935438678,-101.8326394379,341.121664207437,-27.6944803421175
271.096546087667,-25.8463149712988,2052.36779672893,-74.1650366820561,344.969811654515,-36.6013766551376,1032.82623200614,-99.8950704935491,1425.00985924627,35.8039672153072,389.153307692892,-52.2186570121057,1530.33794024014,-126.919941619207,783.214768523542,-119.939879288572,700.598411204744,-120.242119731441,519.17648405828,108.701898604162,2234.87714895493,-405.092350460838,501.374835784204,-90.2424721574827,849.58412876784,24.7870648256796,1069.20867368016,-102.64812117111,341.534014440427,-26.9065788130315
272.616444731793,-26.4535176459056,2065.30362847022,-73.5426719463303,347.082913895571,-36.9960505641448,1039.68993855495,-100.811041378995,1440.04379509248,33.0863731724792,394.941874170621,-53.0437052371503,1548.92704048301,-130.537644964089,790.47232656727,-121.478780841938,708.079956265456,-121.67216286952,524.220068829699,108.379523494612,2252.90458763507,-408.713987701458,507.261464995183,-92.3180109720144,857.923560292079,23.6801154343411,1076.3316894925,-104.691054511274,344.609726059591,-27.73657448162
271.743059608755,-24.8472513377229,2091.02154556503,-82.1579559969327,350.493281050176,-38.8240665303021,1048.11050744118,-102.986149849618,1455.31012218261,31.1084862838318,399.085248682351,-55.6435977175573,1561.21358099013,-133.593775966394,794.575858163872,-122.541783071955,713.557461893671,-123.221236440317,526.272451916108,106.981052586273,2251.38592798813,-407.91345965021,503.4572798117,-91.2764710243089,852.611409075896,23.9904788407497,1071.38081347043,-103.045631458479,343.03138734717,-28.5836351998925
271.192765571593,-25.4179219199506,2057.42180078181,-74.9872635637223,347.239460477534,-37.7035463629108,1034.49127332846,-100.641500490965,1424.9283195914,34.9829621986936,388.673375443645,-51.0716820775266,1530.22561750448,-128.356305104527,782.654904498918,-119.650925621693,701.489498788055,-120.621642859982,519.251404214897,108.044910706679,2233.31684720619,-404.776903875667,499.528512820986,-89.3011982485749,846.615732711251,24.9742511027485,1067.90321081073,-103.256952931331,341.393632723945,-27.95768088037
271.714810805572,-25.7412661418709,2049.69545852731,-71.0570600271111,345.38832277816,-37.4146840634675,1034.92234760232,-100.690953916421,1428.85674851329,34.3542849412534,391.086799473154,-52.9053033858002,1534.26910663161,-128.67273124418,784.986448710063,-120.556368219705,702.362625324911,-120.285442282261,520.986645245743,107.608219015855,2236.86535172381,-404.498497553849,503.004470505457,-91.1543711575389,852.107621808782,24.1609422724883,1070.42444937182,-103.640981184904,342.51233161394,-27.6969674198797
270.307746052752,-23.9139116597353,2074.44755380399,-81.6198198219131,349.669211226563,-38.8680172600291,1042.67263704224,-102.546820357094,1443.08172773289,32.1478063348943,395.648450247562,-54.1530861113512,1553.10305563436,-133.291628390616,791.344528771102,-122.493070120906,710.30277561441,-122.624437546861,524.858994064401,107.71300110362,2255.96901117601,-409.453990217156,507.280060317071,-91.8622912514541,860.517277201041,22.7070408161124,1076.38615442419,-104.254671490662,344.994683772995,-28.2160945877758
273.133129325547,-24.658892232904,2098.09050703795,-85.3779262281553,351.422485970342,-39.5027165042628,1049.80014058276,-104.188392052488,1457.3552038287,29.3092135490327,397.385689166445,-54.4301149512304,1554.637809105,-133.168324551262,793.908323313718,-122.955047251433,712.04214733711,-122.973191713812,524.970569587856,107.17720635817,2244.75247668208,-406.598969348628,502.215081998865,-90.7110346798317,851.395879182489,23.9214438210256,1070.65080497528,-103.428936104697,341.969805642895,-28.0517340880976
271.239079977031,-26.0369608302331,2055.60789824643,-75.1236036301136,349.381957717899,-39.3046084982403,1035.55477697672,-101.043846969392,1425.24400083102,34.2955562458075,391.291415943406,-53.5016389627635,1530.42063942336,-127.849785136876,784.400624556531,-121.130189692526,702.163400858024,-121.128752275455,518.352244855743,108.465953972745,2233.02193534814,-403.502251138291,499.234406925779,-89.9473170862228,846.762196032274,24.7881835633698,1065.2690146621,-102.124300714401,340.127550131187,-27.1423552469291
270.678272445624,-24.5464553589145,2054.72694515979,-74.0759293629766,347.209406686367,-37.9756943502648,1036.16249437985,-100.897561292228,1427.82077895545,34.5513259598296,390.369669974427,-52.49966370309,1536.09095075833,-129.777237750477,785.531708986996,-120.691159367784,704.325890455851,-121.394477005376,521.447015085558,107.354310774814,2235.90932117018,-403.798423471256,502.508038466998,-90.7129490991402,853.465840566631,23.3878550302704,1070.25878448666,-103.431285780657,342.401069532296,-27.7593819464512
272.413047056277,-25.9936758901793,2076.9491265086,-81.1644728431046,350.264601228738,-38.9335204943302,1044.72943102569,-103.280292178612,1443.45447600817,32.225957116451,397.26986042815,-54.6599943358599,1555.10720652981,-133.182880413807,793.201998240522,-122.520987853,711.760996301765,-123.13999805186,526.904520560824,106.826982500364,2256.90076047329,-408.918276966358,507.598938918277,-92.0889753180468,862.48463015605,22.0808214578639,1077.71719826631,-105.084672883309,344.848778377193,-28.5250137695976
272.540361079827,-25.4713836069886,2085.06134836634,-78.9921671404231,349.95152130809,-39.5274551908669,1045.861377744,-103.537470970701,1443.15172698057,32.2836330585385,394.168837388937,-53.8237104186134,1535.74473858611,-129.867059070559,787.754137927382,-121.538806869805,704.995461339765,-121.731718815824,520.462859795817,107.65323683261,2229.4397148574,-401.040598304939,499.014272335852,-89.9426245607887,849.231739980099,23.178160435816,1065.75474047919,-101.860577508298,340.127380657181,-27.1948689789557
268.93967106719,-24.4081920548114,2053.86941069766,-73.3045777417891,347.743556778814,-38.5243363135197,1036.53696131125,-101.204354613976,1421.28104318587,35.511867012879,388.921399700412,-51.8549715250914,1526.73619027221,-127.580633648876,784.141273686965,-121.246910074268,701.73223404439,-120.802807733189,518.321866096588,107.256332456682,2214.40902038938,-397.213130224544,495.677792486715,-88.7751534501616,845.126062096719,24.7869483856342,1063.89950120975,-101.881564306075,339.200728337927,-26.9503561332956
271.977246331129,-26.1998977829429,2057.72912507407,-72.2757284590535,347.747412942861,-38.6403951467826,1038.45432408107,-101.935141643686,1426.47334756399,35.0236626632912,393.366030172883,-53.8928027311006,1537.4194237823,-129.890298716828,787.683997292825,-121.765129755428,704.999598706869,-121.533811048654,521.056080838206,108.204064601542,2230.29477469058,-401.957382608873,500.503811484998,-89.6883257261037,852.090534643098,23.8633043931488,1068.72996988538,-102.726289333516,341.446015420075,-27.3208263206141
271.567543985569,-25.4594957034961,2076.63970912493,-78.6390186579895,347.662739815498,-37.8882703648889,1044.40543561484,-102.724140992136,1442.30353141968,33.0987267328029,399.223524059202,-55.9028901093709,1553.6280152492,-132.690322720495,794.029986553799,-123.107923344347,711.407476735469,-122.968927577159,525.414797138615,108.012962736981,2249.91791244573,-407.660846853252,505.707141497968,-91.2890216525616,860.294406506772,23.2212176814322,1076.92697644803,-104.874356542033,344.476259429013,-28.0802193182177
270.931859472329,-25.1330316972227,2072.35922159983,-79.7478440739067,349.063394373445,-39.4226395464538,1039.10219376577,-101.837400085353,1428.15769412943,34.8523651589174,390.522291139356,-52.1855458113951,1531.52054515481,-130.046719433844,786.490236889873,-122.083920704684,702.343198757291,-121.036055837088,517.573613709859,108.748990844007,2213.78176246812,-395.764434323135,496.758777478278,-89.1781372127895,845.984631592688,24.508500054075,1064.77954961355,-102.306800769763,339.132854192507,-27.3216427820748
270.899886570757,-26.0858245348112,2056.1388184835,-75.0144008572169,346.718218383508,-38.1907339904653,1035.12467486516,-100.566536674045,1421.49802076275,35.8286533408734,386.58602112241,-51.1373892077216,1528.8094120074,-129.479150677939,784.498809695299,-121.486440774623,701.00546175566,-120.392327066619,518.436758886503,107.460617050943,2211.88197555262,-396.71312365611,495.703694664608,-88.7646229151972,846.075978319639,24.6933052463744,1063.83508667692,-101.505336539791,339.0331397132,-26.7833269422959
270.51439938085,-24.5408389765938,2058.86549026018,-74.6858963094451,350.21534966655,-40.0692699773072,1040.85403144946,-102.585874909693,1430.8784090938,35.2519192776937,393.672224253595,-53.8327836821093,1544.68389816202,-131.182968866967,790.422094815685,-122.454949597328,708.04071480386,-122.404465694742,523.027204349576,107.575399068627,2231.36489846552,-401.382757149758,500.249001117255,-89.8877543707473,854.486797473073,23.7491673492874,1070.85103983867,-103.613114383005,342.245684251362,-27.6980331145394
272.974240437501,-26.292040762244,2083.7960807078,-84.0129153569457,351.087129189523,-39.0242498602955,1047.61143040981,-103.726306799953,1444.30663830336,33.5617083552681,399.384918462938,-55.8575460276621,1563.12362253011,-135.898707052525,798.112354928572,-124.56680746257,715.412408939574,-124.668901854331,526.777418738544,108.196628525502,2246.06448966919,-405.144384320692,505.695384839011,-90.9061907643667,863.499746594206,22.1676046802584,1077.75776318676,-104.681085386393,343.805782246147,-27.4361618961636
270.509277554712,-25.646094929962,2055.74618040034,-76.4897466826748,346.127959371709,-38.2236346058154,1036.47247125421,-102.012246004017,1418.59643337542,36.8693626119207,390.705519723,-53.4623669569151,1526.99478616411,-128.145898671778,784.001286616199,-121.158649206781,700.907576317964,-120.764277632384,517.096000391707,108.284375695157,2200.30104739361,-391.177278281657,492.710920679939,-87.6811172906586,842.964169255683,25.631065653686,1061.76049331411,-101.656534433202,339.131266291473,-26.901510538279
268.677570815908,-25.3178436251346,2050.17176391084,-75.8545996222708,346.140614397247,-37.3243503642037,1035.85047124838,-102.03789941372,1418.25652440647,36.9603182117158,388.959903840954,-52.2079577578733,1530.25856974798,-129.093280989506,785.267703349779,-121.220757564977,702.469271823054,-121.454787471248,518.149862846649,108.20878794949,2202.35180488273,-391.922791151263,494.133323658811,-87.9831201450336,845.674280825732,25.1561496318777,1063.23535079769,-101.427015464133,339.270707642643,-26.5044560094285
269.318696226715,-25.4256496577458,2058.92473637819,-74.0422137869757,350.600519335062,-40.1952664805953,1042.70346613732,-103.064046931667,1434.65537758567,34.6137863264652,395.223860313098,-54.3824179401258,1548.66828146206,-132.663836471211,793.389254864137,-123.686480980295,708.772402057424,-122.481115389814,522.429678622971,108.281192622713,2230.20016173817,-401.268459372972,500.138811275973,-89.5267144402022,853.424154518988,24.7270511697011,1072.16985034754,-103.646493980714,341.73334875439,-27.3760731653757
273.248690674783,-25.9474275289018,2081.65102611776,-79.245770476535,351.994966888625,-40.6547431624063,1049.80508420018,-104.384819812971,1450.05650884082,32.7005160265613,400.562050871134,-55.5697277076344,1567.4034815454,-136.460383552517,798.467746717441,-123.932167602063,716.628603362421,-124.550898115567,528.43525123212,107.517255508822,2239.41042226498,-402.760591749243,501.648813036267,-90.0256149518337,853.992921788098,25.0065636719487,1071.75407341986,-103.359437850645,341.60303234464,-27.6261244250401
269.607575164102,-24.9563764859526,2051.10392073246,-72.0528515064474,345.192062245569,-37.09876233132,1036.03312817217,-102.259365382882,1417.65781673859,37.396755780258,388.910984756165,-52.6798283942242,1524.70648666149,-128.7480675942,784.196044951385,-121.763380074439,700.660522366092,-121.01873652353,517.084143487752,108.321977340299,2197.52820210986,-392.162777509347,490.819423482957,-86.9768512773578,841.178393738388,25.6389112012876,1061.11816253639,-101.487940199793,338.717729690179,-26.9828005390101
266.183791069485,-22.7854400872897,2047.86632471085,-73.9444508037312,345.070214192074,-37.5546340498499,1035.18330724572,-101.128298961316,1419.06583393586,36.7028037246449,389.121335066271,-52.3712957432934,1530.49352869033,-129.288705386828,785.171717121299,-121.831418861421,702.239378720664,-121.322071990657,517.375075752899,108.914455260425,2197.9897569835,-389.911063794545,492.626324798045,-87.3753208223264,843.233898282673,26.7567737646372,1063.20169843004,-101.828760902476,340.095464584729,-27.3601731838084
270.111167241878,-24.4205499541452,2063.1001334223,-74.5336149960638,347.296296635003,-37.1388823909877,1043.25596610711,-103.416718222894,1435.6284744662,34.5696309440213,394.33771473674,-53.69027291689,1548.4825208116,-132.380520119972,792.861439105714,-123.441467019117,709.216902315806,-122.740506345958,524.081583414394,108.406632507084,2217.21164938372,-395.187401751476,498.564514724849,-89.1488556902457,852.956376367849,25.3026332636977,1071.52640179033,-104.012974073274,343.151305592512,-28.156906157664
271.517062824522,-24.7045187674753,2088.01706759807,-81.0936657372228,350.63757331318,-38.8957250331875,1050.14105880761,-104.361944129106,1450.37764348463,31.9052965143125,398.726749115867,-54.8031770917282,1565.94136003473,-136.879673592969,798.854927273307,-125.016212356733,716.59443180622,-124.292264458462,527.364812075352,107.446028741454,2226.38292501167,-400.803051708275,496.170209667585,-87.8528814704029,847.952055818137,25.7831543896476,1068.52435457807,-103.060676211103,342.332183842755,-28.3964498735838
270.020673852802,-25.2417410101733,2055.91598843198,-78.7690308629162,345.678972992546,-37.603810480687,1037.09428661069,-102.173434793833,1420.26980153108,35.450484484634,390.893285575531,-53.4352606971415,1526.26705869421,-128.209254737658,784.946359534978,-121.798795504499,702.371573644756,-121.016740649299,518.563069494151,108.079345911844,2192.12186532645,-389.081107690827,489.527391372223,-86.5838131565037,838.758430436747,26.9907977074599,1059.46854790744,-100.528902412962,340.19197663445,-27.4516387980932
269.326344232911,-24.6660507182625,2060.88429026867,-78.1745463364408,347.877460556495,-38.9495780812756,1037.5911476607,-102.360795086661,1422.52497855008,35.539370023953,391.653464976043,-53.7315309619168,1533.84858422351,-130.077367889814,786.729890855895,-122.173200515269,704.831740971782,-122.229276043508,520.279755028586,107.843478444167,2204.04886423178,-393.544135675928,491.650772336262,-86.9468884716625,842.64568015149,26.6076273088008,1063.84495973951,-102.267902368938,340.896139217037,-27.6525262392337
270.408388863788,-24.6678386966563,2075.76615416033,-80.2174500267996,348.128634727887,-38.3049654146323,1044.88355705733,-103.991424773784,1437.79377312393,33.2811917117432,396.655731351264,-55.5066046305678,1550.53693523483,-133.384229241321,793.241889074802,-123.725063668323,711.103241100199,-123.103074913103,525.571466824575,107.505920891596,2219.09164229062,-395.989661791319,497.389354720839,-88.3832812928573,851.642352739703,25.2179594326336,1070.76147665169,-103.538882371552,344.49014755725,-28.4030343360012
272.380095638773,-26.2917078674075,2087.59359962404,-82.1996967325659,347.666700584213,-37.151730001514,1046.09601137461,-104.490689203565,1436.08691985869,33.1252994163817,392.059107831627,-53.5656918798976,1534.16892191585,-130.068087518587,787.654926729001,-122.429559727546,705.179694167786,-121.679182103693,520.456637617201,107.747878296144,2197.86544238104,-391.179895214597,489.164400235809,-86.2686736884478,837.39140915851,27.8490377831244,1061.48365741979,-101.837842311314,340.657157671612,-27.8450820726713
271.065263082884,-25.1577076119617,2073.69507133034,-83.1634089982826,346.635751499111,-37.7670003337627,1038.50234395179,-102.564794188201,1423.83603955156,34.6545402330878,391.819919291906,-53.9303985019228,1532.05199835741,-131.001112745383,786.414248187234,-122.076336299759,704.184374241068,-121.51715495972,519.215663606475,108.352776579125,2192.61577301646,-390.665803053702,489.55254170296,-86.9121282857315,837.957884303045,27.5353919090072,1059.89445939576,-100.895035173991,340.959335271301,-27.5681017483792
272.130217178386,-24.8934194779166,2072.91321749588,-80.0732717818195,347.861553812381,-38.6574205988383,1043.183190319,-103.887314730128,1431.44887587984,33.4046258841985,393.990245908517,-55.3660469784817,1544.44735462001,-132.205239548761,791.176740793599,-123.397066512283,710.144206915317,-123.228661477305,524.468728131384,107.597941787265,2211.73463399054,-394.963383204938,494.640493855664,-87.9326863507284,847.138618885561,26.126526950704,1065.93700777327,-102.002401546275,344.548761097064,-28.6453509140388
273.639966128615,-25.7349137197755,2096.5858080545,-86.8119141839269,351.291188163237,-39.4939971069682,1050.94823462231,-105.819119960308,1446.07849953837,31.295822394279,400.341585342143,-57.0460729898141,1562.14212028245,-136.103368194931,798.761508585116,-125.092364515623,716.591722095331,-124.484157022032,529.592357440686,107.109776973869,2231.02669214835,-398.68784157184,499.952513903969,-89.1134964120365,856.765633681785,24.6541462308241,1075.00913051184,-103.762492335652,347.909901616493,-29.3834188246562
270.780185124691,-24.7386032103448,2078.48004125281,-84.4998496111507,346.566949401617,-37.398338224492,1039.33875285594,-103.071770473068,1420.94325239703,33.7979763654686,389.05338089171,-52.5092964955481,1528.20750553985,-130.043194714169,785.162596972534,-121.786818492321,703.782264268884,-121.988181064393,519.233355845131,107.419304457029,2190.97087673005,-390.080787946153,487.896953900085,-86.2883293217511,835.412327677197,27.3257363562151,1057.52034784416,-100.30094643578,342.298238797324,-28.8080476507573
271.655473726354,-26.273401144143,2069.86912378833,-81.8453131179083,347.576612497434,-39.3944699355303,1038.09475568796,-103.07443912663,1418.63416415394,34.5659366277163,391.62839953669,-54.9752462518634,1528.42582925591,-129.741357974658,785.320653233644,-122.258773194369,703.821860207151,-121.816887804374,520.259189321315,106.990930635656,2190.7154296865,-390.65551295009,487.827096168821,-85.5847202893169,838.064978080349,27.4877736383222,1059.57534259939,-101.200387647773,342.919299035769,-28.4023142782161
271.286937459943,-26.1245529626265,2078.62625109135,-83.7656501773856,348.48011333597,-38.1107787239614,1044.29178846947,-103.534481221715,1432.40508366265,32.6411615686297,393.907639921808,-54.1394784610649,1546.59762808515,-133.194412166666,792.629655950245,-124.053939891141,710.654896033315,-123.610325226392,525.052818620174,107.053034358574,2205.42905925363,-393.074030454502,493.973904318848,-87.6478125112195,848.766012539074,25.0321129010271,1067.58718959571,-103.004928681276,345.002244457409,-28.7951291013453
274.107108687341,-26.0314355464314,2101.77932071225,-86.5397577093658,350.91450223692,-38.4170569300577,1053.03732274185,-106.664307112502,1447.32234620518,29.5923837526931,398.845063137707,-55.9690199330157,1561.36731375325,-136.100267739495,798.071976817543,-124.960520858816,716.783937376904,-124.913530610553,528.010353596338,106.220241558176,2216.59448229378,-396.597375629975,492.768304103047,-87.2533411016832,842.939576186594,26.5270471444276,1063.00401912393,-101.262709901336,343.880945281582,-28.8607388843381
270.754272993986,-25.1452359527858,2064.08821137708,-81.2209914808689,348.900434795671,-38.8939105410457,1038.06106759149,-103.084182174605,1412.10020926273,35.4429690635466,386.904191466221,-51.4238932654143,1522.50714431051,-128.454734680574,783.008273861606,-121.487721747241,701.304339724727,-121.056259600486,518.209137768669,107.206813512644,2179.07801166235,-386.272977685171,485.789355942929,-85.3005902635574,831.875271722919,28.6084291645623,1054.34945224028,-99.6433449051123,341.800741155566,-27.8431211031194
