262.592519637542,-19.3087546249782,1988.18748072096,-37.5769143075232,338.336044102173,-32.4599740801557,1034.47675614245,-93.2519272684742,1371.23709697606,64.8267383273062,365.956485244908,-41.7051394556276,1499.64173746918,-107.339677203202,749.075015543045,-103.331538148716,689.12672473847,-113.893602354936,515.668461346248,116.00255446174,2141.26065416838,-361.387634949801,484.885511784975,-82.6801062995523,809.774147655466,41.9605550494864,1035.98637028112,-86.9388526071876,336.685186545333,-19.366503768025
263.310992454321,-19.9961795164752,1996.97965895626,-35.4329072954762,336.008637861852,-31.7650190576011,1041.70843516443,-94.2542989780354,1386.363332838,63.4175861032297,373.31786887608,-43.9820199498428,1517.82723101363,-111.105283260719,755.571247006734,-104.271707429058,697.110099112807,-115.969027835129,521.747786600086,116.171250484686,2166.34884201071,-368.616191865943,490.810564207924,-83.9323088278271,821.227578978637,40.2212113244771,1046.48889696058,-89.4194329598301,339.872867981617,-19.9925380432026
264.720394360039,-19.5368487735851,2015.90007097566,-41.9268883403607,338.000559574944,-31.7122854788748,1043.36476643114,-95.7264675169721,1389.68064810943,63.1990979275268,369.899615685586,-43.870236240337,1502.9664536867,-108.326078197723,750.485995975168,-103.484290725112,691.677620167778,-114.986971549944,516.672793159893,115.320114254558,2141.404903197,-361.655231754079,483.71706381534,-82.6240371057762,809.328548360312,40.9974958733509,1035.965054769,-87.1161716338859,334.868515659904,-19.1195728349109
262.658076284582,-19.3973597185148,1995.58856494728,-36.9960852404229,337.98721383681,-32.6945960494989,1036.6601843235,-93.1524962028495,1374.89267927566,64.2518041151801,365.771518576587,-41.4354144250253,1498.56458481072,-107.255927278881,747.367896485534,-102.481403411228,689.710426348167,-114.447456705676,516.557132582585,115.785796880589,2134.43639687065,-357.385916168115,482.941368100696,-81.9853834385002,809.676086319693,41.4889146459725,1035.66811384024,-87.2240893426116,336.343572851939,-19.8229530125773
264.875404046535,-20.1641749297305,1997.07185378314,-37.3534254928397,338.325139990169,-32.5748688012502,1040.71939189219,-93.9212353760863,1382.39714033072,64.1023545831203,369.762910962335,-42.6554618750569,1512.52017752829,-109.745679155663,753.156032369007,-103.782247191885,695.225154626696,-115.416367588041,520.726186381216,115.881550810766,2157.26980428703,-363.476284426959,489.335866343935,-83.66401160406,821.095694266359,40.1980258283184,1044.34720814065,-88.6233149594466,339.440239518748,-19.9730910003317
266.919245842176,-20.2980256209968,2019.2037316072,-41.8927370317482,341.87536651759,-34.0437039291146,1048.26584484843,-96.0302463258755,1400.73662813884,61.0527053349814,373.923161778376,-42.395129319544,1531.5234110652,-113.822802048451,761.507210560422,-105.62903588544,702.648616779671,-117.460821632847,525.872396685642,115.773965470662,2185.64730444864,-373.077651106826,495.852282995065,-85.2737400617273,829.650465708956,38.9869488990524,1053.1837379937,-90.6390354749239,341.020627252458,-20.0047104921305
264.457338095518,-20.2750513450104,1991.81199725146,-35.8441448338473,336.627895626129,-31.3484006031298,1036.34766526934,-93.936438993987,1369.83570319795,65.3466389782814,365.258875101107,-41.4643878481259,1493.66252571687,-106.681259731553,744.866929794367,-102.00954441403,687.015435145139,-113.816077554001,514.374288166424,115.841083746032,2133.94191368828,-357.896003019765,482.87160154942,-82.407603688284,809.212616194519,41.7978549723764,1034.91854842822,-87.3848156430647,336.105809168208,-19.6459234251309
262.773020013054,-19.2999991961799,1987.18230152441,-38.1011740961602,336.88409736615,-32.1677823791204,1037.17513002428,-94.0780615531193,1370.67904906413,65.8926027049548,365.727703708698,-42.0064418463694,1497.47349226904,-106.487888216913,746.676981834674,-102.198120324923,688.168094239729,-114.099709990184,516.327631352501,115.116328361642,2139.87696066198,-359.212392435655,484.833081293109,-82.5455546520249,811.21556593532,41.8250119873352,1036.62665178642,-87.8744168444734,337.045486926163,-19.5800801716252
264.19273014222,-19.4565490549699,1999.51728879048,-37.3569116319783,339.906132645893,-34.4355571832338,1043.67868561717,-94.9337477465872,1385.75148577754,63.7449945790056,372.3781537788,-43.3055301920521,1516.57682002473,-110.265119550832,754.407875326057,-103.498356338878,696.380757677468,-115.829413920468,521.250893487941,115.931185364082,2166.5337611453,-368.411067200796,491.634946912334,-84.41726665449,821.899418332007,40.458445816157,1046.58262058403,-89.4958917705211,340.320575829743,-20.2066261629952
266.822723467006,-20.4722900626784,2019.11815912581,-40.2379751036247,341.451744599339,-32.8959432650474,1049.89791554169,-95.947193074589,1401.63775445899,61.4059099489944,376.316851090967,-44.6579446197286,1531.444797383,-113.210016976842,760.301249975758,-105.168434887055,702.773943920846,-117.544686835531,523.442389709864,114.960396257425,2168.23667999488,-367.007952325906,488.642486115851,-83.8749221225457,814.740431954774,41.1020471617177,1041.63934360243,-88.0016526851094,338.997527455294,-20.6334312773184
263.385834895765,-20.1954085781523,1979.16859451961,-32.0937199539204,338.212980259629,-32.7577436392622,1035.76350762802,-93.741304797304,1368.15496824456,64.4160764472465,363.980769707267,-41.6257094339883,1491.36852373752,-105.883613787774,743.412204807186,-101.520382470608,685.273865454985,-113.245989593971,513.078768525688,116.075653063298,2133.26539529443,-357.937912988464,483.241226936514,-82.406782325671,805.225907877158,42.4195808864451,1032.73327555766,-86.4973977816635,336.651841880062,-19.7912457980027
262.368850669742,-19.6162776175531,1982.92877390567,-35.4819603255118,338.703937253831,-33.1766137227982,1037.15897616426,-93.3199791864121,1369.07231026566,65.4205525707187,365.323895000598,-41.3796785413758,1497.72900902233,-107.092702792232,746.765829915496,-102.411430622803,687.581620115917,-113.702563302875,514.809691179162,115.731905233726,2142.65896129316,-358.889295511194,486.379110038251,-83.189217593615,809.425026741614,41.9993946540106,1036.52055728425,-87.105121739982,338.469074410563,-20.0109177923007
264.828897613578,-20.1087668616503,1999.40109593715,-35.2326441976243,341.151566907538,-33.7903732246348,1042.76634574778,-93.9345794786335,1385.94565974054,62.7770918870222,371.569875579634,-43.408394364208,1514.27449393738,-108.721251706435,753.540256315736,-103.352971945336,695.387747380259,-115.13982216237,520.766400632452,115.446699052514,2166.43078929081,-366.647570613996,492.744389584449,-84.7912242050938,820.278510562537,40.3795364522771,1047.72387795055,-89.8778657983837,341.013229915162,-19.9948158655932
268.167513798035,-20.9323758808546,2021.07800516303,-40.0701109235884,341.955414015679,-33.3752995925602,1052.71364445864,-96.8648256427656,1402.47029597826,60.4900131638517,379.362483948624,-44.2336033709796,1535.77275741088,-113.854062633737,762.420067235991,-105.02675298972,704.12332509434,-117.339504764241,526.079215931534,114.927764720602,2184.38166286025,-372.088041088908,496.086320862031,-85.4039497920637,820.239279582472,40.3809273400339,1047.93463173842,-89.3742817722776,341.39818996327,-20.4344031478254
263.882838148523,-19.516501171561,1996.77895719309,-38.0815296784627,339.860368883414,-33.0187708089113,1038.62101519434,-93.1710304205977,1371.08049920234,65.5026921450441,368.839141059293,-42.2737872218899,1493.63024645025,-105.307650816668,746.006059180041,-101.942271538517,687.055380356052,-113.237030288801,514.141410501924,115.837792426221,2140.87565062897,-359.163394921218,486.448964935159,-83.389403704977,807.458454565055,42.2670302716372,1036.98235290913,-87.6457550087961,338.747430913315,-20.0436648872808
264.761831436886,-20.2034010002014,1991.56911727823,-39.2603519490712,340.023937991861,-32.8705102355032,1038.5453521184,-92.7973802457693,1372.71797196948,65.1331817148332,368.731738677505,-42.4362776823555,1500.090430232,-106.40496364468,747.924057157788,-101.789955223548,688.509564904649,-113.412307600284,514.830218026447,116.092524656035,2151.38134040004,-364.621720221351,488.518775258816,-83.9836999683163,811.399496799867,41.4294845601032,1039.76981306043,-87.5728500659272,340.489028181145,-20.4446621437051
264.598541094439,-19.740058070054,2010.76432572749,-41.1118421429274,341.616626419315,-34.262788615491,1046.45067420316,-95.3022336830553,1388.59602001869,62.7273957117795,372.050809875339,-42.6895691955362,1519.82522401904,-110.180669426918,756.305565192546,-104.259051757696,695.745924908641,-115.128846885252,520.660257583536,116.158280159769,2177.49131270877,-370.289771394932,495.201248067347,-85.371177205355,820.325706288279,40.8131505050736,1049.32388133289,-89.3771251395948,343.36542233186,-20.703106919594
265.224286351362,-18.8070383699487,2023.95882733453,-42.1932353250123,342.04904846809,-32.9378973055947,1049.4370895731,-95.5784692381317,1397.18803229056,61.5147350895432,373.457986071756,-43.8205865437101,1507.71945085586,-107.491411927155,752.004604986355,-103.262590574646,692.316165155772,-114.512024466425,515.157829320161,116.207408104502,2159.14513014448,-366.65379056724,487.036133087163,-83.4811268080327,806.58026441003,42.6437256905221,1037.63684181409,-86.4293754135566,339.615673584244,-20.5900009645973
263.578059972452,-20.0574507486848,1997.12090272296,-38.0759817394183,340.325277280423,-33.6079844720036,1041.04196225707,-93.8378894104272,1371.38823200414,65.9906625494411,365.515863961145,-40.7590627855798,1496.96492639889,-105.383205570065,746.879843420502,-101.980113400108,686.933813382061,-113.298893410126,513.520971332627,115.831551161167,2149.99292234566,-364.482778251446,487.815699298364,-83.7927705699142,805.245906792844,43.4187837375853,1036.6166349526,-86.5478119156934,340.821324637485,-20.6125285846358
264.260662307778,-20.4852280918839,1997.41476429658,-37.504464439611,340.448007602678,-33.545784805386,1042.98149415613,-94.5100345101904,1379.34150957303,65.5283789452609,370.405607394386,-43.2381968573151,1509.57075958318,-108.027181587573,750.163991158864,-102.355532173371,690.452780785141,-113.603141399077,515.69924232208,116.902700028025,2163.87624077196,-367.538489474219,491.605561561692,-84.497480031647,815.03433182555,41.906685774879,1044.67549659198,-88.0212285850739,343.514473247097,-21.2975705901448
265.58759543008,-19.6619893586993,2021.29226339692,-41.1316215097413,343.743168619754,-34.141797318639,1050.82217549716,-95.9262350594079,1395.69069002604,62.8838292439748,377.14172940479,-44.928894114361,1528.90917811941,-110.71547167762,757.454667994351,-103.567676916468,699.335850166889,-116.170236117618,521.622912770372,115.895176345815,2190.97989573759,-371.586125588673,498.596626813686,-86.1872307249057,824.181976905221,41.0251832613005,1054.03029780541,-90.2546050048847,345.968133753374,-21.1981927926789
266.987474748696,-21.2826916095453,2020.28453750186,-44.4543884653818,342.769196767923,-34.500251634913,1043.97746548229,-94.0769096163297,1381.38318003649,63.52128598999,368.795143811047,-42.1717462008631,1497.68212343407,-106.719384345082,747.263734461589,-102.408328258723,687.690409312795,-113.703718066316,512.312018081819,116.629425869532,2160.03105071302,-365.947546075501,488.187423108559,-84.3095389950923,803.769818731512,43.4110763198413,1037.5824866468,-87.2453778710033,339.769638066895,-19.7575342093777
263.870684957986,-20.8972032412491,2000.35677422841,-39.6765592321271,339.8501697833,-32.2249863570574,1039.51849946986,-93.5004684823618,1369.3096576139,65.8542719579014,366.741720365175,-42.1494075896673,1493.36117886623,-105.334595958441,743.97028926146,-100.702740756941,684.292646440642,-112.390417856038,509.549493016448,117.088869684479,2150.89314098005,-361.097737137081,487.421617435338,-83.4263964243934,803.121533637641,43.9741452186162,1037.86958189536,-87.7022856729233,341.103166526032,-20.2632674343812
263.497693611418,-19.8493636024156,2002.5186897395,-36.398572845314,340.859705771756,-34.5904054032712,1041.7791391358,-93.6807649541099,1378.92518718459,65.0169008664799,371.068543842693,-43.6692167480939,1509.54400237737,-108.079376722808,750.992913306088,-102.524381705807,691.242800513037,-114.272701934806,515.934232129923,116.124771192148,2171.64634996424,-367.419403271805,494.165688387647,-85.1896880158155,812.389580756167,43.3612749124637,1045.29424431242,-88.4357624863886,344.983411455694,-20.5730291203627
266.837611616372,-20.5969452422514,2021.85327119342,-39.5337438341021,343.92612642087,-34.3352880800771,1051.23650059898,-95.6378499101509,1397.25454818706,62.9309754711711,375.429167757121,-44.2231794982158,1526.52056840498,-110.467122225161,758.821169321691,-104.325284967693,699.004346596412,-115.817558833767,520.869605842379,115.886775041366,2199.1903268471,-375.886671308044,501.974231229389,-87.5437981863216,823.084709768493,41.1795880125947,1055.10889470156,-90.5557832199341,349.791639134727,-22.5399503426632
266.227607204549,-19.7034115379931,2015.80080700208,-41.951923766583,345.347924917865,-35.9408237872026,1043.4155216342,-94.309875197948,1374.70669795326,64.8158645112137,368.271245507775,-41.0019184528895,1497.14951158656,-105.701688955014,746.228737892157,-101.863788380285,686.860997253598,-113.044620957366,510.59087504079,116.758298858678,2162.90156201174,-367.209011178648,490.223294876497,-84.4261694824941,803.312088593715,44.1217711044492,1037.50328053109,-86.6899101052878,344.076248692874,-21.0285003930312
263.904532290899,-18.9204913776667,2006.07391092256,-40.4909142674868,341.30716163235,-33.9203601603101,1039.96984199919,-93.4695094855332,1369.16994972318,65.7494934147604,368.624131705245,-42.7119214902832,1492.57354203567,-104.159591786689,745.305790178922,-101.408771255515,686.189000900362,-112.778230864766,510.107808247563,116.770427471702,2156.73950145262,-363.017411103629,490.74875965856,-84.7145040765768,803.056361646559,43.6497019275918,1038.85279454106,-87.2196289176501,345.025013790246,-20.9832884398703
266.070315114911,-20.3716404759066,2016.8652181762,-38.7930910501061,343.566025156681,-34.0623091020045,1045.11664227342,-94.7814469560139,1380.94035110715,64.6951160731743,371.851775990387,-43.0272439620977,1510.19096723944,-107.580155954174,752.06114713407,-103.002567039037,691.861718088812,-114.126614203771,514.188030739623,117.72831605527,2184.22130799524,-371.946082408575,497.139167597905,-86.1304138945489,813.758103197733,42.5711970128111,1047.98371092337,-89.3824164842476,347.149395362037,-21.079682292289
267.310050833343,-19.7579580225686,2039.25118974981,-42.7005207407419,344.506798355974,-33.7118653368382,1051.19548593967,-95.5579566941582,1396.48984025921,62.6065990123197,375.743351543667,-43.8502445719834,1528.05621644604,-110.580845490893,759.948259980554,-104.360943340837,700.08976105561,-116.099922761989,519.379169519918,117.274970357095,2209.65783936572,-378.101227406192,505.155967012107,-88.2628028526818,826.189823753592,40.3854582276793,1059.19376561079,-91.3683260150446,350.607203689372,-22.2635840778021
267.012202657574,-20.2737374414963,2012.35863090212,-38.6341660665028,341.549525820073,-32.8406349067888,1041.52063609498,-93.7234294651398,1370.94990468743,65.6816397662213,371.313371562026,-43.399527423008,1494.9425031407,-104.396597078703,746.769117837921,-101.893588580441,687.115229061935,-113.102262275525,509.260782701646,117.519283300692,2176.55280963771,-371.96816035442,492.578173512553,-84.9479591965991,805.521319993616,43.8263097407016,1041.96958883004,-88.3711607331269,346.252485536743,-21.7148692055248
267.070579068917,-19.8001629239628,2017.33726853896,-40.782458617301,342.965978968704,-33.980786578394,1042.89684797104,-93.933774514109,1373.68952814915,65.9464654494982,368.890836190263,-42.5329224666698,1499.62924248381,-105.244380639757,749.686626907814,-102.467163020228,688.789362286137,-113.256397217518,509.676012282484,118.191971156314,2179.06417526528,-370.627699356458,495.909610146096,-86.3273945618568,810.266406463104,42.8778649318211,1045.27044433677,-88.2320197766108,346.351167733717,-21.0543283540661
269.081691750101,-20.8322885215093,2043.32050655994,-49.0294818321263,344.645352309675,-34.3174436478041,1050.26859441522,-95.1956742433709,1391.13866386018,63.6382904869869,375.810507283014,-43.4112416118922,1520.94592057956,-109.097563179645,757.561522645642,-103.87031664967,697.466534288954,-115.038691525111,516.700484526839,117.967495837839,2207.14279686746,-379.778584387239,503.417723217625,-87.8522594411368,822.655888703035,41.7181540445022,1056.73052265555,-90.9507922833884,349.85130047741,-22.1306251336515
271.512056049922,-21.8184148057193,2057.55521443348,-44.7384944755369,346.719208352472,-35.29986095326,1057.49553692354,-96.5303020861465,1408.69008969008,60.809017608544,382.521491485184,-44.7003751740518,1543.65761148656,-114.084924819518,766.673379547063,-106.34208419441,707.597237070224,-117.832816670154,522.048536541488,117.627617919797,2233.82613641157,-387.803159928483,508.263296008985,-89.5686293279906,826.069140468648,40.4375827281177,1059.16740429993,-91.2663642775011,350.209087696658,-22.0854552143208
269.101319614907,-20.6175554890105,2028.7685611322,-40.9503094415484,343.968175285458,-33.9786165300926,1044.90442335163,-93.9255690513266,1374.41121824623,65.9176479282089,372.157908721752,-43.1458168510707,1500.17652012629,-106.317352261394,748.92605636883,-102.517221837783,689.437843935501,-113.848558028522,509.328964495125,118.039711010004,2189.41727696895,-376.318839449454,496.938396828183,-86.5043635264307,812.478443652566,42.1465956478352,1044.76970619558,-88.0475291183734,347.042909063653,-21.6101005693494
269.811871895886,-21.0040241861446,2033.96023768619,-45.4745726236017,345.477926669513,-35.3937411495911,1046.70228683668,-94.3074438878837,1380.22035620747,64.6007134627713,372.039431271272,-43.0854020481211,1507.25684161524,-106.683478120914,752.25474575005,-103.126424657741,692.726017721684,-114.645924429419,512.223515083786,118.023659861415,2202.21638701417,-379.968756324058,499.329691378484,-87.1744334944783,816.895123705045,41.6716252873391,1049.22436384269,-88.6283681963207,348.535567963159,-21.6798378917017
269.866710240174,-20.7981039155916,2053.08891770122,-46.8547130993819,345.886840718288,-34.3724406394831,1052.62487030528,-94.7907097520811,1399.61214636149,61.8117737713363,376.714183874573,-44.034675537826,1529.65911191767,-110.749331563027,761.191565159674,-105.216983967406,701.913552677952,-117.048139624972,516.311176378521,118.754204980281,2224.02027055965,-383.063958530668,506.048807887394,-88.4056145464344,831.33137565022,38.7400478287878,1062.56774410376,-93.0120918704657,351.4136293629,-21.9178096794428
273.386195554257,-23.0853855866416,2072.86359849203,-48.1729673015034,347.618702678146,-34.5096875832445,1062.09685770953,-97.6606342175706,1417.66931506292,59.858601910575,387.175378481646,-47.0008623598123,1550.31091290061,-115.381479877674,769.075276214047,-106.507409279835,711.017661767605,-118.889409183164,523.074545165728,117.480598363891,2243.93387408553,-389.815746886712,510.028090639378,-90.1179570805024,829.445321965907,40.3070890542841,1064.280106735,-93.3538005622503,352.252708140109,-22.8384378243903
269.029228108524,-20.4199088675265,2051.92617133178,-49.1860286505753,345.509889278312,-35.1570563200049,1048.44864274813,-94.1342412877408,1386.64184389503,62.7116744858951,373.878380860322,-43.2810494636717,1508.7481079796,-108.104559368412,752.693678286793,-103.282105093647,694.335768627189,-114.983001395836,511.571185351341,118.274644060235,2208.26970323324,-381.529274167252,501.095099753521,-87.827722325309,819.854331002766,40.8590708059215,1052.88643953192,-90.6182985264785,348.832058892783,-21.9461327138055
272.477669753143,-23.0314135666072,2040.6689328036,-40.9887682703146,344.576409091057,-33.9425018592853,1051.10665441763,-95.1785476701197,1391.39948254768,61.3137401791125,375.304664404215,-42.5167651859387,1514.50825109401,-108.406798013764,756.918317664519,-104.983527662108,697.371108914308,-115.870370499756,514.485546822297,118.604500235286,2223.0570022024,-385.903481000852,503.894547757688,-88.7303165539547,825.34785499616,40.2110595790369,1055.63919186461,-90.1113637887285,349.326612334308,-21.3553504300589
270.763118651108,-20.1711725196949,2066.52840911215,-50.75483021737,347.713878929933,-35.7571213576704,1056.03235488279,-95.5386214073239,1408.34327308311,59.6838582135832,381.176527246573,-45.3631315639293,1534.10677192741,-111.220769295283,764.674425392287,-106.177892570708,704.182517425927,-116.911961350698,519.880932563851,118.827899896678,2245.23374317501,-390.492204416665,510.565556359318,-90.185978629431,837.016844619852,37.8807572812636,1067.71376481286,-93.5092327874568,352.74528036731,-22.3593387418696
273.594515912734,-21.4436017335157,2085.78868370928,-56.6005257228027,350.139862474205,-35.9539208988964,1063.81159452542,-97.4636110115003,1425.03582870027,56.6823408708044,385.482243850588,-45.8528966506017,1543.43810732888,-113.084093387613,768.691457575997,-106.847808257619,709.321129805828,-118.561974844257,521.119599722304,118.026380769409,2247.45067736245,-394.027357525988,506.983746212509,-89.2309832136519,830.279274680113,38.7076258972705,1062.10216560162,-93.2026526387058,349.725320560843,-22.2234922563473
270.251655362168,-21.2782814894541,2053.06151086008,-46.8199666234285,347.387797673407,-35.9546025514957,1051.74176139954,-94.9761495937693,1396.71309351672,59.8696821328556,377.483059342938,-44.5845362158544,1518.0996512231,-108.762881680538,757.668340192898,-104.750006462924,698.075838195033,-115.582908593477,515.37928722011,118.814578108647,2229.07473818842,-387.083518438747,505.917403243752,-89.0776401657568,828.063915090857,38.9041292044745,1057.87605939228,-92.1591059776213,348.924914538416,-21.4785981887894
271.564573063448,-21.3247562373495,2057.65175404872,-50.0890032404754,344.499270844565,-34.0853905660492,1052.16447763743,-94.5400363421507,1402.98413880666,59.6073191453396,377.701545935369,-44.9067045255904,1527.00797091152,-111.229826355192,760.807139463847,-105.551833154499,701.20843504949,-116.708939356253,518.408270595353,118.408690019263,2241.15979033176,-390.749866145313,508.186028123353,-89.6347457416297,835.381958405593,38.1447887370172,1062.84962716212,-92.4442001760494,351.186252837111,-22.6087889634526
273.556615461682,-22.4140033256169,2071.49813825418,-50.3499030109906,347.853901079033,-35.2389162707166,1062.15368985775,-97.6711722132287,1420.30162275593,57.1946827472128,382.477546191672,-44.9674180148068,1546.94710610496,-114.703941340299,769.503249901891,-107.214183604143,708.60658041338,-118.130153182899,523.693374759394,118.210868910721,2265.3901432002,-396.122275130605,514.595300937883,-91.0339825538992,845.267601437637,36.5168975420404,1072.48953951459,-95.0340277635355,353.1474369122,-22.2734693381056
273.557487501121,-21.7042672284479,2088.86023524926,-55.2837192325448,348.822008511298,-36.135769858811,1061.1814307052,-96.7592381149667,1423.75010748575,55.7900171992599,378.427950021115,-43.8041806071964,1525.99499469765,-111.63559665399,762.342386836959,-105.979397165596,702.239282174658,-117.071795064169,518.787699489115,118.098445158718,2241.00926590159,-389.56585490548,505.312360149653,-88.8584619553835,831.805740864952,37.28911696345,1058.20848162402,-90.4500772921811,349.407006712911,-22.6713844182493
272.285004738593,-22.3470658561758,2057.11233449926,-51.2560785382881,344.209149318848,-33.8568506692166,1052.58881093858,-95.2867234385021,1401.57356109836,57.7812896791715,378.054861608199,-44.5082236920362,1519.88775953716,-110.071115729784,758.077084736702,-105.311833745772,696.479936706784,-114.971060573135,516.252412945759,118.535519668945,2233.11701625711,-389.079332094293,504.767141181695,-88.4843659636743,829.756288266906,38.5889782856933,1057.55087652719,-92.1397771963953,348.862705689772,-21.954728403615
270.606861612871,-21.1971272123442,2062.57353023252,-52.484567926974,346.26192320643,-35.1811344290401,1053.90087025838,-94.7628136828316,1408.22431876474,57.9035486724053,381.432781287081,-45.5777625549574,1533.00720863391,-112.831610630788,762.436218261181,-105.991670835546,701.988953783183,-116.509242464759,520.367511632395,118.32619052926,2249.95336206044,-393.75229417504,510.195540732143,-90.4857697028333,838.191373247239,37.9221245480262,1064.37730649719,-93.0195952691507,351.378201555837,-22.4127162234156
273.379100552329,-22.7060561127415,2077.20306027806,-54.6880304591069,346.903790666794,-35.264406406795,1061.27626390695,-97.5280379457446,1428.99291933268,54.0598447300304,384.385605248961,-45.8592379075714,1551.08083038977,-115.222911118452,770.0184481182,-107.098195596274,710.575231522645,-119.240374740278,527.098990734431,117.26724852982,2274.70751890189,-400.99463302627,516.92521956559,-91.8519679685586,851.165318372097,34.5591517903258,1072.75685057348,-94.6827578975833,354.001692657116,-22.7602971626901
270.576885259978,-21.1223475654263,2074.92731416872,-55.2914355395601,347.141398800265,-34.947088963757,1056.48988017407,-96.2832441995592,1414.41001528675,54.3383463910846,378.50805651049,-43.9490879181312,1523.89268441376,-111.539887985937,758.910638562441,-104.862268525535,698.4142889173,-116.098014975619,518.657076131869,118.030834998588,2242.61320584958,-392.509474091227,506.815904945799,-89.4828946901834,832.9877365276,37.2559281258305,1058.41303222366,-91.9423934934435,348.594824026617,-21.8347071982336
271.467930678442,-21.4529549680179,2056.32997180367,-52.4040105387313,345.876494423816,-35.5562099193654,1052.41136472574,-95.5281387825405,1405.35287890164,56.5607520841895,375.371146412535,-43.2363773726119,1521.81380080141,-111.306145656741,759.444966618784,-105.742508846178,697.358289299738,-115.481556239927,519.453557524845,117.378301602949,2237.96918812022,-388.13876251381,506.769167681919,-89.5343606489425,835.350431468795,36.2228172485556,1056.89030643694,-91.7496468848717,348.916450953624,-22.2979933366287
271.329014533346,-21.8194409104299,2060.53322920699,-52.3498720138406,345.58862205708,-35.1544561597908,1056.64638684724,-96.7759025222742,1415.65570198429,55.3590615282235,379.228912929649,-44.8949631834092,1537.07490364458,-113.320056014814,765.880517193482,-106.968712931783,703.595758175392,-116.59294667191,523.29005215987,117.81422710964,2260.01408112995,-395.297250376962,512.595410663101,-90.6869773293334,844.657564446558,35.7574356116338,1065.30026274737,-93.1495565154519,351.064819943821,-21.8793233675418
271.083365876902,-21.6389523097418,2078.23736483292,-55.4507138950771,347.307907630724,-34.8391032268535,1062.97968457996,-97.9763266683849,1432.50540946535,53.1472212689145,388.716021531004,-48.4394974852337,1555.68442619013,-116.991631102132,772.429722519056,-108.28179030087,711.338407201818,-118.906581184741,530.147423980185,116.798519435704,2286.98989136428,-404.391546002352,519.467539615993,-92.6099605992202,856.484844092518,32.9979435261579,1074.54576925186,-95.9555736784047,354.891958158336,-23.5561159007411
271.052608111733,-21.5031482124231,2063.94179642701,-51.8714651525788,345.979059227779,-35.3135773989146,1053.62498002279,-95.9877345716808,1410.81765403557,55.9646605561231,378.249112976539,-45.1930093165682,1527.34808960224,-112.167185839274,760.41466148362,-105.525127956512,700.459416782931,-116.795321904753,522.429655604727,116.524152442334,2252.88873566538,-396.356452956938,508.5772609995,-89.7015767516644,840.250628845939,35.3216790620035,1060.40718505122,-92.5219764982457,350.175641419172,-22.4839608240884
269.931637935787,-21.5335524564189,2057.4810289808,-52.0287985713428,342.631780362787,-33.4495190515707,1053.53871921186,-96.0252248275088,1411.95208320061,55.8122237239347,379.535219976628,-45.2956573313756,1533.58796589998,-113.525847074319,764.470167813515,-106.888182889463,702.014375832986,-116.789765313924,523.64741974948,117.515370853673,2259.33718227396,-396.329695719469,511.65123127679,-90.6370563405426,844.153810084031,35.2509481272667,1062.37428590791,-92.8273248761365,350.646416048879,-22.5685109595438
271.828492583879,-21.7292665202677,2076.41899643896,-58.2232949716885,347.491494374201,-35.1447244811926,1060.25336431095,-97.0687076029079,1429.35413023823,53.4883193556373,386.426680645371,-47.430804457126,1553.11767750871,-116.232566755728,771.80693668863,-108.565089746979,710.910002481419,-119.208452511887,531.372360420959,115.496355964228,2280.52923818594,-401.215908838956,518.484145926461,-92.1858458634625,856.213415634483,32.3869917409872,1071.66999632348,-94.3450746471689,354.0811679843,-23.7731603237688
273.337509709339,-22.331539224031,2093.44936794301,-60.6667576907316,348.63023129034,-36.1129163676769,1068.14423049052,-99.6303576453137,1445.16219548137,51.0634161041456,387.78184502213,-46.1343251798138,1562.86035520538,-118.856737867722,776.325774239086,-109.368226586155,715.816640208564,-120.415919433197,531.402182788648,115.900144000163,2277.43291537403,-402.099178501457,514.222117040958,-91.4787083577285,848.552812263627,32.5090234199204,1064.99122310364,-93.3132411412208,351.556120099394,-23.2758994284213
269.587392355219,-21.0519927684597,2058.25874839726,-51.0705641267789,342.594289782553,-34.0884589091988,1053.27924112055,-95.9827617662944,1412.17091717893,55.1356269659174,378.590489832163,-45.1168473118135,1532.49173002693,-113.24411326141,764.428305268445,-106.959090640661,702.190236050924,-117.117256952701,524.496958635656,116.456240171165,2259.82811160112,-397.682163055985,510.92522351114,-90.4180949393164,844.414527249697,33.755952695764,1060.18648145469,-92.7519263550154,349.82907119248,-22.8969633078992
270.215825761741,-21.4815594497319,2059.76010285745,-51.8032468437714,343.540736099055,-35.20784850318,1055.01798310267,-96.5220846588033,1416.3645308109,54.7139663899312,382.157677133326,-46.7367291979442,1538.50818100565,-114.30705059754,766.539570418005,-107.310728258158,705.657974803847,-117.994153863817,527.585335759626,115.501515300941,2269.28969607058,-400.41136155132,513.428308538576,-91.4445914996952,851.260455852669,32.6207031221982,1064.57974661542,-93.409782377025,352.371513978414,-23.3000174806614
272.948422849836,-22.9282032503235,2073.96837978065,-52.2655791784005,347.969350268317,-35.950621410251,1062.69311996385,-98.3212585582119,1434.08633278285,52.6889092797092,384.801701251556,-46.4338653857232,1560.72390811914,-118.897507043495,775.036180331873,-108.746557868556,714.166083999706,-119.94736043005,533.240872261527,115.260142759369,2294.91174933326,-407.271558557624,520.974594781602,-93.2020153181145,861.487608610526,31.2835031304462,1074.09582162976,-95.8334694426845,355.024767393518,-23.6507653492108
273.43834844111,-23.1662112745664,2093.06726912987,-62.9995498913312,347.38130967768,-34.9277896745401,1063.18940033198,-98.5191462733654,1436.90718890228,51.2958147481434,381.130838510418,-45.3744474331892,1537.86142091924,-115.778400613405,767.972802686005,-107.391014812068,705.73465759601,-118.397940921974,528.491073254003,114.543153373725,2270.25373632488,-400.713358398003,510.165196844778,-90.5849743598236,846.277457351992,32.852326801891,1062.61469659851,-93.6945289708631,349.982944946022,-22.8720509533371
269.705485436538,-20.677085425152,2066.52293107397,-56.7277390552258,345.427105933071,-35.3402196366602,1056.18800187166,-97.8088904300833,1416.69052481261,54.6477110941987,378.872509469408,-45.0699856387507,1532.45679234676,-113.48223783665,765.682465657107,-107.539664349734,703.483380146495,-117.443495691319,526.004804542994,115.592485897223,2261.78375083826,-396.656241780723,511.17659294842,-91.2380166180348,846.713776873259,32.2462839920421,1061.73547755796,-93.2108919324181,349.94970072333,-22.653889207141
269.883068547409,-21.4129352980115,2067.02553021607,-55.1566188678357,345.72999885022,-35.9058410494848,1059.52199827997,-98.6212849469363,1423.89572966358,54.0955701783685,379.85048508443,-44.8936745777328,1546.02875655446,-116.391718741946,771.114366065736,-108.598103830542,708.738101037725,-118.812568987401,531.208900936638,114.557281154743,2283.25431718316,-405.140183803136,516.774328683761,-92.6164340179263,856.184032153436,31.5320736313212,1069.33730387122,-94.8579872008515,354.089869983148,-24.0996526163513
273.758929635887,-23.5088760873473,2084.18965050749,-58.7029208269298,348.358608569794,-36.2225425577606,1066.45727800602,-99.8855372427573,1442.01517630348,51.5806356559821,389.225397703709,-48.2260751366295,1568.09091818927,-120.91982770391,779.997554451073,-110.805278001215,718.146265156876,-121.222334723764,536.792286211393,114.699439667688,2308.81850707675,-411.300090741978,523.698506162137,-94.6419663760816,867.302352966911,28.8574983028079,1077.11565760111,-96.2126396968399,357.220885846096,-24.4441737669286
274.025520890055,-23.417017281038,2079.87020061256,-58.5152082751701,344.928834575333,-33.9324839681762,1060.5873106749,-98.6821792750265,1427.90472556278,52.6461033083948,380.254232656989,-44.2764087263234,1540.07888233071,-116.679974663204,768.980388677254,-108.47825136441,706.742850883722,-119.261421752521,529.766575469923,114.106722349103,2277.87172361633,-401.848853180605,513.052667598744,-91.7394268184219,850.756341293136,31.5185079094154,1065.68131422227,-94.1608813505957,351.701506322568,-23.5220351454345
269.439255635006,-20.5204811791864,2067.41329920711,-54.3002178614179,348.025961915526,-36.1975441723937,1060.20320207709,-99.0704139712925,1424.08285635218,53.380920244631,381.564464283866,-46.2499383594159,1542.27141460263,-116.339814265888,770.651476298114,-108.99380985086,707.018793356536,-118.522744530479,530.743135688146,114.117822748475,2273.23188185623,-403.584986813385,513.780321502862,-91.4143804830241,853.476125067421,30.8807429498902,1068.37916607718,-95.3042486906303,352.453670035956,-23.8143144132124
273.692872345833,-22.6928706218875,2078.84055504099,-55.1538058048065,347.766213610453,-36.2970457365365,1064.34475081648,-99.2648155473072,1437.05583632953,51.7050140617658,385.769614504685,-46.4052032634132,1560.77075473835,-120.488454039892,776.816880790557,-109.865677769373,714.685810898041,-120.381567733044,535.913040501367,114.139592466395,2297.1297198919,-409.018298965277,520.434536958124,-93.3913563301071,865.044104636766,29.1693270272768,1074.73838924826,-95.2213601507338,356.278986572808,-24.7623323958055
275.124938239636,-23.3908192052254,2103.53399597241,-62.0386704440812,351.100673323009,-37.027582662192,1072.10824561456,-100.864423354095,1455.36079522353,47.9730230379296,393.694302796071,-48.8017735664709,1581.11930511302,-124.32259622242,786.16783816222,-112.459196062783,723.040348217212,-122.417643809802,542.109231755559,113.156404264629,2323.9489181557,-416.855731152448,526.06783750347,-94.8375975839367,869.574877367167,28.4651729768217,1080.9255816135,-97.0885803264086,356.803811161377,-24.8026602006651
270.310665950639,-21.0187157485327,2073.30214767259,-55.5031868417984,345.495989788087,-35.2675690210488,1060.35015047406,-98.7058863567483,1423.89611484425,52.2362247902616,381.631634728754,-45.5207126227785,1539.81648726707,-116.337257501256,769.367445580271,-108.502253650188,706.541956185466,-118.525850055193,530.714338632971,113.352533769484,2271.24186133038,-401.90668963605,512.974690676205,-91.8405035705169,851.907795138299,30.3167347680831,1067.71496506721,-94.7760702062267,352.914665339749,-24.1707882488885
270.243108952349,-20.7101707302853,2068.32056665362,-56.8779649683503,346.335378085995,-35.8564642925514,1061.35096989593,-99.2468269691832,1425.8820414966,51.65591801865,382.734425805657,-45.4147067927814,1544.87364119766,-117.647350842176,771.179648122208,-108.95580084661,708.641880003059,-119.334477804951,532.409848681178,113.498061311306,2275.34471871623,-404.508998847739,513.648681968081,-91.6805352829008,854.161335806545,30.5165278490378,1069.21184648816,-95.0366701591495,353.265003177423,-23.8894736427574
273.392470184562,-22.7301552968072,2082.44697797792,-57.284499043077,349.550925573852,-36.4387719174247,1068.43673826573,-101.313682040902,1440.19260509801,51.0162199795485,389.762151617844,-48.2338097639648,1564.2212362749,-120.920954894374,779.194901878442,-110.337371532555,716.03974789874,-120.631884142859,537.95106373749,113.316128298645,2297.41993003791,-409.610688380715,520.138266985419,-93.4484246481523,865.844010528304,28.5976102861567,1078.61423993624,-97.6694830271913,356.160613088997,-24.5897307525368
274.848654755701,-22.5031092343943,2102.85268933015,-62.1986563781627,349.403893493431,-36.4488228940655,1070.57697044213,-101.503035406972,1448.25934259978,48.7635219288643,386.513902384687,-47.8621623743814,1548.44954967252,-118.666271581529,775.140339754609,-110.155511048356,711.344821229624,-120.022075399261,533.435296622231,112.570507348144,2271.41599300712,-403.787846148866,509.248249659446,-90.39552821997,848.82041892193,31.3924373591067,1066.66609305466,-94.7488333523154,351.823698785443,-24.3260157567551
272.400040440311,-22.3036109561986,2065.72507358203,-54.5661060190732,345.960577137599,-36.2413367260853,1058.64380111028,-98.39010876278,1420.46298279756,52.6341483819508,382.11636077499,-47.0518470579065,1536.3893811577,-117.120279961969,768.634722573464,-108.358299648804,705.347795666786,-118.6138808302,530.340898108966,113.023733347089,2251.06157788111,-396.72860082127,507.433571487626,-90.1936360336059,844.684810234494,32.3585235197927,1062.37444837824,-93.5657746470184,350.56797580933,-23.8091556743473
271.980401045646,-22.3851969315138,2063.76542898905,-55.1747910880566,345.746717853204,-35.0204570368581,1060.26360383255,-99.6199935531565,1423.18691880549,52.4076474471326,383.317941904885,-47.0066383150717,1544.30863972028,-117.398687826816,772.640516002944,-109.168364046794,708.2320279289,-119.224416084846,532.493995565226,113.2951073144,2259.2367720137,-396.630348939354,511.496016248475,-91.332799351436,850.532456086432,32.0920712526658,1068.52249033615,-95.0450164921385,352.229069218706,-23.0989310641621
273.57000289665,-23.4529921314817,2083.02740865297,-58.2638740319366,348.828892341421,-36.6063381252202,1068.23575194078,-101.543640900552,1439.7601109565,49.7332637354299,389.643648993907,-48.2427712071905,1562.34817730328,-120.28477612168,779.660432636416,-110.774766422268,714.7646788165,-120.097602401717,536.48390078976,113.684486998686,2282.66409373978,-402.953560986915,517.296402346854,-92.4955287859409,860.533801267232,30.8676875093594,1076.11445009109,-96.4278599115098,356.259552820851,-24.6239883240635
269.837646821344,-21.084703481922,2058.84433273734,-52.9177565390775,344.032844338326,-34.1748078414062,1057.95240064695,-99.3320369021254,1415.5576701805,53.7646367102543,379.636505558724,-45.8158557050209,1531.19693719773,-114.799857777857,766.884719088474,-107.932090229441,702.223225852878,-117.265192390763,527.460928189766,114.004364238898,2239.13545104323,-393.376951058877,504.668136802837,-89.0006641806013,840.971499148022,33.7918285586644,1060.54787897288,-92.6798173802374,350.137428057602,-22.9892748530146
269.818958549382,-21.7380677249387,2057.74609175627,-55.3708718762751,344.693840081031,-35.3418324430262,1055.68351982488,-98.177942039859,1415.13010389539,53.3622948809531,379.345806414998,-44.8356734249377,1530.90916682454,-115.343914496763,767.499826608701,-108.055095775043,703.299189472364,-117.819905384343,527.951060760333,114.121260488528,2237.68881025382,-390.419309295282,504.617605062132,-88.6719861554583,841.361079301765,34.0421458885327,1062.40086043991,-93.5657664552372,351.553111148787,-23.6339822003221
271.652719514466,-22.9234348547138,2071.25062522457,-57.9946413621537,346.061606328727,-35.0694154657668,1060.58142225227,-98.7478686095637,1428.34329108369,51.641740067567,382.871508130781,-45.5888374654323,1548.59430256129,-117.511549476227,775.568384934794,-110.124777794071,709.596580444774,-118.915064772701,531.844950172408,114.603107145793,2254.46894062978,-394.706073079564,510.251249618607,-90.1404298674223,850.422920333063,33.3019367488331,1071.01477266488,-95.8138656906633,353.79416494908,-24.1122814978473
271.226198827746,-23.1131361897008,2068.67176828497,-56.6949906609352,344.450924226058,-35.6508247957918,1057.5549581749,-98.968242186495,1415.59565075687,54.1544801949703,376.535262312687,-44.1924069019333,1525.65696977821,-113.512800676315,764.996642297084,-107.536797021499,700.240481250288,-116.921564851804,525.163066872767,114.389374219655,2222.675978981,-386.575600111705,500.187334200742,-87.4591923759884,833.280827952858,35.9347804217362,1056.72764459331,-92.1699846632945,348.925532202705,-23.401380691265
268.630098688795,-21.735922830706,2048.52613137115,-50.5207881035203,344.501639986187,-36.2351642348955,1053.13516509744,-97.7739825716811,1405.97194227145,55.0958104760381,377.513214900858,-45.6225167473246,1521.40473820667,-111.956412674262,764.992820527003,-108.491333753982,698.318121483671,-115.922425508124,523.021023948444,114.964918652453,2216.63728306079,-385.868106286774,499.644913315934,-87.6622090208767,832.217777723459,36.3037919391999,1056.10213120417,-92.6552442205715,349.054462688544,-23.3356461774502
268.801651607989,-21.4626388312242,2049.68981998593,-52.0924912154452,344.567977333937,-34.831473159361,1054.96521681274,-97.7958760485737,1414.45824860108,54.4213920258635,379.786868249246,-45.7864290142857,1535.37869742129,-114.622379812365,769.136566325762,-107.793846890149,703.994426272621,-117.362495695981,526.587129312734,115.848210621785,2232.99683963248,-388.79848030321,504.338588695827,-88.7505884822772,840.063998892009,35.8773257069885,1062.40537290999,-93.2470455403619,351.441431433628,-23.3554831754732
271.941497414077,-23.3277871882099,2066.85846635942,-54.6165335823791,345.601721167502,-35.4303915340769,1061.89156224504,-99.1725287157416,1427.44028412778,53.273956849726,382.415046284909,-45.5510409312568,1542.41089692983,-115.717166959373,773.423505155096,-109.820677403076,708.219403300658,-118.68677289382,526.854272460342,115.597937801756,2224.22662296407,-384.979763719632,499.303252873741,-87.1736705665724,830.524979381424,37.3364076038116,1055.0719468458,-91.5238543571526,347.923359446238,-22.7800743081941
265.649768229433,-20.203832018567,2026.95725235224,-48.5882675038989,342.533306616551,-35.1706805340744,1045.34851887967,-95.4239483259057,1392.77648138292,58.0694267191898,372.683676771121,-43.9590367151006,1510.8615336648,-109.207577950575,759.653458752747,-106.361448475882,693.60387270802,-115.10855567541,518.788797848153,116.206149490282,2187.9085138537,-374.619926447941,492.541100540985,-84.9752473856737,821.471084332975,38.9621028765221,1046.0922800252,-89.5128990009042,346.661511432902,-22.3791510678619
265.09927539808,-20.2506983541258,2029.1206080403,-50.786009306469,340.633567657915,-34.4312866568929,1045.18259488951,-95.499098845624,1394.66832008387,58.7892719812079,373.79243810116,-44.6642516678202,1514.70180780163,-109.971291480485,760.907881612644,-106.507830544776,693.895948827507,-114.485724039536,519.415664538868,116.397354966932,2190.52631430382,-377.49683347871,494.559231537284,-85.4290786275665,824.970382429015,39.1083054540366,1050.55493943167,-91.0999130141007,346.865238940031,-22.2247404783453
266.831643072558,-20.9055491799389,2041.51279584063,-53.1776340352534,341.93136727898,-34.9019240403376,1051.01420445067,-95.8088894289891,1408.05709680917,57.1557914042245,378.619264484578,-45.5611633382825,1531.5877922091,-113.27053570746,767.961749937288,-108.141629865265,701.300050076803,-116.738160152304,523.156953378935,117.315325629838,2211.14836791964,-379.411587054246,499.503756727919,-86.4885421929322,832.625874396954,39.1767616982414,1057.45029954476,-92.1894617157636,350.83246792839,-23.2921386504108
265.608521983587,-21.3457691758203,2024.94314653626,-47.5644895254929,339.85418629887,-34.3427180480866,1041.72921842468,-94.5228658060944,1385.55107876756,60.5829774748592,369.449396429727,-42.6558398831597,1500.44103882876,-107.450305466766,755.254570796577,-105.607395137305,689.121181861125,-113.738089864184,514.471875076256,117.072609675731,2166.2442631877,-369.136913575064,487.821423392982,-84.0109840615003,812.400288468576,41.356136007485,1039.26897436786,-88.0043879209123,344.046306506239,-21.9517456007914
261.969466400773,-18.9062192763695,2013.34774023543,-47.2047922545873,340.253397766185,-36.2446366679572,1038.08942283276,-93.520183574442,1377.53826128055,62.4664265795259,369.873381850554,-43.7879431494073,1497.87421033331,-106.477105470393,753.979418669546,-105.146450583045,687.656079044505,-113.489465297196,512.556783537582,117.839021755237,2156.66355812263,-363.76116024902,487.076572602358,-83.2207985491923,812.293012875849,41.6481973219097,1039.0435201334,-88.903406710045,343.888041048991,-21.1416641445442
264.313000228867,-20.4228292322362,2019.05759414034,-45.7622560374526,341.85587631579,-35.6159073226846,1043.72700164138,-94.6277332342772,1391.71315468891,60.2500213896997,373.020966486827,-44.0795244460245,1512.86720803424,-108.572937272078,761.007012108114,-106.273586514938,694.403140780451,-114.860700808179,517.51941002701,118.117941681935,2180.27965424471,-371.457047688802,492.32606235862,-84.4089337014106,820.370568514417,41.282103654993,1048.15816666034,-90.7838620738366,346.743139591228,-21.6474802949843
265.196284284665,-19.8150242196611,2040.49574117747,-50.3579114758873,342.99852970229,-35.0670920003079,1050.30000506031,-95.9309449227011,1406.61523937462,58.8704302399838,377.771174377946,-44.5370865776994,1531.40124087843,-112.486725522206,766.762690457634,-107.06195290548,702.05151834045,-116.193651880863,522.452778234775,117.877664429211,2197.14131301342,-373.515111334138,499.14209123472,-86.5641378629251,826.066256203063,41.0050624214716,1054.0983847193,-91.8637032415044,347.199558064275,-21.8406680065415
265.38794820354,-20.5726255635118,2020.7746721648,-48.6568711828642,340.881116425512,-35.2883610116193,1039.23685320091,-93.1898008688614,1378.54022385653,62.6013499693508,369.042768251552,-43.4920068488043,1496.17301986683,-105.561139156085,753.880152398613,-104.281235651309,688.318209287906,-113.242838742494,512.035006488032,118.659683215976,2156.36833059332,-363.863447805917,486.007260544284,-82.9852190271987,809.318671851741,43.1070520464874,1037.4018575397,-87.2721622655231,343.919044352254,-21.1308372350687
264.527069094243,-20.260291798653,2013.88576785015,-43.8330237443473,339.376287964629,-34.3652606258676,1041.10379212478,-93.4972132870723,1378.07776631492,63.1826350572148,371.430621644997,-44.2906597173231,1499.46900305054,-105.847664210127,756.021665014451,-105.282293121166,690.958067940716,-114.211861658935,513.589283317423,118.447166368568,2161.01705939102,-368.604867272438,487.64375453899,-83.1426238333615,810.58750676956,44.0123158636644,1040.32284992594,-88.2757696234284,346.141519944375,-21.7575655253324
265.368563562715,-19.8197611160316,2032.93472849148,-49.4267979083276,343.815512156309,-34.8619147945399,1046.74965690376,-94.2077050826241,1393.81675470337,61.4118570102481,374.302009290126,-43.4436600828216,1518.22720878042,-109.929669140957,762.841560009472,-106.436906161111,698.686746912277,-115.967677439667,519.085350174799,118.480246709336,2180.01359121611,-369.270453868436,494.446403947859,-85.1258636626066,820.900227554101,42.4985466438372,1049.40904026323,-89.525475569798,347.989228267278,-21.6579300422125
266.1487372296,-19.434349796234,2045.5390119341,-52.8523023220732,341.492677316715,-33.1105838393479,1046.95646415452,-94.3698385162562,1386.90781310131,61.6214928962504,370.216928784845,-42.2945785227688,1498.91371369052,-106.014167201408,755.399445734929,-105.252248887274,691.547032030413,-114.51212944492,512.580921266173,118.960672517663,2151.56795158657,-363.349462267574,485.360240998429,-82.6416428823187,807.081857083664,44.6502780863251,1036.83325202984,-86.9706552869809,344.806916515722,-21.6583126871332
265.187076186872,-20.4331745794643,2018.85650168139,-41.0337419415898,340.390184802927,-34.4286982805669,1044.31705531256,-94.7529707446856,1376.52531286198,62.906210273221,371.367867942567,-43.4619519975453,1498.41849632396,-106.348239025169,754.57579660324,-105.035777057358,689.763019303971,-113.520477569431,514.352348944579,117.792512469725,2149.4291116553,-362.497249904922,484.69356899222,-82.202231906249,806.713621097998,44.9150880921856,1037.52013085063,-87.1100059531003,344.945481895579,-21.6684506073066
264.229076665556,-19.2510303430625,2028.46000814075,-45.6404095061871,344.021333451267,-34.7965083240884,1047.54453617165,-94.1006695647159,1387.17753317974,62.1815004236175,374.744717751616,-44.8290617040255,1511.54086645818,-106.887463876097,760.754230981192,-105.607052126757,695.900517390102,-114.939603157874,517.918839887625,118.624629337573,2169.01778077801,-368.760513365941,491.294650095915,-84.1475749164727,817.804346479196,43.4610080944069,1047.41795613158,-89.6473864794775,347.146364978745,-21.7767841234745
267.852513026591,-21.2112921255832,2043.17531675308,-47.3671165647019,346.42953033151,-35.9146529049777,1056.2102352812,-96.3905899613129,1403.07850867564,60.3571309321829,378.698057271789,-44.2145030577057,1531.93691771333,-110.951407038482,769.214811776048,-108.099883191231,704.752516365903,-117.546106717777,522.430788881039,119.152595371698,2194.84670834308,-373.761821990682,498.273918920585,-85.7228263507853,828.051936012972,42.4022685348461,1056.40217946128,-91.2783136290006,350.707980601148,-22.7063337204147
265.242912440653,-19.6957816971139,2027.97546131728,-48.6202571224349,343.455315827869,-34.8408384043643,1045.45856608901,-94.2827398521724,1374.01822411965,63.9185810925594,371.055743936712,-42.6595137028607,1497.51918327535,-106.335045388933,754.744357957736,-105.438203412311,689.631166387413,-113.639064997177,513.047228225934,118.359147626174,2144.79678299048,-359.807761802998,482.728492794368,-81.5838537170673,807.702127524564,44.0537178341267,1036.10327825146,-87.023758782838,345.751154130978,-22.0047207911701
264.44973691668,-19.6594732719939,2022.43081220999,-45.1485970501002,342.831001429549,-34.3589596449757,1047.27280843461,-94.3945995923158,1375.45393404173,63.9787186397544,372.121415725428,-43.5587081745187,1503.16166822591,-107.288710416551,757.026778892145,-104.951068448549,691.772210319837,-114.077162277221,514.671042907466,119.084984666242,2150.51605546419,-360.305191850037,486.725898257067,-83.1726865787896,812.70107529314,44.6515493376433,1041.90643788495,-87.9396324352199,346.528369796933,-21.7882518204141
265.016793770227,-19.416024943911,2041.22439812024,-49.5129572152615,346.502718369464,-36.1089245756103,1056.51278615331,-95.951991698229,1396.13402073237,60.5946586472569,375.341219258742,-43.812830535826,1524.12485295167,-110.603579891895,765.400425632302,-106.448721211234,701.377013317624,-116.550443851332,521.739388693023,118.484747836619,2174.47607897729,-366.622983042704,494.206220333442,-84.4687039420144,825.361507349459,42.3628049486676,1051.50695323017,-89.3510269432952,350.682338680931,-22.9411445184438
