263.365678963212,-19.1127108388781,2010.26333736031,-42.8149753993632,337.731167073045,-33.3125499356306,1035.95905777961,-92.0028017947678,1369.58008030771,66.7106343272732,367.788414522206,-42.0609100772803,1482.26000411605,-99.8042598006672,748.978057923963,-102.905179309813,681.900668615326,-111.413632303743,507.825413079845,119.602894329125,2124.57741737609,-356.945529870958,478.657725096258,-80.7061906289336,790.328902051692,47.7287969458941,1031.27607650193,-86.2412678107805,339.398020753508,-19.996502244581
259.537682341866,-17.4429298274976,1995.64220010362,-37.1871180969426,337.396586864043,-32.9642265904682,1034.31469628809,-91.7327519176538,1364.68446269564,67.8900030219491,367.358564476707,-41.9421738409144,1483.01496987359,-99.8008291498628,748.875341332288,-102.908977783534,681.30397647495,-110.640234353277,507.688126271,119.822483519607,2123.46087086379,-355.9454292899,479.725932001106,-80.8078309755877,792.962224663049,47.5640429577104,1034.36435380186,-86.3769040501628,339.788499852646,-19.5759192793353
261.922630290887,-18.6651614912618,2011.93526645772,-39.7237277047051,338.248346014498,-33.6108620068126,1039.39959461231,-91.7559790257136,1377.88894165867,67.4442390020667,371.543690949798,-41.5557184970349,1501.19029861402,-102.405420303642,756.718758463182,-104.288276092767,689.357289113122,-112.748511474318,512.058351000642,120.222005191439,2140.94584704454,-356.343290084314,487.074972873062,-83.0863460222195,803.260665619435,46.4659681243348,1042.90263100898,-88.0528376657673,342.752336249083,-20.1428060160076
264.530742766656,-18.9721211233441,2019.68807629637,-40.4899874313886,340.009561304025,-34.1495774040906,1038.87110329239,-92.1220386605386,1367.85812797992,68.7902143001121,367.162961160676,-41.7808881743739,1480.59639744617,-99.0007744976748,747.383593902451,-102.10755626976,681.169086425778,-110.984729942518,504.058252426543,121.216316150976,2112.31420041988,-352.215171295486,475.941609790374,-80.0012717306568,786.409366886863,48.9887679634398,1028.64181871834,-85.2320012972382,337.109957976147,-19.2928310283301
261.209173888835,-18.901033459188,1992.12835031298,-34.0567373844266,340.952650753411,-35.0556423668045,1032.03765780584,-89.9226518699735,1350.61904222151,71.7161550764226,365.489481993119,-41.5205808479087,1473.47104578881,-97.3796616595117,743.846075244435,-101.348754770866,678.875192163151,-110.355807843511,501.789055377647,121.493740518967,2096.20915386445,-345.52085203796,473.989799095691,-79.3376800963841,783.976024281546,49.6426870385838,1026.39374679978,-84.5005500382488,337.033562266663,-18.8977861277586
263.172569455874,-19.9672580028508,1998.04083636,-34.401454746895,338.699835780961,-33.9270874006898,1036.62751303107,-90.7956989194889,1362.60427610674,69.5185295777543,367.796399100985,-40.9262603876701,1487.83418214245,-99.9639235760735,750.617063681039,-102.479105949483,684.311700678834,-111.216452758065,506.458568125738,121.301958086578,2121.57217826448,-352.238569351806,480.565583656274,-80.6383558526204,794.225647356238,48.2462542240982,1036.4057673809,-86.4769300697662,339.363976192985,-19.1055321649911
263.250188004577,-18.9581964201302,2018.87331309698,-38.9807471180085,342.370091500632,-34.4050758907394,1044.48463649456,-92.2112522694377,1377.34987687206,68.9608794980786,376.29683498037,-44.0565469840304,1506.87117637527,-103.033347191426,758.113157061955,-103.425352896844,691.809602180089,-112.815124925977,511.642444282082,121.490094191419,2140.55475075465,-355.629900968383,486.468867435986,-82.4293433107704,804.40772226839,47.7111469181639,1045.5337077218,-87.6714343320076,342.815580377256,-19.9390534210788
263.200522873243,-19.1829484768042,2001.30038327726,-37.3506204989331,341.309048205628,-34.5482134188311,1036.11473805779,-90.6651374577451,1351.70769227724,71.1130937267172,369.384812210231,-43.5122157435338,1473.39425705361,-96.0527242648571,746.064573322117,-101.882985246434,679.903477154529,-110.469693047159,501.592334705837,121.831039313978,2102.34873043074,-349.143282897399,473.476336955396,-79.2776548183201,782.857558211725,49.8926632676136,1026.10421537005,-83.989986068288,336.358133361546,-18.5966128213554
258.901022118166,-17.3571166089687,1991.53207382918,-34.5712051538626,340.076023855585,-34.5625623420138,1035.17670063225,-89.6899264143092,1345.91609455573,73.9307058825167,364.609694628506,-40.2412757102287,1473.92475717768,-96.8577951054767,745.522262346941,-101.445306514129,678.899116124936,-109.950760188198,501.59369271677,121.788833474791,2101.07095087632,-348.123896648445,474.615352269581,-79.3169319525041,785.376796382724,49.8638130774077,1028.50361937433,-84.6644296284145,338.755348556325,-19.7065423761343
262.698980104238,-18.3630346129469,2008.77892612065,-38.0267183557084,343.097362834449,-34.97175604058,1042.50775503734,-91.4057571305147,1360.70890013815,71.9617697150548,370.974942677851,-41.9368665472848,1493.09694777456,-100.41744868676,752.401327463081,-102.359239304855,686.565000937794,-111.782677466732,507.072528605605,121.958938894813,2122.99459085311,-351.48260907037,481.613873364239,-80.987649314785,795.813084795421,48.950856226257,1039.54001554348,-86.9264707296314,340.626416179715,-19.1120725375759
264.897062171004,-18.8853366405065,2025.67643122091,-39.249567706056,344.595555312101,-35.1364392748489,1051.03805394962,-93.4748106207291,1377.89473752262,69.5582370022765,376.035681390402,-43.7766356185614,1511.56133233248,-102.840125368989,761.674231628508,-104.097633120695,696.024893533019,-114.061838837893,513.278098744308,121.729170634562,2148.9142288665,-358.813708113312,488.450051144488,-82.597692882976,804.965189241152,47.5053690471943,1047.90180701375,-88.5361612320448,343.049008920195,-19.7263850852754
263.793415438981,-19.0811116633145,2009.68082974323,-39.8058157220008,340.14085943292,-33.4144826065171,1040.20073736119,-91.4887767140834,1350.37241699964,73.4905161930301,370.065552972742,-42.0766425265066,1478.08294127743,-97.614349585353,747.787732441723,-101.425676931176,682.25170584004,-111.048088205621,503.544688750926,121.724545718099,2102.48893132302,-344.451132638754,475.83906559533,-79.4885104518705,787.623747014732,50.1649224682941,1035.04226741696,-86.2061335334999,339.623261289102,-19.5697871374809
261.86499298313,-17.7563313939016,2005.84647088678,-38.2167439631515,343.014843579735,-33.6800236851172,1043.48379934288,-92.116256995189,1355.50295031509,72.7498042742479,369.222085571671,-41.4541985199824,1487.4141975738,-98.7496635103768,750.802571387121,-102.013717527252,683.449464884681,-110.864875075838,505.416647013149,121.632624344568,2111.31240005161,-349.303772440159,479.150870712173,-80.3232797343406,792.085538187371,49.2641358850161,1037.37438761322,-86.5023936760679,341.487608050296,-19.7582581507232
265.727568222818,-19.1813037179726,2029.81547876051,-41.4642657955693,343.777815561986,-33.4119966593715,1049.50763553436,-92.9398681487216,1372.81265268563,71.2819811593647,374.634829427761,-42.7041160933315,1507.57757041595,-101.876516307447,759.736401069913,-103.543995828167,693.207139550458,-113.273666928203,511.471421115254,122.08063156618,2135.03820862369,-352.390976128911,486.509431422568,-82.346510201928,803.644437200331,47.4969718934172,1047.85283913872,-87.88449328169,344.806649605469,-20.6621431246095
268.952545454336,-20.6251424999891,2049.55863979501,-44.0310021675667,346.506509839966,-34.9114855323991,1055.67822323065,-93.5517750235223,1388.1194239095,68.5074997169802,377.844056508163,-43.9785062704524,1510.77492698613,-103.797413002439,762.288352101801,-104.800369300161,694.644977296864,-113.747544770476,510.414881029452,121.293319292314,2131.40490581201,-353.846163220375,480.276598072247,-80.7835341520137,791.728866081787,49.0194569931063,1039.73521184967,-86.6333728877354,341.874607287431,-20.2936757122281
263.310955262557,-18.0413856846088,2012.88736724511,-37.8376476871686,339.571262294907,-33.5398434596919,1041.40307055037,-90.8867812258465,1355.66447066645,72.2966246280796,370.821378156072,-42.5195718105802,1485.52364513514,-98.5920763393678,749.451803942701,-101.188016974357,683.035662335071,-111.271285313528,505.336462217217,121.653196797531,2107.46908800621,-348.162286474755,477.096952575462,-80.0046489290605,788.397871249163,49.4996849641185,1034.07477014134,-85.7135540734407,340.806655854215,-19.6523890962893
264.275636864769,-18.5713973209051,2017.21717590658,-37.2192540726648,342.829278375846,-34.215644678724,1043.79325487959,-91.269552569731,1362.72734837308,72.5155755135598,371.334327582929,-42.2755757047974,1494.77891523737,-99.8414082792508,755.110992814371,-102.862303264007,685.869540762116,-111.4426196242,507.760889076683,121.772709252412,2120.5388000363,-349.392678524399,481.005995280284,-80.7814244952489,796.072906409282,47.8693994421709,1041.09289740732,-86.5172808734296,343.853699195066,-20.6907619948959
266.577797471091,-19.3273631970666,2031.45669065652,-38.8042436902975,342.833036760817,-33.0850578983789,1051.31429746252,-92.9644330616323,1383.42338168953,69.1204865594993,377.083314534099,-43.4942984160251,1517.66469654532,-103.888940922695,763.153744362901,-104.274040064381,696.798405886526,-114.267717273657,514.697744495391,121.467823318183,2147.5811638708,-358.878812025781,489.766612195652,-83.576502080287,806.072756851504,47.795631248762,1052.48466384952,-89.3494860692177,346.76153907795,-21.1032852016657
268.182467905448,-19.5460562957796,2055.59028471556,-43.3283683060413,345.349887683044,-34.0349727479319,1060.02968450292,-94.8767302144598,1400.27003764732,67.3578807797323,384.227225528263,-43.444017779403,1540.71743669957,-108.505712657986,772.766187651198,-106.449379420664,705.736903673975,-116.222631718128,521.911228879347,120.32006776256,2175.15606080951,-363.089868547429,496.351458690478,-84.7519790188571,812.395477462712,46.8774688426447,1059.33008373952,-90.7839480875412,347.787648433009,-20.5833043358181
267.054331222036,-20.5910678014885,2025.17924157954,-38.7983896810916,341.763031837103,-33.6435888098144,1046.66969046466,-91.85273169918,1366.51545418294,71.2696720431739,370.539692076769,-41.2535935965806,1491.64391264602,-99.4272115909708,753.205224858618,-101.951109104395,686.1415879384,-111.889092734238,506.947604016874,121.036767579682,2114.3822098168,-348.254280959961,479.796509107304,-80.879553571344,791.209221064083,49.1268275004525,1040.16656633982,-86.9513319669424,342.997336540967,-20.6530505675149
265.334229999389,-19.4894990720043,2024.13907454568,-40.4779697256229,341.983434360999,-33.7090378835532,1044.43225146788,-90.7075437568569,1369.43328063847,70.8439621431458,374.707810378875,-43.783417956253,1497.0123734338,-99.8960884686449,755.446057372825,-102.579346828446,687.975392371074,-112.150476143725,508.24744962593,121.620502548127,2123.58564019431,-350.859240666721,482.237478920261,-81.354331744345,794.295439861836,48.9171459198855,1042.36578558711,-86.5763395212909,344.638931863781,-20.3604366282093
268.368246674178,-21.1615589060372,2037.78866384001,-42.3719780733227,343.822698850482,-34.3702320669324,1053.75044749206,-93.9833921044697,1389.41927201615,68.0564269408457,380.465685429437,-43.673978410118,1520.07599332093,-104.146961473022,764.760343017845,-104.866492626811,696.622248872362,-113.882561439534,516.243787081192,120.569202758252,2152.48447244376,-359.565390935437,490.540937152212,-83.4675502956917,807.089997585316,46.0527130426755,1054.5062649008,-89.4637606002945,348.476130610533,-21.3109499125747
267.990536637347,-18.8903203186858,2070.60193094789,-51.1277956297734,346.621612392587,-33.7041033804451,1062.05492354869,-95.8991815178392,1408.99351604626,64.2837166386378,387.075182764473,-46.2925854986985,1543.34118993855,-108.942716275731,773.211514280826,-106.078838868156,705.915409007888,-116.379490328233,522.443483068832,120.193021345481,2180.93889403631,-365.799173831809,498.333325413328,-85.4540185059788,819.150424896547,44.5160487418615,1063.46263969081,-91.5535383692215,351.296474572322,-22.1814833267286
269.260667712004,-20.1333736593538,2052.76578659355,-43.8124154838869,345.630456690583,-34.2850735340282,1052.47904766218,-93.5944434299905,1386.29300912633,67.314708076155,378.403197426228,-44.4505304191438,1504.08850837813,-101.443095759343,759.368073600737,-103.92901753345,691.319869493501,-113.192290421401,512.286758354274,119.825269048824,2138.58388921906,-358.295860418486,483.770013147333,-82.1052065361653,795.079592323933,47.662906264021,1046.04944384053,-87.7916869520764,345.216284402777,-20.9870824499258
268.144487115473,-19.203946685415,2046.4681709877,-44.7155414393943,343.339846832588,-33.1690160609977,1049.18302716514,-92.6944880831102,1379.33576638765,69.2670832144837,377.210160369866,-44.2595702613074,1502.03291592907,-100.715801333442,758.950952128591,-103.532633671938,690.366478781445,-113.191116843077,511.701189522743,120.032206112568,2129.95432182385,-353.005030242191,484.190589874557,-82.0932219600059,795.391155866473,47.7503751128,1046.10243493969,-88.0164795363483,345.409317292773,-21.1368147198418
268.767128999372,-20.0179824286698,2051.0922121186,-44.5347858624042,347.356985027046,-35.5884957330193,1054.46366068541,-94.1683102356553,1393.35091493052,66.9607563644467,379.912598379557,-43.3376531837971,1522.32441676763,-104.884581661596,765.465127139332,-104.430952666157,698.347373076264,-114.839583667737,518.175839717089,119.590301097679,2157.15293859171,-362.257644830907,491.455596280164,-83.8293381358769,807.364275459116,45.7962762176418,1056.29691434966,-90.2689294268657,349.762005586058,-22.1950760165353
273.530857328264,-22.3879230886845,2071.15644677367,-49.0571341582294,348.92605998417,-35.5129947761867,1061.80198297134,-96.1129142070041,1413.52207013122,63.034034598959,387.216740868027,-45.6211372743158,1545.3187312209,-110.375728727958,774.574099725589,-106.883714209123,707.044574813364,-116.880608700126,523.763641129947,119.469128122738,2182.87945138343,-366.945821515928,499.167077489537,-85.8931583340849,819.158367934148,43.4019946812488,1065.01697151633,-91.8881783728531,352.462620792839,-21.9603748719761
272.346916343536,-21.1627778586075,2063.67806467277,-46.8487948154421,345.6274030501,-34.1902531194011,1053.70194169877,-94.2280648697625,1392.76641120945,65.9734244971042,379.990276389229,-45.127063365643,1510.26278973815,-103.724014198486,761.248439515014,-103.700139519176,693.231280901111,-113.949076326863,514.665172797275,118.925432682826,2143.58990805825,-359.847888869121,485.46884938901,-82.4732195840807,797.492194623813,46.6012723702362,1049.43354348146,-88.6813231478754,347.071180222786,-21.90215436218
270.542921592896,-20.9529355928631,2049.60816325488,-44.2589251041526,345.129119931135,-34.1868539209339,1052.28571424321,-93.6958948369262,1390.06737599498,66.3322983283741,379.112952581248,-43.4737519224301,1511.52668629307,-104.423576576064,762.338605382887,-104.319626111645,692.944561866277,-113.029144005698,515.13551253041,118.552664470402,2143.01534272786,-359.091162366524,487.065499290882,-82.8387699094539,799.51440419652,45.9650215879276,1051.47754619315,-88.9290062999178,348.03884153253,-21.5068730213143
271.419559200463,-20.7501206034165,2064.16054051979,-48.4689482774303,347.521723613863,-35.6316168317071,1058.51173532482,-95.5124078892253,1404.76700366735,64.1282769645082,382.845602008249,-44.1969374402249,1532.66486609511,-107.890984041715,770.418662524101,-105.880870521382,701.244938368343,-115.506756851386,521.254658653102,118.533226297151,2174.04195846966,-367.643115649517,494.972775314367,-85.0729103494082,810.693085625345,44.5634786536497,1060.9747881601,-90.8991193456197,350.588261221511,-21.90247030124
272.697831613788,-20.9990581837974,2083.3304857209,-49.7653209672198,349.108790605522,-34.7179557934853,1065.57323578663,-96.7874196642031,1422.52544137437,61.8968564743205,391.004190467511,-47.3767306973406,1553.1783003204,-111.486450323622,778.758821558929,-107.730980800385,710.431313990008,-117.595403421543,527.019313615923,118.444905716381,2194.94173775359,-370.461456990519,502.64297292193,-86.924740625404,823.734047475808,42.0766386969288,1070.7083563736,-93.2087443203996,354.352141902716,-22.826966472335
272.953470664092,-21.728442327946,2062.23779861141,-46.7565822754524,347.42289719852,-35.748792414973,1054.48574320793,-94.7600053499776,1396.37900881779,63.6215694044421,381.11891163211,-44.6992332389402,1511.46024294685,-104.788100265489,763.172952244651,-104.667502064979,692.868046411117,-113.858869439599,515.032741373337,118.635527693371,2150.61120041975,-364.595290842519,485.891039241824,-82.696050782831,798.817164529474,44.7458107507123,1051.74154796351,-89.2071205544909,347.223204807626,-21.6531317891293
271.411257224741,-20.943783364297,2053.60527292743,-46.1754952746794,347.169667028734,-35.4503840331679,1052.27215362106,-94.4467211148426,1392.3011969646,64.9562591646723,380.255026610841,-44.0735748807088,1513.58383981094,-104.985454028976,763.053117507093,-104.521072279991,692.685570529694,-113.961960673183,515.191363738182,118.864087236803,2145.18361811811,-358.853738831006,487.598482528124,-83.2150856008577,800.237630688034,45.4422322689038,1053.18325318224,-89.6477742237961,348.429785301953,-21.870039830654
271.312941418862,-20.4489017643187,2065.15463251395,-47.9393848493872,347.426230642892,-33.9153780684235,1056.57462799115,-94.8861632968352,1408.63195140904,62.4488610584547,384.355740150073,-44.8583162813429,1533.30582872521,-107.359960087643,771.498948761144,-106.005652468986,700.024256275205,-115.177375813511,521.735382198946,118.261301277124,2169.3374267483,-365.832616097763,495.254811744715,-85.1684409924494,811.066501722686,44.4499877378829,1061.87847557651,-90.8627161614033,351.682317422241,-22.5449939453851
274.557872403141,-21.2243346234883,2084.90895943869,-50.2231646438089,350.120709119377,-34.7179308660298,1065.02204486223,-96.8591474847799,1425.9377707693,60.2539842794462,390.789457525474,-45.7379937328308,1553.23127888845,-110.808267482651,778.941792197584,-107.632585307262,708.625317030691,-117.035414563741,527.367102186092,118.139794289526,2198.56334182021,-375.425030592969,502.731283853137,-87.4205902445901,823.089690562209,41.9647373019373,1071.30014618667,-92.9675441441415,353.838891452623,-22.4005051673286
271.522453971419,-20.8590816836669,2068.85062691701,-52.7512120779281,346.735221845015,-35.1471057330255,1052.75383513811,-94.4855216292071,1397.70164663794,62.7533131852263,379.731534213011,-43.3784483399423,1511.48163793256,-104.845162987607,761.761939512822,-104.228213800668,691.080486403614,-113.44037235006,515.000818346886,118.090738600593,2144.88332704959,-359.861604136575,485.412153010607,-82.7150005576386,796.098831479429,45.6014907435767,1052.05966232612,-89.7209986461388,347.847915812144,-21.9924201847493
270.581343544445,-20.961610120738,2048.86446062085,-43.9839149427043,344.960977563732,-33.782584074654,1051.04658218843,-93.8191773937399,1394.59635062504,63.1536623904549,380.729982836682,-44.457381388397,1509.7400524063,-102.770313451965,762.672987753893,-104.592303955299,690.574019473633,-113.390122929039,514.948466953714,118.442022301005,2148.60308954472,-363.092337533018,486.265110680033,-83.1830456324638,798.846906344486,45.0625699120017,1053.31734684365,-89.5731525566093,347.503813236274,-21.2235364508889
272.82700898276,-21.9530983006101,2063.31427238344,-49.1130629153185,348.436880974718,-36.5333378453932,1055.62152533038,-95.0138713499375,1408.72241618201,62.6285151504816,384.98003770479,-44.4225888213284,1531.24540206872,-107.301598669787,770.727676396682,-106.274018413752,698.493472378451,-115.060886459019,519.94731472986,118.137771127154,2164.84645473225,-364.745233656939,493.742529168575,-84.643886825188,807.148738770781,45.186538148708,1061.12417582274,-91.0183889519228,350.678441016365,-21.8638245349182
277.134305142342,-23.1780216763338,2082.8908494626,-52.5843370610042,348.889043913913,-34.7012115684495,1063.39302995119,-97.0029651234606,1426.10399683273,59.5715639766918,389.045268363175,-45.4352629076234,1550.13822446938,-111.367339501918,778.472110815664,-108.107150761294,706.469201915206,-116.684667515835,526.29661985035,117.420513168068,2192.89801246237,-372.888833755867,500.255369042201,-86.1779988603495,817.813732282019,43.1037136418943,1070.45710534033,-93.3702682272997,353.832837265248,-22.2763207852101
272.834295966885,-22.0703652090082,2070.61500533028,-49.9305009119405,344.706930163183,-33.5094031841924,1052.51433672262,-93.8005819619594,1403.69378755935,63.0746491745879,381.78091035948,-44.8122561650547,1511.85878376666,-103.398705503496,764.109633882086,-105.142808072785,691.206916379154,-113.391672591217,515.205416569488,118.186921157622,2145.59670420188,-360.510035460878,486.623100684763,-83.1880417999276,795.425652846356,46.1708889579124,1053.8508236521,-89.9012699908466,347.374512829886,-21.1177526063388
271.407226414408,-21.0188682592373,2060.61081910034,-50.8326390955632,345.698504705357,-34.3987144041148,1050.2662624277,-94.2294302209281,1397.93297817013,62.7808584591262,380.839108546293,-44.5786200041948,1511.08781284794,-103.660236867665,763.61730445166,-104.940429122974,689.955312363705,-112.561484054629,514.361243557091,118.44720590476,2145.38609160781,-361.717662796724,486.659957660901,-83.3048484106291,796.568243462489,45.8548718165195,1054.3212108446,-90.0256725673626,347.613588622468,-21.3599549620121
272.054451451186,-21.2489962615937,2059.49457233443,-45.9273241274413,348.840403033593,-36.5827209474971,1054.38994206764,-94.6238141449829,1409.76670247502,62.2254044104135,383.462623308941,-44.2678246497841,1528.37679044484,-106.858792502386,770.168961708243,-105.779862912959,696.633987896892,-114.049272847945,519.524094186619,118.143429710539,2163.79872457898,-363.956546645044,492.551585584257,-84.1091543695616,805.372145751988,44.2869604870769,1060.90840886127,-91.3601334144862,349.443915083968,-21.2210852389492
274.448977172163,-21.3956313382948,2085.10934395179,-54.2011034392877,349.859117315669,-36.1257866395264,1059.81843534496,-94.9686319541134,1427.56987282016,58.7251036510816,390.274485626984,-46.0999890874622,1544.83860804167,-109.236751842919,777.805262471946,-107.808654693668,704.829931506004,-116.33693042159,523.591812226435,118.731582916596,2186.63740311292,-369.716531572357,499.538412648857,-86.2368983145925,815.869739875936,43.0559729950049,1070.41337076845,-93.8518119925426,352.854964074065,-21.879251635897
272.219059150733,-20.2631081478896,2061.32346655916,-47.6499342977226,347.91017695795,-35.3086691829413,1048.2067144472,-92.7725292963803,1400.01119564399,62.8582119729232,378.856777896785,-43.2369304874094,1505.04267431566,-101.909166658045,761.166074497142,-103.618592715066,687.783319359949,-112.312680746253,511.198912399249,119.277263618668,2140.24611514956,-359.932115205109,484.292074113164,-82.2838488086158,792.757375011025,45.3393725575872,1051.91080249273,-89.7501283476677,345.592045118725,-20.7234844178452
269.518882575196,-20.7286494529923,2043.74524033999,-44.3868930386467,346.132459915012,-34.9474293368302,1045.18582697929,-92.5442969506859,1392.79554893027,63.7478398215062,377.480138734315,-44.0106365315839,1503.25779444523,-101.585714800757,760.451342415378,-104.267513593418,685.488491135085,-111.404670219101,511.595120818228,118.601836041278,2134.47287825375,-357.533182003063,483.973217602462,-82.395977092971,791.08992660294,47.194794907135,1049.83230647788,-88.6695646648822,346.227132946344,-20.9704585270131
270.173934479462,-19.9085964486111,2053.04538055634,-44.5929659046536,344.645133473809,-35.1003375209957,1048.95491905054,-92.9077572151035,1404.47438158719,62.4843686487423,380.812898383805,-43.2078037657739,1521.02863874015,-105.647698058676,767.84552830597,-105.880050349897,692.816062578597,-113.074676877653,515.751113991279,118.973421439905,2153.5332355481,-361.613341648682,490.405557899934,-84.3609691830728,801.41890685166,45.2453995048657,1059.11881901933,-90.677143641905,348.31101214952,-20.8494006394525
271.854948119515,-20.4777804480425,2073.70541847734,-47.2937231659558,346.716942804823,-34.8304989490803,1055.66197348163,-94.2994785510553,1420.32571622034,61.3758215436326,387.68267743996,-45.9713072612092,1538.99718298837,-108.177076651617,775.066860591301,-107.167251690374,700.002917324397,-115.22080783274,520.082286195694,119.229639685208,2176.16627911268,-365.652892257715,496.410409583647,-85.2740125749878,811.118260446128,44.0396566712438,1068.12681003813,-93.5088592422257,351.272621040802,-21.378239678103
270.013436972863,-20.1110780899947,2050.03178219941,-44.8767082478074,344.737626013084,-35.5040428737169,1042.53181409418,-92.1436747602499,1391.15098889992,63.9333957126638,374.755694007962,-42.6980066015107,1497.29420765227,-100.147686432762,757.842416742555,-103.504214239202,683.104213073981,-111.249380299862,508.811269489225,119.076407493904,2122.79602844754,-355.350911761398,480.628434825855,-81.3619293485158,785.178234447483,48.4210700020793,1047.31209434154,-88.6292955059729,342.818579733184,-20.0345193310091
268.689899522925,-20.7505280540061,2030.23995412274,-41.4515032263288,343.335337147708,-35.0907773886136,1038.14365774193,-90.3359464780751,1382.79898204628,65.7461890071067,374.403104940255,-42.7814189641703,1492.72162937414,-98.8945903747456,756.496692447522,-103.000928877375,681.339498580553,-110.450883081738,506.278418964242,120.027520664831,2117.94462004756,-352.903259587768,480.605914067863,-81.4945389977374,784.969123888898,48.1574606985685,1047.42249893856,-89.5181941683884,342.354711398829,-19.2757109234664
268.704837105702,-19.62633743211,2044.15619280461,-45.4617894641871,344.515569584246,-35.6096867894898,1043.11301367869,-91.4207456645656,1396.0522638193,64.2748359919442,379.516835586755,-44.119698924838,1510.42107945365,-101.806914068572,762.913336602571,-104.55861666582,688.206213970833,-112.010767513232,511.532536875089,119.926003721191,2143.67634789667,-357.909968975787,486.722704281507,-82.6205408534831,793.607210572075,47.4831525148635,1053.31627540233,-89.060300622109,345.269340078803,-19.7487479966644
272.462439173056,-21.6472066966862,2059.1064336496,-48.0706970177632,346.624326797596,-35.731918567169,1050.14005364538,-92.7467565193144,1413.36393716989,61.7417112766546,384.342649810717,-44.9591865035173,1528.27230043955,-105.140716199238,770.169431572708,-105.713702776751,695.114521045328,-113.132191195352,517.024407055674,119.45211747167,2163.17084844784,-363.756034603888,492.616799798784,-84.0862091899154,803.880336759404,45.8469064041654,1063.93540352661,-93.0547150742841,347.951847467953,-20.4173008616506
268.097120445093,-20.2785076500118,2036.30822580842,-43.7011383900327,341.945810228524,-32.8860157926175,1036.88452251627,-89.5897808139805,1382.16308996824,66.488324501461,374.106367929547,-43.3010047850923,1489.03203798773,-97.7029046566405,754.614698132932,-102.506964786284,679.355139943229,-109.676282689207,505.033257656345,119.48801824257,2115.30313950964,-352.531136837957,478.276379640165,-80.9998457850228,779.308120201114,49.5716992508058,1044.43522165012,-88.0612137622286,342.017570004441,-19.5745725976592
266.735820936804,-19.7879008820258,2023.34694275277,-42.6706630400032,339.080501878618,-32.322279801876,1034.33159627482,-89.6841116377332,1377.47464334874,66.9483894436167,372.162012358901,-42.6024999038093,1487.94680243567,-98.3322417594904,753.680448963794,-102.442007095637,678.375733195517,-109.260187276715,504.43508097861,120.682418324747,2109.30282273978,-349.093320300468,478.813828850935,-80.633591785629,780.225179595797,49.5908579762212,1043.71144262243,-87.5395204380847,340.662854831859,-18.7768285274341
267.559609225203,-19.9175476712412,2026.75397972214,-38.1312421505734,344.656354631321,-36.0775973359241,1037.36300699693,-89.2474535812272,1390.35977697785,66.2673553615497,376.967217286044,-43.3181481367343,1504.90512985082,-100.34697801498,760.416998274333,-103.673109851751,684.483008815438,-110.553538365932,509.184226962763,120.709240767994,2131.85822284013,-355.929156679411,484.957279288077,-82.2597305658759,788.080848042947,48.8874411510725,1051.55180082484,-88.8358717529301,342.718740454522,-18.8052758357292
266.783306438629,-19.6135779741305,2048.96686411189,-43.6030843618888,344.884229146384,-34.9007091668054,1043.57122104454,-90.9158528827615,1406.1857962056,63.5610773948369,382.453712926175,-45.0402145073742,1516.23825241789,-102.464921181816,765.984993587412,-105.103015031957,690.888765897873,-112.778339264149,510.607234571676,120.305585246467,2133.29588850847,-357.779717771225,481.758654422308,-81.4376732897517,781.818693050062,49.5571287198031,1046.31386794637,-88.045605415046,339.954389611597,-18.8432058847156
263.07754078822,-19.0394053110288,2011.17201860611,-37.6545214576554,337.857787764349,-32.1387629685802,1028.93707429233,-87.9523585952388,1368.40372832264,70.079551685605,370.895482009333,-42.4329365439939,1479.32617417349,-96.0628708876819,748.684736336774,-100.975693990621,673.759429209966,-108.658762273915,500.213819360443,121.287932281668,2098.31566232214,-346.937763460021,474.908286789201,-79.7189660146107,772.89963366994,50.9251533596273,1037.53818884081,-86.59428116087,338.476365589594,-18.5493197367155
263.593932316678,-18.6820362455188,2002.80176101548,-34.1765504968375,339.339111325301,-32.3006720036734,1028.00721114938,-87.6929886190397,1368.73853666475,70.3560907155602,371.502826550607,-42.4285625113196,1481.35673619946,-96.1210051769322,750.749091445621,-101.413375176897,673.910529747502,-107.999438744953,500.738344278943,122.128479628949,2104.1075631097,-350.185523359167,476.912053813599,-80.2250974116666,774.889778074295,51.3519006461441,1040.05747023788,-86.9029797042858,338.436194557214,-18.1640716883375
263.794475395176,-17.9122363114358,2019.62484067624,-35.345309180538,339.932301343566,-33.7081427612902,1032.74997281126,-88.1537939418089,1384.13181713375,68.7221089832615,374.968702950827,-42.5874845581898,1498.8861326759,-99.0257597349826,756.894643894503,-102.463281384173,681.637073576214,-109.42684352331,505.367229374468,121.395745023041,2123.50867542942,-353.962432943576,482.579229127993,-81.4360349334757,784.449209579618,49.9953718351851,1049.03879719397,-88.6824238502335,341.268536559518,-18.833928058946
265.850224451611,-18.8687616955544,2034.67033934802,-42.5232426772767,340.934783872831,-33.1515815720599,1038.3734800442,-89.3001151784662,1394.40794744096,67.4515872804944,375.673823824856,-43.0840172299751,1489.57057071535,-97.0017455622369,755.674044339492,-102.516769761879,679.395119388677,-110.040298933311,502.507326444835,122.00300048105,2099.17656457341,-344.461065887874,474.226233959807,-79.2691678597507,771.261441622338,51.075521750998,1038.84226389141,-86.7899642500072,336.12220920158,-18.023034481688
261.470559828019,-18.6011060888945,1990.82207849613,-32.6065772378162,336.167349325335,-34.1372836363012,1020.48195373546,-85.1381800794787,1356.39045534284,71.8665256654225,364.445542621451,-39.446561780216,1464.91753815235,-93.2212278164483,742.630395894888,-100.150741353411,666.480919369704,-106.117396052582,494.721833472421,121.888458134487,2076.93494913914,-342.684097187833,469.0168631088,-77.8348268067323,763.171134944915,52.72858728377,1030.0833573217,-84.7332698093625,334.523221191938,-17.0700852911796
259.192983235706,-18.5180380630476,1976.88170969349,-28.8891881798859,336.333274835208,-32.179783136002,1019.1882779189,-84.66302312684,1357.37281636567,71.5591584943216,366.406472149791,-40.5405800886848,1466.93296989036,-91.1749253200099,743.971293377122,-100.036701252817,669.152662356021,-107.095930747574,495.965305505177,122.446840042708,2085.81402987082,-343.00185704857,472.500064250349,-78.5239546811017,768.296575562162,52.751618668104,1035.64868513021,-85.8959885945516,336.596749221786,-17.5191914083703
261.657070054404,-18.0079112845575,1997.27781969154,-30.4849311552717,339.134253295204,-33.1928231406085,1024.80386280397,-84.9980928795744,1371.38148786054,70.7377349394007,370.19778494505,-41.1311882442345,1485.71247276342,-95.6878804686085,750.743343074182,-101.078207246297,676.00895047403,-108.45316199909,501.764996257912,122.226591006816,2101.42528146391,-343.476595213917,478.729989813184,-80.4141962199896,776.905901001628,51.8162735926344,1041.98279699074,-86.8272941977571,338.169210974253,-17.0243979445383
263.118435692912,-18.6360963048489,2013.03385903549,-32.8685062388104,340.984434704871,-33.7524823593218,1033.66484702505,-87.0609935248074,1387.22564470078,69.8133291477683,374.911263867003,-41.3099933462704,1505.25487477537,-98.9981811961488,759.582100828834,-103.316122578494,684.019901890722,-110.236875975124,505.130536827366,123.393481533998,2123.07362871657,-350.175642850538,482.78774361596,-81.6382425034229,777.58318052524,51.6869790229536,1045.42282525448,-87.5918528142544,337.820488775371,-17.692471075594
258.534180710239,-18.4149122734992,1984.12653468488,-31.0455952071548,335.398162574929,-31.8908823123094,1017.81240107282,-83.9096851258807,1349.36777851603,73.8711316578905,365.09742921301,-41.3067484203784,1458.58076219832,-90.7738273811053,739.183797673997,-98.6404969952603,664.315671274851,-105.6847826695,492.548098069451,122.621700439632,2068.14737302712,-337.593756449626,468.295709705417,-77.9486778227117,760.387701576061,53.6109939200533,1029.19721996679,-84.7042261215381,333.407097193858,-16.7542353247317
257.578874813498,-17.7975811205265,1973.57167640293,-28.0802113537537,335.988298821276,-31.9820998031745,1017.07459759612,-83.343409973202,1346.00476216065,74.9735419280251,364.238421603779,-40.3897277023496,1459.39715726223,-90.5808405945121,739.499211463553,-98.424259383199,665.944283292326,-105.80338698788,493.435233316553,122.668487296476,2072.19558748786,-337.385084472746,470.016048346514,-78.0483264742528,762.581548807585,53.7074619861378,1031.59133387703,-84.9696898081257,333.76010572403,-16.5595295979517
260.639738217281,-18.5001095572659,1986.01555170161,-25.3893721569098,336.528271944648,-31.3954319131209,1023.82259509393,-85.0742589957377,1359.35728484146,73.68373338019,369.112240872689,-41.7306130966945,1477.76750566935,-94.2144552116631,747.040966272255,-100.159520841986,672.055286508305,-107.096531113384,496.710619447605,123.962650006027,2089.83779329193,-342.202270563493,475.091893745369,-78.7349585858951,771.231252595358,53.3100425223265,1039.26904811027,-86.4547898691701,336.932423768002,-17.7688403768674
260.215412130141,-17.5424801134851,2003.75040118442,-31.440134670501,339.754457505108,-32.3319706900925,1030.23175913318,-85.4973553616361,1375.19750714349,72.1544377581421,373.214126485054,-42.443347374623,1493.62960724546,-96.4338673333818,753.356636781833,-101.052207155843,679.303953878851,-109.017456685616,501.390394771355,123.352670368063,2103.31833445524,-348.15232902437,474.970471546444,-78.8835280097205,769.210602748474,53.0118443608865,1037.3332836408,-85.6645106974951,334.268807035448,-17.0933366241188
256.892094926709,-16.4067596370017,1970.2225996117,-27.0769706831797,337.397412452302,-31.8253110940389,1018.23365585351,-84.0528118807335,1342.43366300995,75.8574239409383,362.80388808008,-40.3137485012872,1454.29994051766,-89.9635892965345,737.570714827275,-97.8615598501576,662.927572069805,-104.912681021708,490.182229294494,124.086253229785,2064.15302251214,-337.434613273429,467.540754510834,-77.6262323779022,760.184582624941,54.0994226949624,1028.61033371583,-84.5520468527177,332.578635006201,-16.3402982735355
256.264880354918,-16.1310551815982,1967.5020050918,-24.1855083386758,337.671925157788,-32.2306718564135,1019.46923825124,-83.6116431847849,1344.69664512762,75.1405689783458,362.871577238462,-38.9359833706995,1458.98129453519,-89.9833134936841,739.823413788655,-98.0762830897371,665.156694083837,-105.737678788658,491.727948986853,124.220498778416,2069.77390013382,-338.150455621295,469.848264318511,-77.9637389588981,763.500255860872,54.3443876640816,1033.00133776468,-85.407371499146,334.262409216943,-16.5409401365926
260.243227463003,-17.5066249148275,1994.14931506112,-33.5744080949232,340.649560057298,-32.80036958804,1027.03366117653,-85.1887665210231,1360.09447075905,74.2985339795958,368.121411613815,-39.8685034899727,1478.00665773296,-93.1823143877251,747.644845110437,-99.8144544122489,672.43784233941,-107.210395791705,498.585156805591,123.114086355007,2093.471185904,-342.957940658071,476.067862557172,-79.3980800119166,772.60050564113,53.3694522882662,1041.07649123525,-86.5813122056481,336.961902234682,-17.4859054122751
262.408593128315,-18.1765344164631,2011.82690721975,-32.6174009917067,343.047288915507,-33.9097702974057,1035.4378786428,-86.9127323038739,1375.09992375102,73.3108593743691,373.979218011064,-42.8413409454699,1493.34304637435,-96.5826341163072,753.450784310179,-101.037240116902,678.824562801226,-108.740520209708,500.311954885381,123.702259192828,2094.02366434777,-344.032959449221,473.484664845955,-78.8902466357493,767.283524491867,52.9266107043499,1037.49406955011,-85.9953338771222,334.793989555787,-17.4895646399406
258.875566386508,-16.650140660955,1962.24286040141,-23.2426622670916,336.791621836465,-31.069808641935,1018.99524163284,-83.3168216582785,1334.39351159589,76.9546187057013,363.050443202368,-40.2387376252802,1448.10410267885,-87.8379153045312,734.972370549963,-97.0726244111156,659.718732332253,-104.359538643244,488.931032255207,124.28874097229,2055.74200721431,-332.337948242566,464.922063307262,-76.4815071135743,756.790590202641,54.281203870791,1025.36843071332,-82.9121600788397,332.782675651657,-16.6670299761938
256.202119263085,-16.0806851788727,1965.71957478283,-24.4990652545001,336.542997607795,-31.8450552250286,1019.85099417675,-83.4923053158608,1335.33087460824,78.3535632303531,363.231829907321,-40.357098419209,1455.60898873434,-88.8530675631366,737.517667798897,-97.5967625238734,662.733901610975,-105.018091403421,490.205199783822,124.408598891689,2061.09695817922,-335.029610805257,467.638723912727,-77.2666579570459,760.229519135262,55.4050204017906,1029.65508169619,-83.9626350755561,333.964245669841,-16.8004277626684
259.473131862105,-17.07127461067,1980.69742813141,-26.1096287035939,341.814306189782,-35.0306072700942,1028.40132308836,-85.4934869130413,1353.6627237187,75.3530566507701,368.113514746599,-40.0963185826152,1473.13186402404,-91.4226874555213,744.891412338538,-98.9630294315882,670.305911434027,-106.460148271873,496.051030046881,124.346343022598,2087.50959559547,-341.690327292218,474.001123621796,-79.2697685903852,769.240254274506,55.1040783649302,1039.62510877573,-86.4522059082635,336.961522600663,-17.1497364294265
261.319593859744,-16.5499443006455,2005.6064122516,-29.2098500971395,341.221365405281,-32.4912217785978,1034.94565670379,-85.960644026397,1370.92972919964,72.9593054645344,372.309934156173,-40.4632477126886,1488.9752133771,-95.2350397430371,751.041980277833,-100.273779618621,676.972999312694,-107.810825102348,497.829730934029,124.033806698902,2088.45893256341,-342.166131454764,472.11589750652,-78.5797273323919,763.388006168591,54.7509725576552,1034.05494538598,-84.5860198084581,334.867940769607,-17.126763342167
259.121016312213,-17.980610282149,1967.35263837884,-22.3827356106603,337.492335209997,-31.1123647938375,1020.05781027015,-83.15065477641,1330.20459440545,78.5101729031,362.750051982199,-39.5871730974796,1450.9965831525,-88.1963815040291,734.079820633242,-96.5135892014059,661.172948053691,-104.756266271796,488.118619396511,124.94838897383,2057.56550823321,-336.490794787369,464.758672624454,-76.5259054764179,755.625621289275,55.2454445709157,1026.05241003671,-83.7806470065305,332.646172515468,-16.1861090469611
258.157068569757,-16.7252896874396,1969.41322706467,-25.4290599964969,341.761167884358,-34.1122904630386,1020.24226861718,-82.8621458078603,1333.14187929858,78.7028041366293,363.3335773221,-40.3373693039948,1456.37523652325,-88.2489390089127,737.139419941166,-97.1560258716216,663.391120866324,-105.011477544454,488.901152808163,125.738202661659,2057.27949922576,-332.207744070649,466.939569019427,-77.0040368185973,759.778018521623,55.4339646572879,1030.34554716285,-85.0220063468516,334.879747761795,-16.8514225656933
259.474233524199,-17.1647246950884,1989.77735386053,-27.9993339830696,341.255309701464,-33.6960830849686,1027.41734288438,-84.0608100505428,1350.18732262945,76.9280528387073,370.526861036433,-41.7438884932523,1475.25007946709,-91.7122458898047,744.708012631315,-98.3640084080327,672.057285050828,-106.678333565334,496.238690261396,124.449478223472,2081.64021521819,-339.083367099818,473.698364922676,-78.6447075459535,770.074866468599,54.1293927644276,1038.84781710001,-85.8617682470136,337.308373055935,-17.1536423773991
263.411940091879,-17.9085137358878,2007.88923606648,-30.6190652905363,343.641196858086,-34.426974886944,1035.20901703911,-86.5920141810088,1367.01296136576,74.45367181535,373.178401785923,-41.9828646599815,1485.73969347518,-94.1648086611578,749.518917882722,-100.071337956229,676.855218957904,-108.011019733018,496.308106849221,124.687366672215,2081.43748298044,-340.355797430525,469.616324508747,-77.4183205975205,761.676460189297,55.4893060993702,1033.37976294355,-85.2015527189071,335.14112445216,-17.349034580589
257.976971420765,-17.29555508521,1968.92144895522,-22.3080953933746,336.825735054682,-31.0466236156437,1022.36774520674,-83.499955400423,1333.43025725852,79.398415621649,363.400476866882,-39.9460306427685,1456.21063905645,-88.6643711350242,736.651972401543,-96.7687492400825,664.114045468729,-104.902705499053,489.505200457705,125.392574000007,2056.60935754998,-331.956599788145,465.956621416081,-76.792006483597,758.01659832111,55.6656036340063,1026.74442888357,-82.7276478489115,333.799295759918,-16.0885151743823
259.615588349453,-18.0662537673678,1972.93425190785,-22.7963560443608,336.974600771531,-31.072729233258,1022.63185428985,-82.7570794340726,1340.46463028693,78.2020504544019,366.122933163711,-40.3042155559921,1463.30957806182,-89.3138599712233,739.286264745948,-96.9575266492223,667.065048568998,-105.904337600918,492.241834028997,125.129130447466,2066.84584779946,-334.82867250221,470.000232321289,-77.8044391206427,764.335725176988,55.584201083274,1033.9549368531,-84.7400831869958,336.429776794733,-17.0603062576751
260.223749747592,-16.3427008354359,1993.76429834757,-26.8654016318101,339.90803898891,-32.0728205578371,1030.58377876208,-84.6862583040222,1358.65401533785,76.2136104018116,371.072953751928,-40.7769454765994,1482.67833498122,-92.1247008043335,748.030770078647,-99.4252347813749,675.48903825765,-107.776672882716,498.565546996188,124.899494428961,2091.77321211245,-344.138917150684,476.260278671054,-79.0291235438455,774.538452041697,53.9249573786863,1043.17080779171,-86.477590873464,339.486226493496,-17.5075085164962
260.768575131599,-16.9234459620805,1996.6847320971,-27.2558272339406,338.30765146304,-31.8491610035504,1026.41900445054,-83.8765727863436,1346.21030355865,77.9589225059094,364.611723993228,-39.740933666063,1458.55929727444,-89.5193979990996,737.239932916381,-97.2364059490753,665.030914821024,-105.518106111384,490.994355807548,124.697991819294,2053.51406822339,-333.359919460526,465.576209588233,-76.9572781304786,755.838508053324,56.5393969033303,1027.60119098011,-83.8751755216495,334.408357738541,-16.6383786667559
258.531114084818,-17.3868675270191,1975.09767249948,-27.2079280884136,335.649465893201,-31.2796155560153,1020.45288863401,-82.6695144303609,1332.91902855768,78.922743972234,363.847693772004,-39.3466620211518,1452.57678934346,-87.1511239349317,734.851415525777,-96.3466436774397,662.953677129791,-104.914301667307,489.504718219776,125.377990598459,2054.0343611957,-333.507991471552,465.335390280659,-76.5962769743653,756.005765383759,57.2181346033469,1025.59845071359,-83.1799155527981,334.78865934174,-16.9392095345107
260.855777430315,-19.0775300411963,1982.15937901328,-29.1471263042205,335.672547855795,-31.2832069225024,1022.981426476,-82.2829825971748,1343.20719549763,78.9531459404971,366.390538205997,-39.214858420968,1468.82906381984,-90.4107640768099,741.690058681162,-97.7215883702841,668.757910546745,-105.872216319617,494.24333260766,125.523559857781,2075.58103074048,-338.286479968967,471.475888372485,-77.8537896883901,766.303168457508,56.2411850430616,1035.27699030253,-85.3200817881735,337.3097162287,-16.8873498397426
260.489866591493,-16.3394546008998,1997.67663252317,-27.345335504932,338.619014308042,-31.8573521654032,1031.37757775811,-84.6150441248255,1361.57168696966,77.0797575696865,372.35520920009,-41.0327427901,1489.35318064238,-93.9522950857112,748.24729183323,-98.2105965315529,678.023849305346,-108.56299986485,501.626594757492,124.947466553573,2098.58344078659,-345.212200300217,477.977063630009,-79.4406797326285,777.701162647711,54.1908057557742,1044.65669417093,-86.6731409826836,340.030720826565,-17.3366905696697
263.734951831399,-17.7578764429115,2002.43587392631,-30.5615469163267,339.951538948662,-31.8897705477974,1028.94894950853,-84.3841395083761,1353.91677187424,77.0445684502414,365.618997652223,-39.8737705881706,1462.01122045325,-90.0277938908919,738.154589879265,-96.9175277475336,667.330142059596,-106.158241025405,492.713503819614,125.338243092418,2060.34103135032,-332.798736890485,466.28955667724,-76.8930985270173,758.01844293691,56.8351381798144,1029.52264640085,-84.6350317825751,334.525481652529,-16.8683612854423
258.813548155508,-16.7664467292531,1967.96948493667,-22.6187145921401,338.188553732751,-32.8844854734676,1021.04297122604,-82.5183280134209,1335.15683553344,79.3115663325451,361.694195811014,-38.3296100536838,1455.69153792543,-87.4460432041751,734.467184440721,-95.5161467028065,664.360707951305,-105.01665185107,491.676329204096,125.290040021913,2050.31788136919,-328.734615148754,465.900293968205,-76.2508505791309,757.572320246035,56.9136858946122,1025.43361424144,-82.4997309192209,334.795844604656,-16.620730626124
259.421553593889,-17.3549486001864,1974.17937086749,-22.7192141208738,336.148547515612,-30.8056082072104,1025.19751553754,-83.4761537151966,1345.07115137286,79.1796566911974,366.840881888098,-40.4424127954902,1471.19718482168,-90.3098987986781,742.071894025681,-97.5464465847395,671.454297929543,-106.97790520065,496.835510078837,125.06897354117,2071.19181978511,-335.662174547778,472.49905680323,-78.1850956369999,768.220241194541,55.9676438603138,1034.44869875311,-84.4012238698348,337.931966490564,-17.5185238928729
261.774345660218,-17.1907192722194,1997.14839968229,-28.6791811993221,340.943152549893,-32.0905065874615,1033.20912552766,-84.6158986170671,1364.86666489251,76.9136943844585,372.250354460355,-40.3118054370119,1492.25428866021,-94.415650257024,750.359353110816,-98.961323104078,680.457232590297,-108.958396126628,503.191124810188,125.135611656306,2096.8025295088,-342.135607724299,479.504798166763,-79.7638411391306,779.324975308637,54.3856209106351,1046.15182290018,-87.6198190097678,341.259795076283,-17.8182687343871
264.746399343249,-18.9229793643314,2021.55795027728,-30.9031393024469,341.266152224524,-32.5700720789867,1041.52093528691,-87.1539211559927,1380.62235117076,73.8009355581465,375.406487980784,-41.3169108090304,1493.85367895122,-94.8039725526732,753.580462976023,-100.495895308097,683.538587440307,-109.866413495555,502.62231629201,124.081213864965,2089.0383742796,-339.983848427526,474.123976815705,-78.9455974102983,768.862893220394,55.4816190015556,1036.21061870719,-84.686771073773,337.466578879971,-17.5227021469621
261.670512551856,-18.0709297047792,1984.29950747642,-25.4277953702388,337.176258945755,-30.4400586306694,1029.01468941699,-84.1149658266607,1347.14025415123,77.7580298442509,366.985068871239,-39.5297477228637,1470.33461415771,-90.3733644752419,742.134324901044,-97.6638788905993,673.715067530266,-107.656441290767,498.101144955593,124.53139530447,2073.32886701915,-337.140281149808,471.045995689338,-77.7558017839942,766.89065539087,55.1105526597629,1032.09109237946,-84.1502279614022,337.281077684754,-17.1591410420206
261.492928434822,-17.7419530109989,1984.10757574192,-26.3416869263062,338.208852458833,-31.9281771848244,1030.93670655679,-84.6342327762279,1354.35817932206,76.43129449317,369.57981151293,-41.0468297922904,1477.98802469108,-91.9635913676203,745.713210336643,-98.4414832570395,676.089244868496,-108.105969681229,500.507470117785,124.782942280532,2083.46300151896,-339.040942968409,475.744764325687,-79.044867874599,773.87780005153,55.2099191697203,1037.50781091386,-85.0433800697695,339.798798090761,-17.6645448497252
263.82588676729,-17.5332213767004,2003.09082815583,-28.1457629567186,339.480161251517,-31.6356811422198,1039.71407265463,-86.9109022825541,1373.17078219492,74.9835249528148,374.867492068093,-41.3894622805085,1500.2657865382,-96.2909998956168,753.732709707294,-99.8609238889049,685.717648438715,-110.40369278964,507.028875965378,124.418562012051,2110.72483305773,-345.21025392495,482.617148261427,-80.7005795317475,786.358018799515,53.3645702539743,1048.48710689894,-87.1885651365373,343.054557203012,-18.7521555829478
264.705247382104,-18.7120457292659,2023.96714578172,-37.5893939009872,340.817437989722,-32.0808320153976,1039.20378647139,-85.8368614622379,1372.24262067228,75.0792936068139,369.548995967401,-40.6873030358239,1478.80774612841,-93.4822097638814,746.400302252193,-98.5360317423574,677.082166543331,-108.511855026445,501.898655972884,123.493866651896,2080.07368054799,-337.462414361658,472.76449424335,-78.3312108031238,771.371782825746,54.5850107893937,1035.9829626912,-84.9991171443781,338.930661833955,-18.2958840683944
262.092038959429,-18.4866258433997,1985.00208921698,-24.7623231564863,337.073357471579,-30.9174477287227,1032.13331109198,-84.756334180464,1353.95738831488,76.1188157014502,366.54098900576,-39.5875620096623,1475.24891012286,-92.2267638927485,742.693565535354,-97.3382920789487,675.454851264693,-108.059412680986,500.424758997363,124.463986642587,2084.15604312511,-340.743452140811,473.591444688941,-79.0249241636506,773.446547005587,54.4368940288598,1034.02275229681,-84.3531143569665,338.628909744556,-17.9176214029327
262.373401756859,-18.182708040719,1997.33460619078,-28.8420500360783,339.208744989221,-31.5774564982897,1036.18347978553,-85.7894456293202,1363.46794148151,75.3591708546834,369.705374438798,-41.0967298551438,1489.19942507915,-94.3609727942637,749.665012967943,-99.1059317702678,681.791798843712,-109.656007942387,505.425795300776,123.878898173061,2104.34164898036,-345.016970299155,480.013774782479,-80.1677142561571,782.98212702792,53.987430202759,1043.57584108889,-86.625211962065,341.961862085115,-18.4053289681677
264.631837100023,-18.2241526547228,2019.25155719572,-32.171907524377,341.944420717771,-32.3563467955267,1044.15938766518,-87.4001888250724,1382.12789452845,73.6284666918385,377.043900933429,-41.3273175773552,1511.99037607145,-98.7672811101561,758.950249044221,-101.0650520556,691.29771545203,-111.697433646261,513.186054754049,123.360347478542,2126.20168305728,-348.106874712017,487.697240503659,-82.2838875830476,795.342773552741,51.8921358803482,1053.78862404043,-88.5525256806489,345.774409361185,-19.527170316439
