276.313349247397,-26.6949760832058,2106.39039446846,-90.1327768266723,353.204873126731,-38.7325415252823,1055.40331091705,-107.495729176554,1443.44760363642,31.1277387733125,401.307638496079,-57.1251701163085,1563.83523325952,-137.080661414152,796.991724717958,-124.663121170691,715.670441025005,-124.95376174782,526.986871422012,106.700709084002,2206.16960190045,-394.300221073335,498.833176668568,-88.7648255252567,845.231389419175,26.97291365807,1070.89324870765,-102.925384026539,350.716855820497,-29.7456659155178
277.09504674776,-26.6678364294178,2119.26621842223,-92.5803394946505,356.307143037237,-40.8979422159349,1058.00385476957,-108.112333393596,1451.42187388164,29.4603879497135,396.449702965159,-53.6731355518017,1552.47463490409,-135.63372322448,793.614906708791,-124.460333225791,712.423590558664,-124.32204264542,523.301705444256,106.265929036223,2187.97232351909,-390.275297388816,490.495756747306,-86.8826373266437,833.513872785588,28.6765518422844,1061.33334262771,-100.697895586125,347.289737288017,-29.1236262248675
276.359859179262,-27.2237628749878,2096.86005544459,-87.8165750200502,351.65724668137,-39.8223793942432,1047.29540637928,-105.425867104622,1427.10126571019,33.9515521126474,393.2815042471,-53.4556541060071,1542.71054349519,-133.141181728529,787.455112860055,-122.364042258953,706.750577052912,-122.366017267633,519.682452695099,107.040134926139,2167.45112715174,-379.429685261994,489.610474920205,-86.9654748044362,830.525958021192,28.7634834686583,1059.43672064138,-100.826522391239,345.755694945128,-28.6900136860716
277.454606773441,-28.0425710928904,2088.4266466591,-85.3379028243729,350.846540629772,-39.7582315336775,1048.06217241279,-105.354726938755,1431.21948263537,33.3483353448081,396.298960795553,-55.3686988079499,1549.68199952213,-134.046214240798,791.278594989136,-123.436696500402,709.71357425621,-123.0026983678,523.18243989153,106.598019960438,2188.31723977834,-389.243681282084,493.762627278219,-87.8588224233193,838.28261131508,27.4599634175405,1063.58064532163,-100.376762737752,347.912587669614,-28.6835487002473
276.533556013719,-26.9913549169129,2104.9281024853,-87.7169347137334,353.578800358749,-39.7355271540495,1053.33567782611,-106.475405339042,1446.75285181314,30.354016042928,401.702605474922,-55.7392947021431,1566.27836455505,-137.254859239032,797.829430678198,-125.019542667409,717.116826056302,-124.917249115601,526.410175493535,107.700995189122,2209.09517094764,-393.998089064874,499.278325971111,-89.4407264032908,846.100296923559,27.0028394346552,1070.24791391086,-101.896356478773,350.853833966379,-29.8273385611695
276.761041216316,-26.9906342868378,2085.51685053942,-87.5892121918599,351.333950660084,-39.5578240831986,1045.33645630402,-105.201743333477,1424.1129255784,35.2390877384429,393.909083258516,-54.6069951624574,1538.91236002998,-132.583181549058,786.170962966497,-122.125958310559,704.785669352759,-122.165442276999,519.111852511223,107.313174048788,2173.26365798743,-385.953212087575,489.003369168322,-86.4983717844698,830.437616780762,29.3269370762103,1057.89217319422,-99.5175549138898,346.878854579395,-29.0895760811545
274.899626955895,-26.4056993081627,2087.55577008666,-87.1450326002595,353.066121643341,-41.7652891750421,1044.27827625093,-104.76684323268,1425.85926385118,34.858128717708,395.789230124797,-55.1633737007887,1542.59818052531,-132.444401335546,787.386597124813,-122.229758537447,707.124735985631,-122.972195380238,520.318124739239,107.461548196428,2174.5894344299,-383.601069062009,490.198602067672,-86.511407912299,832.560268618757,28.6640404735731,1060.9381158704,-100.284225371627,346.557435628469,-28.7559940064145
274.018057415014,-25.9834789746176,2095.87876939816,-85.5119596385118,351.31978165421,-39.5132997953836,1050.32474194569,-105.656853247033,1440.83642859968,32.5625431693548,398.57178166234,-55.0141588506864,1560.84543440585,-136.716744946101,794.011578508299,-123.658804009977,712.992124909667,-124.174937414068,527.414066775843,106.261426818286,2199.47028629648,-392.037584140713,496.836409188227,-88.6305914457874,842.566940292352,27.3810022264248,1068.62395870455,-102.335842546172,349.343153528246,-29.1782466741828
277.66172811678,-27.8152320195696,2110.65167087104,-92.0495985312228,352.51277245192,-39.7376346570991,1051.50931592573,-106.66564130016,1438.83302228796,32.9086503552612,395.300859575868,-53.791426431336,1538.61374440491,-131.875199053257,787.273619129932,-122.420436137769,704.368142405622,-121.724021818255,520.286680536971,106.914080731145,2171.18511726422,-386.972080520798,486.146968377533,-85.4866971602611,825.982779380231,29.6324300923318,1056.86048078897,-99.401897610116,345.064832506028,-28.0216862960328
273.832663254259,-25.8495242678782,2077.89800710401,-85.420786902334,350.122829426074,-39.5377801429042,1041.04414134862,-104.176270282867,1420.26152011672,36.1373009392655,390.146290905222,-53.1715639122744,1530.09248893779,-130.33525892503,783.489844463546,-122.0690739103,700.692969687934,-121.092994376608,516.507999599032,107.232354983272,2155.94943565816,-379.469611183646,485.415073451664,-85.7463138263588,823.9800728941,29.9020120852255,1052.51269089359,-98.2758780055105,344.359592911629,-28.4344971147161
274.26102895339,-26.8549734090812,2083.78494558039,-86.3465982217153,349.41618053534,-39.4303541406816,1041.81918996903,-103.917031360346,1425.29227291808,35.9712407533347,392.666863858666,-53.1601428507143,1540.55171115342,-132.451905304771,785.848980753988,-121.910196496117,704.051893424829,-121.72021501154,520.312334819351,107.069620200076,2172.68493402137,-384.826623141928,489.801243093428,-86.50412623783,831.1942008886,29.9698482291105,1059.12362884015,-99.4654691103395,346.644246987521,-28.4911166838529
276.705312730724,-27.4844310892787,2091.13593142464,-85.8275805802065,352.465872826877,-40.8222080740874,1049.39355545553,-105.771692997566,1439.11887835146,34.1465598803057,395.756122357802,-52.8794185967798,1556.29864987197,-134.576056199064,793.146936627761,-123.828538607785,711.098125696995,-123.608038362892,525.13062051256,106.867573081614,2193.39830475185,-390.017801415998,494.766982141637,-87.7658102069337,840.750041095249,27.4947207710646,1067.55967784746,-101.854913983711,349.124812201649,-28.8934051098842
273.268862007972,-26.5616264337936,2072.90040558257,-84.8561202874762,348.05646988493,-39.1087287801195,1036.9962771241,-102.775414143825,1415.22771657192,36.8975399195644,388.980503516526,-53.7282779114163,1523.36127258511,-128.672860486628,779.640343566568,-120.295833712899,696.523098180825,-119.983680423525,515.651150121963,106.689547062704,2146.75428111304,-378.809049318074,482.99726943941,-84.9299727752817,817.650524334528,30.9778560025001,1050.79404830621,-98.0387835500803,342.519677934959,-27.6835556582982
272.201934877179,-25.8037880525031,2069.68133846422,-84.2186214952501,346.5767262397,-38.530437648155,1034.18244269798,-102.316084079234,1412.49036573776,37.7574278266013,390.776487575713,-54.2542543783759,1520.8706091837,-128.399897164402,779.226725535446,-120.326272218056,695.425428450919,-119.586257499526,513.459377353921,107.725693039214,2145.61974027578,-378.201520185294,483.433605286284,-84.9654868781591,818.267114470897,31.1289935831113,1050.62927388954,-97.8046345861751,343.037249723213,-27.3712867914185
272.513295660001,-25.5601301071814,2075.1015347137,-82.1866158503576,351.618350505376,-40.0632080733741,1040.74529693608,-103.023031304071,1424.86699274647,37.3190949748178,392.543856750774,-53.1963458925875,1539.38330680454,-132.229719268139,786.300480041108,-121.609415509262,702.690721250692,-121.531863922075,517.509426609585,108.110335742382,2165.14708302027,-379.472360538598,489.05892645768,-86.3076979696466,826.766017486598,31.080471874663,1059.01419344555,-99.9896715771203,345.692944152484,-27.6986707037774
273.888184379681,-25.9355047269717,2089.30535947911,-83.3385167460577,351.156958325374,-39.9697273961695,1047.53014376211,-104.881501288835,1438.28632755073,35.5123856186515,398.387020131833,-54.9444105829619,1556.23112016936,-134.726606200576,791.975552095264,-122.594955432789,709.562983755941,-122.736191537404,523.051360362974,107.627927125865,2188.60999899786,-387.926770625756,494.791377539647,-87.9173701770817,833.231792364809,29.3575050995553,1064.29917027181,-100.771319068755,347.102736426257,-28.6363307739232
272.635508225411,-25.4597452046636,2064.65175227145,-78.9626230224769,348.891314673667,-38.9165374189488,1035.1367085144,-102.254185562768,1411.91972295841,37.9023672334861,388.756845550891,-51.9143592064765,1519.68801348505,-126.999103709286,778.872448498138,-120.541157419691,693.552327976383,-118.70102623668,512.282445784633,108.123628082766,2145.47795438791,-375.531478484192,482.2888240284,-84.5094386671653,815.526909167489,32.2794175777186,1050.61371071184,-97.1899634511274,342.48907784578,-27.4894087073248
268.959772612568,-24.0694737114508,2066.41723429582,-77.7969500824949,348.452058740326,-39.3062548433645,1032.95112971189,-101.600833449163,1411.42456233855,39.3861073465697,388.155307149935,-51.7960360423135,1521.32172439171,-126.475916919105,779.930779480728,-120.313021049845,694.373998185896,-119.077862685458,511.966482272958,108.605721227738,2150.21421131378,-379.522441402085,483.637206917203,-85.1104915117871,817.090758255354,32.0000847584427,1052.65415757876,-97.8277304945987,343.180589506524,-27.1701000876832
273.451436234468,-26.0830757163175,2076.90047344549,-80.7971661114949,350.342397174811,-39.6892690484031,1040.68819974224,-102.84531333431,1426.28850223909,36.9877729613693,394.580834047597,-54.7198774045608,1540.87802222993,-131.076000291458,787.373042487699,-122.12875938159,701.89816932605,-120.488279548763,518.092013114368,108.104952549024,2165.99587599085,-378.968529942089,490.044059961431,-86.7025702303518,825.574164037111,31.091480938476,1061.76334373182,-100.012304376837,346.577289590798,-28.2883962022086
273.925985066524,-25.7485834831044,2099.4119469463,-88.4733787703402,352.495758815478,-40.6173125485657,1044.7369092936,-103.637446284722,1434.20330306059,35.8827505759345,392.566119713312,-54.3826261866712,1531.33135497147,-130.178156004206,784.667477001337,-121.359832254952,698.667650759658,-119.838647394963,513.704628406826,108.604284018996,2148.04671853763,-377.759074269218,482.772771644583,-84.6102680274627,813.426717066266,32.1717817697201,1052.59756697263,-98.0725959469056,343.729789462907,-28.0470713027387
271.41599395795,-25.775721777213,2068.10069919431,-82.8436792037936,349.691911472766,-39.8084734999275,1032.40628550287,-100.13911525852,1410.90981329701,38.6945138293016,388.068827371252,-52.3671789186213,1518.96349381816,-126.68117192238,778.93722011238,-120.277190898764,692.998942885929,-118.67661136039,509.418548870719,109.362985450425,2140.46495680364,-375.540058745648,480.667726093592,-84.0029640344696,810.385019873272,32.9890059535823,1049.76958434524,-97.3124046421216,342.848945698499,-27.8649213551415
272.545869077571,-25.9234742837569,2072.99890010689,-82.4044821561758,348.967863757484,-38.7672897183058,1035.66407128686,-101.44861613227,1415.21622313917,39.4176283253954,390.262166821837,-52.7926293902421,1528.7958568086,-128.071695510818,783.476846496014,-120.992976475531,695.597981658126,-118.950802360027,512.931177881759,108.662460571072,2151.14500639174,-377.565487214364,485.412051208609,-84.9175141680398,818.367655988768,31.9528016524372,1056.00042967583,-97.8533235310463,345.257009747154,-27.8795514124615
274.701051555551,-26.1153406815542,2087.44951691747,-83.8534177438948,351.230826533876,-38.9624048433847,1043.59351228465,-102.744289034372,1433.33394922398,36.4276877249353,394.495730740093,-53.0903520356977,1547.20421932968,-130.931023257025,790.227548040025,-122.237469185524,702.985801320181,-120.650845054955,517.699587621844,108.511208188661,2182.35968395756,-390.131869965715,492.388855639612,-87.2676245647573,829.052301753128,30.2294652372641,1065.51144820388,-100.394700554499,348.103657671122,-28.1491168777471
272.176500383714,-24.9112951828155,2078.64351463378,-81.8108805029933,350.704358303643,-39.4472538223939,1036.47112150149,-102.225349023386,1411.98952415976,39.2323519142154,390.622497008014,-53.2426283665832,1519.01174574995,-127.135134112485,779.610396030022,-120.479823152866,690.883784037577,-117.894059114148,509.191907628773,108.209068792784,2138.21961147803,-375.465668397095,480.743615690162,-84.4712797111397,807.354975630144,33.2636151883535,1049.32464884819,-96.7522738413849,342.95938074626,-27.9791211034995
273.253479275229,-26.6108490937298,2062.72576325916,-76.3069337577086,348.502089049818,-37.7985770746164,1033.47330722731,-100.820335895061,1407.7730408912,39.5596314202066,385.627110457234,-51.3754870615059,1515.57962974522,-125.735577185853,777.730483854896,-119.495355341799,689.200418799304,-117.442796761178,507.419006231997,109.546074283207,2138.05620777884,-375.194823143867,480.697753210233,-84.4700162653915,806.580837404643,34.4540625946124,1051.66297805976,-97.531254635121,343.831436438415,-27.9493622940165
273.776707720338,-26.576224178304,2071.34548218849,-76.5127848619712,351.751834250902,-39.2641510114713,1039.35811945654,-101.801959108379,1418.34307590897,39.3417883660902,392.781716827199,-54.6368693480792,1534.06585602601,-129.038249882325,784.603440160405,-120.876119216766,696.538940098462,-119.284409477178,511.409600335138,109.618486591005,2161.76313256556,-382.075863831536,487.451524804518,-85.9580853010676,816.781292058308,33.0725998603045,1058.02898344148,-98.4485342702472,346.428910047205,-27.9331520845076
276.639854356778,-27.451358247873,2097.70319442535,-86.3521648032148,352.953506945949,-38.4228371537444,1047.80945098724,-103.137910008988,1435.81675579156,36.5444337370361,397.3278102548,-53.6128723369431,1552.21534547104,-132.149760455626,792.836740448538,-122.773301013195,704.450806555976,-120.897985384245,517.355352248314,109.08423539302,2182.79661671603,-385.27008939244,493.55373693494,-87.3718163782519,826.575958665575,31.5187745799505,1067.41869311755,-100.410682173854,349.980166532697,-28.8937121395997
274.270818835331,-25.7336172654802,2077.52261788304,-83.1107935898137,353.397125351683,-39.6068600138324,1036.35427357454,-100.981104255773,1409.53864380879,39.8712420516848,389.533218450783,-52.2186305002252,1517.79166182868,-126.051735297392,779.839189153275,-119.657759111636,690.527468301728,-117.736063058847,505.848301176905,110.637841410479,2139.87479296387,-375.171628286842,480.579907144392,-83.9309143135768,806.139135134058,33.8672723471565,1052.91204049255,-97.9673987287762,344.417212963594,-27.8274598462938
272.095358760687,-24.9403252441776,2065.17381829942,-75.3884845386922,353.799123531757,-39.5995397266268,1036.28506612488,-100.996795081721,1408.73413450207,40.8004167260518,389.74649624122,-52.2439168476846,1520.22123221583,-125.820927916952,780.476925172043,-120.240990470796,691.576659561472,-118.183249210187,508.19300919491,109.206159555607,2144.53728396578,-378.189726178588,481.965726424952,-84.1866712853476,807.347976656467,34.3668569916613,1053.35923694311,-96.8582858687023,344.213820351868,-27.3741679363378
274.892657833085,-25.4456593794423,2090.41053656096,-84.0525684158328,355.229452915564,-40.2612782349871,1043.30723146792,-102.860092349423,1422.63002447239,39.0360492681061,395.451523860411,-54.1955408256946,1538.86480281726,-128.891625961002,787.887810048539,-121.786668527455,698.890241480992,-119.641337000327,512.198197218952,110.149014025039,2163.12326156117,-379.351703993769,488.288657459606,-85.3804614973121,817.815677917549,32.9492640528639,1062.97066712706,-99.9371688118979,347.304903559942,-28.018226043726
276.459171000147,-25.1208598473516,2107.58737954346,-88.0017733445566,354.554350843672,-39.8098098381515,1046.86442267436,-103.239755968187,1428.51191323667,37.144485973542,393.321955304693,-53.4672158515783,1526.11326053005,-127.101046553145,783.915876122737,-120.73828868985,693.121820735575,-117.819819434536,508.221199415892,109.78341304255,2143.03759953018,-376.956177918774,480.462859242039,-83.8341035681653,804.136294819502,34.8094796226297,1053.03146493445,-97.6058315205696,344.126025561104,-28.1958347385599
274.436192143147,-25.865229244636,2073.8913319153,-77.6338622664504,351.977794958308,-38.4174335612478,1039.49761109955,-101.190748682318,1408.96654548136,40.0351896416505,391.613615028304,-53.9131146800752,1517.002601079,-124.563502782253,780.528200684548,-119.606895119083,688.848381584942,-117.194473018512,505.808295044183,110.486755898064,2135.79618485674,-374.703315100544,479.329385012615,-83.5599997366964,802.308876520032,35.4363827807521,1051.23760144562,-96.7399708779893,344.377731130685,-28.0863240467047
275.235340289972,-26.3982002231178,2081.23565851315,-80.4684322893473,352.607358471417,-39.7117973495505,1040.07530842337,-101.328594335658,1414.16918912445,39.9798607860456,395.02715341866,-54.0310318276164,1527.79715177488,-126.398812619648,783.79154246647,-120.518824106539,692.433205563977,-117.705918836894,508.705848845607,110.535906201195,2143.60395183275,-375.293509735285,485.749618305024,-85.1788879712437,809.78209314059,34.6069565933971,1059.10154970109,-99.2275838749468,346.441397960028,-27.747487743203
277.096182977437,-26.6143955907971,2102.53039809013,-84.5778268279328,352.847182814304,-38.383413476536,1048.22399587525,-103.060562740248,1431.24161551911,37.1769203747329,399.574653870245,-55.1534180620436,1547.7854761478,-129.891542061898,791.630555445542,-122.581332624373,701.114173901316,-120.240803972468,513.35665382569,111.164847396799,2171.72067074101,-383.96569946569,491.175798603595,-86.6617863545125,819.172931990171,33.6456965301184,1067.73986773309,-101.399782979172,349.153086312289,-28.5629853955246
273.39572971223,-25.0595645941396,2072.20512698213,-75.8973317469818,351.894420379147,-39.1013627170412,1037.17065182271,-100.778167495938,1404.55814163823,41.3775082509391,390.98472786939,-52.5425644156814,1512.89182593943,-124.514977423618,777.112532733602,-119.13404226382,685.901343285091,-115.94089167432,503.246037368778,110.642627743671,2126.53494629817,-371.625005148115,476.692783494836,-82.7692642827984,797.623118961429,35.949267161569,1049.15601532154,-96.8480748132117,342.779301627285,-27.5663984644815
274.102536307644,-25.217762837573,2071.14046463014,-80.1207037529817,349.988576029499,-38.8714762843892,1033.40530544366,-99.4192972269035,1399.64097755412,41.7337977785747,389.514650564487,-53.1814723000065,1508.75617198853,-122.923230160163,777.003547981357,-119.007135723061,684.408623983281,-116.078124009651,501.743864741381,111.704660382664,2122.04735200236,-371.460395454262,477.458234480307,-83.1126435518659,796.765270375462,36.6290055610338,1049.33290816808,-96.3350475745899,342.745232856188,-27.1860066941477
274.371280346718,-24.8373322499826,2079.27993318754,-80.6634496228778,351.747278985036,-37.7612631665899,1037.93895812926,-99.8457317052809,1411.69405671167,41.2018440423345,392.65397825517,-54.1579974372169,1525.49656073741,-125.448082813451,782.661664358838,-119.860206227295,690.172311284722,-116.715397564825,505.936390637277,111.563854825473,2141.9296794444,-373.625785999006,484.127003361529,-84.704675850336,805.014645419777,36.2954406764995,1056.38536693862,-97.8148044096994,345.239049312925,-27.8125357806078
278.330646045029,-27.3887112467372,2097.90151962049,-85.9843664116275,353.298028088206,-39.3525222401534,1045.54135035471,-101.574277688975,1427.04964952114,39.5983016331837,398.023834941108,-55.0945610458799,1543.87389874517,-128.914860426666,789.353403131334,-121.163055447203,698.051045019865,-119.27753456171,511.54864930205,110.963849487071,2161.03920336979,-379.776458785628,488.228376253908,-86.0714647434989,808.82201542323,35.4759331261803,1060.51283633433,-99.2575769902331,345.923593107893,-27.9387757083957
272.174074353106,-24.7121288930035,2065.14008356899,-76.86735879662,349.745420870953,-38.5155201523754,1031.31157998832,-98.6789404962272,1395.75640501745,43.0011151411534,386.744009822803,-50.9335102808815,1503.03874032394,-121.487152153414,772.386320587364,-117.244548757068,680.697369327424,-115.008188323744,498.732258084169,111.669790279388,2109.95586535929,-366.816297719177,474.615201977699,-81.7310166120297,790.617414652536,38.3783971486979,1046.01792052233,-96.2350701595561,341.359047251992,-27.1803944924959
271.15183968434,-24.4712002774376,2057.83071485811,-75.7148201620018,350.933786324922,-39.6114074615416,1029.42722445912,-97.941587426817,1392.6298743231,45.0076908539689,388.236538183484,-51.7143965547608,1505.51307047376,-121.098915201407,774.006500087828,-117.563760153276,682.041208782399,-114.846967654071,499.894855329919,111.888652821929,2109.26809929086,-367.75208115717,476.27953396654,-82.5654735145699,792.001431341702,38.2871227652616,1047.59643012846,-95.8716770032797,341.558773033411,-26.7223742335438
272.734235810192,-24.8043654635691,2073.15042318987,-77.5926908213173,352.993360771328,-39.3440675271127,1037.28874005168,-100.046843173971,1407.32734564248,42.8040512188523,393.12923872622,-53.8141772595127,1523.83039611409,-125.278345761673,781.300240667352,-119.452061030348,689.014293647326,-116.470857965492,503.108402706884,113.105027119571,2130.96537805242,-369.867536959269,481.398556306329,-83.9226758390427,800.938987145394,37.4554858152425,1054.85643039447,-97.7869348772061,344.120051292832,-27.3525100053817
275.431514927084,-26.0435466639566,2091.86834010867,-81.4831286095727,352.6102848867,-39.5626620490702,1040.29715483218,-100.615594434256,1417.26928349963,41.1886823077155,392.902185661994,-53.7887861473642,1516.31061889642,-124.065058831624,779.344707438,-119.286712223209,687.164002810305,-116.61903949367,500.471102247228,112.552522470775,2114.25241227179,-366.976067616794,474.370501486024,-82.0939960833463,790.129084801437,38.4317335388627,1046.84903068897,-95.7982565243027,340.220992555381,-26.3348330569783
271.270817250697,-25.8124628069912,2057.1430391963,-74.835128051036,349.893890336438,-39.0776573867712,1029.90036007989,-98.4584497778977,1393.40519264693,44.1346204898951,387.702622233598,-52.4299438714954,1503.61864989043,-121.109780564935,772.161970170535,-117.242164043037,680.732559170746,-114.761499979255,497.140931583955,112.600747627016,2105.65811174435,-365.696756820979,474.375751866309,-82.4079305403611,787.629941314636,38.9489099910751,1044.38128376125,-95.5623378625599,340.477628053587,-26.5101806058868
270.459895286545,-24.5465620937463,2060.94454066966,-76.9816979833166,349.784824279874,-39.1696623586146,1030.2564263403,-98.186131642642,1394.77220758485,45.3429618513308,389.129865768408,-52.7766209181308,1511.0930820789,-122.069327759918,776.579824297811,-118.551035579296,682.824744632237,-114.454132354429,499.669098297181,113.010194791662,2116.8680145165,-365.664597450348,477.500997719898,-82.7618610969057,793.153670485928,38.649938530746,1049.48778365252,-96.1996813909338,341.850943205125,-26.6837561090343
273.447806679119,-25.8646849196548,2081.81498592213,-80.9284234654871,351.079255857259,-39.0370616659313,1037.44727229719,-99.519619513189,1411.82899289486,42.9075962328055,392.105264049206,-53.0016802718379,1528.3716459192,-125.379138238679,781.391898304491,-118.618816154046,690.466408567352,-116.77092755379,504.549995183508,112.904209713009,2135.07464356776,-372.934382133512,483.744496349064,-84.6923589609121,802.754794545836,37.0159844624299,1057.90325806703,-97.8978608811141,345.869794027032,-27.8957664193098
270.442694354268,-24.5485349885366,2056.71207295964,-74.8012268852193,347.341772059339,-37.1844255318899,1027.12092294262,-97.308474063513,1386.29411111725,45.8751917955875,384.977450423199,-51.9823602557527,1494.19397479135,-119.131333353016,769.441229188616,-116.745983198566,676.31129136934,-113.482557241878,495.698319689799,112.87730029014,2095.64828943601,-363.78759008448,470.566510529678,-80.9511928839896,782.665918235345,39.603371539842,1039.96465023891,-94.3942826779203,338.802624672091,-26.4511249021624
270.190134850872,-24.1066346555463,2047.799656998,-72.8755280330048,347.582503426216,-38.5129290566905,1024.06549489494,-96.4193491484177,1380.09754760118,48.0914729235704,383.690747359066,-51.0713765494842,1493.55552406184,-118.623615302417,769.854601021054,-116.476591494118,675.494048374479,-113.058528149141,494.420598948186,113.221306877271,2092.087077145,-359.979646716545,472.313002776284,-81.698768845448,783.500657833113,40.2567992836577,1041.74972957681,-94.9422620632168,338.966744391025,-25.80861587848
270.41577897053,-24.0125450685896,2059.51745191374,-77.1382222638721,349.33566706606,-39.2295204307148,1030.94487451207,-98.284010376057,1395.67656896345,45.8526984290237,388.350626113219,-51.499778819673,1510.23058258553,-121.014195413398,775.924586506673,-118.226532877294,683.357182758589,-115.325044422324,498.87864463565,113.491290806607,2112.63092997344,-364.146724289708,477.760961821288,-82.7666213410658,791.828848349535,40.3811570237312,1050.17125180329,-95.5310703791502,342.074677467554,-26.425484265805
272.522819398298,-24.9028465883321,2078.82147839458,-81.2957744381478,351.830694499611,-39.9730187267386,1036.76251545956,-98.9615634573271,1410.50891578751,44.2758380414721,394.7113795607,-54.7047461763668,1527.34279915261,-123.979200946615,781.620020403135,-118.893517160072,689.619741541496,-116.522126169663,502.203617483952,113.587697220282,2119.93784065636,-369.693514343479,477.221801789744,-82.1884478687798,789.368080839528,40.1099592539735,1048.18414378757,-95.5046554339706,339.058955845367,-25.9601284181673
268.227923981547,-23.9695660563978,2045.08380746156,-72.4867382367644,346.143177207069,-37.7749655622241,1022.1097033914,-96.0171534791063,1376.76565232559,48.4096111166648,382.342585967262,-49.504916102595,1487.85576670011,-117.251552116305,767.882297520681,-116.577413964097,673.746193730893,-112.757815647741,492.904248522397,113.160308259083,2082.43280376614,-356.477408468264,469.38183395302,-80.5992157942448,778.026409872773,41.7513711930348,1039.75443866506,-94.462497825949,337.169056855925,-25.7610781295355
268.439063576314,-25.4884582341154,2038.94608326976,-69.1897287546814,349.224964435935,-38.0545358127377,1022.10833536352,-95.1578595531719,1379.63803100146,48.8326584586653,384.057121612585,-51.6118635673059,1490.98771687386,-116.442173194084,769.42196048657,-116.69363373585,676.269196044918,-113.150773030317,492.923401484286,114.698158967733,2092.21320834003,-361.691632053811,471.70757811993,-81.2841664062291,783.270095643704,41.0148972673374,1043.04274617583,-94.3781926539925,337.937171768189,-25.333036900785
268.786370375312,-23.8501821271943,2059.43355735905,-74.0220373636888,349.080428967079,-37.4325269094478,1031.41693143586,-97.7941086325143,1395.40937821426,47.1312816976534,388.115204843302,-52.2112223538701,1512.12226071501,-121.099573410836,777.330181476879,-118.458351293592,684.200791442326,-115.201495852033,497.605151321806,114.679044991256,2109.98497779074,-365.369796826779,477.763207680072,-82.1957666793243,792.356669773521,40.5477952858246,1052.5931472226,-96.8466188606012,342.065666396694,-26.7336299337751
269.923874501876,-24.5955662985277,2070.9968615689,-74.6281831633147,349.316127838754,-39.3364551354522,1030.18650131749,-97.1710416048908,1393.44686184639,48.0957627367243,387.546857807287,-51.837622064959,1495.32562694517,-118.984035680449,770.860142211364,-116.75766164433,676.782707630544,-113.217906029312,492.846242586712,114.415211257401,2086.52621552637,-357.658718070732,470.085726229948,-80.8313367461396,778.841172290329,41.729147354662,1039.7466274793,-94.0930116226819,336.915199697942,-25.6849333894306
268.798740765567,-24.1892775549715,2048.37700514029,-72.4973775138213,347.923310354954,-38.0060972345812,1023.88910514725,-95.4708878023538,1380.23840524253,49.4778433032137,381.203367327067,-49.0400924951297,1488.89139703197,-115.80673633848,768.809929220177,-116.391235855078,674.597284691624,-112.370538007954,491.719766691094,114.437282541033,2083.52403553677,-359.241188058859,469.436780637915,-80.4568046786017,778.379264233478,41.9082182172007,1038.83129823087,-93.2735413111176,336.969160101902,-24.9740844398017
268.668539870743,-23.7399905370989,2046.06566672732,-66.9595446279824,349.091046812185,-38.9325655461742,1027.43093841521,-96.3779985131173,1387.33734412248,48.8344345880039,384.662204775972,-49.458654581537,1502.63822724256,-117.728692603415,772.690549571869,-116.311515623034,680.198626531205,-113.80820673257,496.435022322432,114.076513699186,2098.76578026275,-359.664826396166,475.661369905062,-82.0775499899879,787.47844345026,41.1084228249829,1048.28596704032,-95.2922381738298,340.03183307826,-25.9336834279199
270.443707587347,-24.7598898975988,2066.86739393632,-74.3192481851734,349.641199148093,-38.0237275173508,1034.48433571958,-97.2147389635927,1404.27537099005,46.6365097049307,392.705547270835,-52.4592142704189,1522.20931080402,-122.167060680997,781.108209653202,-118.565747405301,688.485498266186,-115.928757143846,500.327272035024,114.915208026051,2123.36056808911,-368.189550517036,481.967521118645,-83.523551224623,797.989092722497,39.7627628931549,1056.80727721685,-96.9297842827082,342.519874616733,-26.1939845456748
269.985477119678,-25.2917672406271,2049.11699188779,-70.1774794926316,350.114485368274,-40.2734738792475,1023.42675269547,-95.1400323574966,1379.55917217852,49.9986058431725,386.697850513596,-51.6342490019036,1489.96729624045,-116.165569542904,769.015915899306,-116.351167969551,674.963952867823,-112.972689521803,491.771087951062,114.315694299745,2084.01500924358,-359.531535193166,469.435629758166,-80.6683934765856,778.175205780145,42.492370298532,1041.73126738775,-94.3482399514943,337.349076049279,-25.5654940327734
267.464364803623,-23.7190560068061,2048.28502692205,-73.0582074000826,346.807387716796,-37.2789864743674,1024.60494781719,-95.3781502129141,1379.54686784484,49.613485979068,382.491352608368,-49.3431801616967,1495.62751899172,-117.520174637322,770.725379665674,-116.464112508634,676.538627242638,-113.030868560765,492.136036395521,114.944220501666,2087.11193897753,-355.781734449501,472.705873894021,-81.570831242207,783.384627145343,41.5484897111137,1044.95256144113,-94.9124863031964,338.196729467401,-25.5383262434042
269.659510728867,-24.8302993083542,2059.29986792147,-72.6259447893405,351.034577952867,-38.7702010184863,1031.91816350723,-96.7155112622312,1398.15317387306,47.2622869145282,390.114788402661,-52.3264173299376,1515.2161752453,-120.569055792684,779.294786517229,-118.335289579331,684.727003676873,-114.905903350655,498.33199637117,115.1214367103,2116.93712067424,-366.305321128593,478.861516132085,-82.5293035230633,793.050698864312,40.5551684521445,1055.45095209018,-97.4758762815746,341.484471321414,-25.8647452052288
272.51818423314,-25.450177820658,2080.83999990704,-76.3192074494276,351.310673175594,-37.5183471529869,1039.52171753606,-98.0713375243873,1414.69602923872,46.0949729410978,396.064003124352,-54.3361382456014,1536.35959394178,-124.893238985411,786.570111634808,-119.683963699635,692.93008480163,-116.983081608239,504.125457436138,114.628856113263,2134.15300846286,-370.116140793961,483.146580071998,-84.0603100539035,794.166787004661,40.3520031761522,1057.78335785739,-97.7065713173906,341.190186313486,-26.2744286155752
267.783395909512,-23.0382203482309,2048.03656932097,-69.973591411086,349.022450697054,-38.0692180839833,1026.19294345004,-95.8629750872154,1382.09407729305,50.3252677665797,387.090064148126,-52.0508509195965,1493.6910205683,-116.850868625757,770.390363652211,-116.541884833402,676.188354701804,-113.494267796069,491.737470239827,114.783010179497,2085.22069151011,-358.753015680364,471.373117434393,-80.8073771508992,781.190428429268,41.8111702340279,1044.50404506522,-94.6269582134145,337.570738377415,-25.4613517920444
269.769861351595,-24.8890231812325,2050.52612628979,-71.3098038625608,348.28021198082,-37.789689303691,1026.98357012346,-95.6762194220789,1385.68684077182,49.3026829765583,387.494613324496,-51.7448899210758,1499.93843763392,-117.531849538462,772.179952577574,-116.708385370711,677.887492435072,-113.74998215304,493.580413572465,115.167411575562,2091.77820220311,-356.81135532181,473.510107508602,-81.310863148688,784.306902844006,41.8007755626893,1047.82597780699,-95.3876003392339,338.933874630363,-25.8290155358699
271.208104472805,-25.6740408736263,2066.46391209341,-74.7227538347757,350.838641980278,-39.151293769938,1034.68460901235,-97.4795447458587,1404.55269691019,47.0953806540904,390.727532327863,-52.1132900329069,1521.37051700955,-121.342279003734,779.787227150694,-117.532218452032,686.164449252701,-115.140996809721,499.410864333217,115.036277661566,2122.49654846385,-369.051089270689,480.519756461077,-83.262619231495,794.696224260306,40.5369398772086,1057.53305179526,-97.1914972256611,341.789292565744,-26.0474116663577
272.924219822523,-24.7763692117674,2084.31896734327,-73.5965764666704,354.960434216721,-39.7816569966071,1043.84849271946,-99.9653035787555,1423.05438193473,44.0407010390233,398.867598398638,-53.4460313624069,1540.49300160985,-126.328334313293,788.552046102452,-120.267645498719,694.882925794687,-117.468211819541,503.473967556021,114.554129983916,2131.60821678418,-367.621604835187,480.904430145105,-83.4407000938616,790.965040238759,41.2019748670308,1055.33920577766,-97.0642313484933,341.345813553939,-26.4286534795273
270.385377137699,-24.7276194936446,2055.83366482413,-71.4298036777704,349.408517395912,-37.4818785123126,1029.26995792503,-96.4195725796355,1389.89703003131,49.4454080840328,384.379435263015,-50.4121002715355,1500.03261193236,-118.449098188705,773.695675157729,-117.096097445688,677.986402727994,-113.334404149829,493.510858537077,115.062034263612,2096.83836180943,-361.009258684615,472.614087255509,-81.1405355343385,783.305979648275,41.6700741232847,1047.14679870366,-94.7894940783746,339.658912483127,-26.5353821714755
268.738355210381,-23.5610336152401,2055.89612218576,-71.8559593540555,351.61754045372,-39.8289199053204,1029.8639990727,-96.0808669916288,1393.39916479006,48.5153145340331,388.464285499786,-51.1460570960122,1507.86087478636,-119.302272577692,774.852997408407,-116.646150224038,679.610932116846,-113.29515395214,496.468784370761,114.835906604978,2097.87651360001,-361.593494100488,475.237757052444,-81.8688588981376,786.295338556908,41.6609630322101,1050.10798912776,-95.1736539465688,340.898082591776,-26.4720789949091
271.78614730012,-24.8794383480081,2069.45157284614,-70.0994171326955,351.702257639227,-38.7678616901012,1037.45127169929,-97.7689015287556,1411.96241468376,45.6575227007156,395.548640102931,-54.080239374494,1528.74486546043,-123.475298002204,783.354521681837,-118.740053204884,688.888686262745,-116.271953223331,501.451960992927,114.894898693261,2124.8957819077,-365.349275752833,482.297793597577,-83.5669870531544,796.945149628723,40.5965642581338,1059.62922438002,-98.2998438811167,344.627870606565,-27.542043971947
274.705591969185,-25.8350717824489,2088.50203190681,-77.0922196403635,353.109375899963,-38.7844731197836,1042.31813347034,-99.5011818466645,1422.45289213502,42.6493921800152,392.506476410362,-52.2941474538224,1515.78094578224,-120.770185126168,781.257699763028,-118.984951284121,685.828935157364,-115.403100743702,498.313496988886,114.612282541614,2105.43911990087,-362.548115254674,474.193230981978,-81.685825011689,784.615059688725,41.4613331956328,1049.49775325798,-95.2368407061269,340.445564186533,-26.8602700967279
270.179067600002,-23.2997984146449,2062.36477055464,-71.0612100602548,349.039272373959,-37.3008186196688,1031.78599290666,-96.4027982653156,1400.9379255693,46.4524278320729,389.91437473682,-51.8383475069799,1509.55174864074,-119.55627543293,776.536281475492,-117.577271987691,681.352084125151,-113.966055048279,496.910460713768,114.528163158395,2097.84059219764,-357.681367714368,474.025777219294,-81.3231213303455,784.543370991236,41.3560017589622,1049.78269108623,-95.4274123967421,341.040968368601,-27.0758531588256
273.770413456263,-25.5240380976972,2068.98816176445,-74.2102866512131,351.224690473029,-38.1370413845449,1035.65283093252,-97.9353569513126,1407.12697630367,45.6739956595731,392.468851296874,-52.5664766352691,1521.42822095417,-122.029340855419,780.346323655134,-117.895145424631,685.526379284912,-114.998803118041,499.765323138849,115.028845675477,2116.53951069625,-364.294956348718,479.265863236505,-83.087231007668,792.518597090562,40.3846952029118,1057.03517892621,-97.5469588261458,343.535705777417,-27.3321386751382
272.211813015909,-25.0118262508674,2091.53063040063,-79.0769310456664,352.229764233947,-38.953226554297,1042.10706440962,-98.8125971620398,1425.26927660208,42.0177818824621,395.735537349287,-52.6432941676501,1540.26767116444,-125.601181399693,787.600661953192,-119.419148377567,693.45417741133,-117.25462868921,505.560896401693,114.117895004274,2143.87650841217,-375.505566007835,486.086414587579,-84.859675822545,803.046123995763,38.1703381944093,1064.37708676631,-98.655988403109,346.792440558829,-28.099102559498
270.874493280109,-24.9124429788312,2063.85081359346,-74.2033305111806,350.869632150912,-37.6431784110405,1030.08306461706,-96.6987987184346,1396.48792960321,45.5796418559175,388.318795337987,-51.0772929749492,1501.42305925684,-117.745258813153,773.478095049282,-116.713013013809,678.331859667955,-113.865953884445,494.42175756038,114.621565366811,2089.83879893209,-358.357988488699,471.278851902762,-80.8150880747124,782.230278961389,41.0516480287743,1047.93746683203,-95.4057612454947,339.611234318346,-26.3297693511203
269.866198805837,-24.1040625953728,2060.30719228587,-74.8279562706626,349.601977433129,-39.190794495645,1029.07787057333,-96.5033250621181,1394.85855844528,45.937726326666,387.838210314928,-51.3883641384395,1505.39745057783,-118.950370476705,774.44090186423,-116.833835343627,677.716739863475,-113.114698913153,495.108721089645,114.354543379908,2096.99652048276,-359.049749665312,473.992152425185,-81.780438448275,783.317990799685,41.8198991277772,1048.0520884325,-95.3787884400031,341.881867219791,-27.4226340846599
270.97010983234,-24.5696360795544,2069.6268889164,-74.3871821269767,349.333675684163,-37.3180221897241,1034.81031775951,-97.6605140154708,1409.23020636843,44.1191555675994,392.653493066376,-52.5626221499308,1522.63624886722,-122.195189181894,781.642421025972,-119.089282113971,685.762532988289,-115.401214551687,501.02682983731,114.135951046789,2122.28990092273,-368.436501588026,479.740805807636,-82.776804817559,792.475291165539,40.8305564653364,1056.77449910342,-97.43613303503,343.489929817065,-27.3187273704462
272.526097399477,-24.4825952971523,2077.47341968115,-77.0174778634334,350.403859509958,-38.293478616559,1032.28008355426,-96.9363433879134,1401.42143289932,45.5524417738724,386.653322976427,-50.7598245374513,1498.62555060024,-117.856806225013,772.742701653554,-116.321045481265,676.726307696982,-113.019650400613,493.06896163665,114.731236309204,2087.49864593434,-357.336771847895,470.199858557161,-80.877898012327,776.557539171847,42.295683883649,1043.10972604691,-94.1146428405947,338.869467522058,-26.7661440151319
268.460165646301,-23.9856245497961,2047.65992741604,-70.530845006634,347.609664943649,-38.9817863932045,1025.1024371402,-95.4376686165058,1385.90585051442,47.9638345542661,385.648085558139,-51.1764591673839,1492.32920633559,-115.785493406234,768.558732054887,-115.389811107631,673.521932453206,-112.22028171132,491.206763044272,115.575022079597,2081.585599846,-355.664692340666,468.136389322173,-80.031246004846,774.304846853808,43.6644560229012,1040.12115168273,-93.2857421503054,338.119537500108,-26.1993584794745
269.316826744606,-24.2593654015519,2052.36151229047,-74.8011731838181,348.369126183868,-37.4202530836227,1026.95414758771,-95.2753064649895,1391.75392036914,48.617528405304,388.140277586251,-52.4679452313284,1504.49919243117,-117.443615119324,774.699492793655,-116.793045445437,678.702577700671,-113.1805950474,495.508360404825,114.758767677271,2098.52584713375,-358.198788005735,475.22103529472,-82.1905706323948,783.93978584261,41.6855092787021,1047.97947148536,-95.6161756150879,340.730912464085,-26.5347132853097
269.911546089456,-23.7093866468465,2066.98360590512,-73.6403956969454,350.505630301949,-37.9865683861611,1033.94088112475,-97.0992692650179,1409.14090371956,45.1695165774142,390.914038771996,-51.2203857187069,1522.93278980199,-121.744566845683,780.663767069185,-117.749379575004,685.820562872265,-114.939091735147,499.017376004242,115.795579770449,2114.64345980298,-364.101646238521,476.470197831079,-81.6229533626547,784.072845247728,42.4536462207979,1049.08721358189,-95.9083767299822,340.839073778616,-27.1258926059948
268.123852521388,-24.8384970419907,2045.2965825351,-72.7024283837347,348.348973673175,-38.0222604232924,1021.11987570029,-94.2102123537375,1381.49612406842,48.728395249336,384.867084962465,-51.3750372147591,1488.89779818684,-114.526371759907,767.603817143731,-115.165791137021,673.867203822832,-112.21072246795,491.394324816396,115.516095430528,2082.78491512976,-356.569291079702,469.308494905811,-80.2383123933893,775.500333118551,43.6776187709247,1040.71258219334,-93.7451735670092,337.831164321938,-25.9566937516702
268.922099649474,-24.6764010509817,2044.00363626181,-72.5329000167569,348.123491785929,-38.0828436577322,1021.57096437503,-94.1815947936437,1383.21664793997,49.5576938683592,383.125528327274,-50.2914143429242,1494.44571993371,-115.629585296396,770.002426766267,-115.891519111732,675.822779559126,-112.714340439803,492.469557608281,115.299093270314,2077.71541977157,-351.226896228441,471.480481466076,-80.7113323370467,779.229701118319,42.752259685066,1044.60775444286,-94.8894280769671,338.846201751412,-26.1298619378662
268.753532155649,-23.4084130032648,2055.46091521345,-71.7577431087261,347.890982445626,-37.5453009839253,1028.0168550028,-94.7499929602604,1399.31972284026,47.2530627119601,387.742218560992,-50.9878269237013,1511.67409610664,-119.128645982619,777.009769178385,-117.226725569091,682.649362320878,-114.079315726096,498.236918629847,115.243840487796,2105.16549657537,-362.805039301387,477.331607152498,-82.3957062180667,788.277362943926,41.8345902084739,1051.46832619575,-96.032898633447,341.92419485722,-27.0118434027131
266.999016183219,-23.5087566621745,2038.62561636372,-70.723408770452,347.805832560283,-37.8311595249899,1018.59172414667,-93.5547475212811,1374.6663479102,50.2692493452551,379.366686594819,-49.3496488467373,1482.9356740094,-113.998193593663,765.109559160832,-114.799289274683,670.971550092928,-111.781035654389,487.878196977797,116.237053159187,2071.32675158726,-351.597652748388,466.691100614144,-79.55563855051,770.498728831987,44.2366608989563,1037.1589876381,-93.1044309954812,336.469165088663,-25.7407353548831
266.107620393506,-23.0524985680855,2030.61806396798,-65.805187936605,345.181255259996,-37.2136035716919,1016.55889123309,-92.7254198118699,1372.9671165193,51.6107308779288,381.129719024883,-48.8554868502034,1483.70984093026,-113.697048328515,765.087748205301,-114.314292537245,671.705952586392,-111.790518996811,489.262953800923,116.480960379656,2076.72518146144,-355.316630898805,468.160999863668,-79.8143999946316,774.508205534432,43.949697375378,1038.82835427394,-93.4945634914797,337.058068894249,-25.3318387081825
266.842304604163,-23.7639249733456,2041.98985776839,-66.4897647715887,347.04105875357,-38.0863228506699,1023.91602173634,-94.3052006718462,1387.16230669612,50.4916982293975,383.278021948677,-48.9532333741976,1501.19772369627,-116.587395898233,772.910731107211,-115.97531293486,679.064672119937,-113.317876344187,494.520794276002,116.295193719696,2099.21210855478,-358.692497222542,473.90075637627,-81.2511284058036,784.463713283167,42.7056580957962,1047.94991264371,-95.8877976098579,339.23749553471,-26.0057698474182
267.777808266282,-24.3448869688523,2045.87931146317,-68.3505269436171,347.908588376538,-38.1907432816078,1021.40987765683,-94.3331412603918,1376.27458217468,51.5284287962213,379.405915527414,-49.586273153098,1478.67373811322,-113.135387370336,764.373417794886,-114.698013638146,669.795241977582,-111.043959194036,488.824531177444,115.857872721761,2061.85220706221,-349.537942732136,464.596597683726,-78.8602294912374,769.5027525619,44.0845411123159,1034.08613965125,-92.7676108857649,335.002126662982,-25.1621010764785
264.150915677294,-22.3668040952215,2026.63041897538,-67.2951736543755,345.057460499136,-38.2273889072157,1013.74462123017,-91.8512172083723,1363.4440239068,53.6969941031811,380.010125949627,-51.1248232177731,1472.84587642772,-110.406978952035,761.458900693119,-114.06238210088,669.032459024881,-111.213589047358,487.223678123679,115.33571469056,2056.97616309481,-348.112739865594,463.790528695066,-78.5433405317382,769.934468961597,44.1251773182451,1032.21069646712,-92.3141723032595,334.437540456106,-24.8321026141988
264.182045015645,-21.9853362988722,2031.38220337971,-65.0311640446628,345.76182603042,-37.6095372236511,1018.97989802958,-93.1176392633922,1372.701268441,52.4942527025005,381.345676341151,-49.8050010848879,1488.35904344577,-113.785275113078,765.277639248081,-113.801379431029,673.559454140427,-111.94970124496,490.383850021943,117.022647381018,2076.28894327012,-353.450382364809,469.700220277315,-79.8387675405848,777.650134962271,44.2589568844944,1040.9807079522,-94.088781932896,337.234499559012,-25.111609537191
267.606266206394,-23.6257609258378,2050.85877433194,-68.9159743156321,347.129867481756,-38.0716541762181,1025.59610346882,-94.4236826573005,1388.03352690275,51.3940894513832,386.414371226284,-50.9959803959877,1505.57813063131,-116.730465379572,774.849702309482,-116.998850410775,682.388252971543,-114.081135852216,496.195590386211,116.194934026958,2097.82402580663,-356.751240294498,474.86060607786,-81.2529404278449,782.400040223124,43.8387115187821,1044.94518579054,-94.2436126082896,338.077708032099,-25.6493816785154
263.935183099155,-22.9844031050333,2028.0613342761,-62.6031308789485,343.910073397915,-36.216947703697,1014.31720645329,-91.6442161150394,1356.37126611671,56.0049040368748,374.824219184288,-47.3121682817285,1470.45065470782,-110.537869104958,759.302416517581,-113.169008947937,667.923504380473,-110.738253051657,486.009744926858,116.681594829081,2057.89941687615,-346.76595845631,464.435553498466,-78.820053718636,768.412980282755,45.570076589236,1031.38317312111,-91.6663438408375,335.302700078096,-25.0536179290132
265.37373775917,-23.0758052856819,2024.55897678563,-61.9586976498471,346.436513400099,-37.702612263172,1016.71173234879,-92.8764378902211,1359.86982288827,55.4604034219656,377.045194867138,-48.4523213246008,1476.94058877597,-110.843870505126,763.433483108674,-113.872632374082,671.041426425863,-111.247795145973,488.217111663325,117.013644308461,2065.08490764701,-348.839560454907,467.195846016402,-79.4544886185012,773.451021043092,45.2045276790802,1035.65071131818,-92.2455246291739,336.995050707051,-25.1581713702541
267.096541716244,-23.5130876942481,2045.43470675681,-65.4801954048129,348.728500500006,-37.8422973386873,1024.84670820803,-93.6354184337292,1373.74939550328,55.0486214406894,381.46218402305,-48.6691919281161,1498.13869759769,-115.040656635651,771.553509305841,-115.678416310694,680.539084951146,-113.632428688634,492.564766697013,117.398580942766,2088.11429392919,-356.349877851113,473.480543877491,-80.6182619590134,784.491362949108,44.0588902835902,1045.30110259193,-95.1365866819418,339.633094546247,-25.2806627484877
267.689934947659,-23.9878671143315,2047.32492516013,-62.8619975088548,346.781222305015,-37.1025093810969,1026.41781765514,-94.4135550739044,1369.89303387184,54.9767670021922,380.504566560369,-49.6917106881078,1481.46495085212,-112.644058570934,766.687511270794,-115.046822918272,674.361597118419,-112.496315928069,488.03608034305,117.019287622695,2072.14352034899,-352.016380283862,465.812927003272,-79.2389721344048,774.362124428999,44.1231651885995,1034.05506067165,-92.0047400492913,337.138191971892,-25.2857486134844
266.594572307042,-22.8192523676686,2029.9215958676,-62.2170954359152,344.720788273832,-36.253216018275,1021.17679796669,-93.3676587961597,1357.92143004787,57.0720619296574,379.600235518763,-49.1553785523352,1478.71640378832,-111.427289456699,764.176120412735,-114.181568723007,674.185245532709,-112.136797510017,489.279680140418,116.135558028619,2069.74971879216,-349.256241613665,466.415541310649,-79.0308992489893,774.842126017732,44.8832883158123,1034.12977312562,-92.326585309585,337.552713046607,-25.463718022545
266.597749166204,-23.2675733333369,2044.00898643501,-64.6508248455793,346.779038125112,-37.3880012619535,1025.51439399353,-93.5441786403612,1369.63379841523,55.295922502404,382.668997353811,-50.7716437048301,1493.28226104983,-113.370166093087,771.072264089488,-115.519752391948,680.287120721055,-114.018011706122,493.707408107154,116.988433305864,2087.25956428345,-354.606819003717,472.70565711218,-80.2127062500914,784.983820691139,43.9018964536416,1044.46616924447,-95.0828840938065,340.714526128259,-25.7594018021158
268.769098889271,-22.4064593711522,2055.87222885199,-66.4704531356306,350.683074906813,-38.0834958506114,1033.5838509548,-95.2156954056125,1385.38517858596,54.0570215732645,386.935424689322,-50.3927126036857,1512.42032661796,-116.906048607149,778.548739824654,-117.224664779171,688.710186500603,-115.955296605271,497.911600026269,116.925836880196,2102.21820730442,-356.410207036783,475.89280306407,-81.3050726514897,787.842221581303,43.0175758626528,1045.82748648641,-94.2268423934478,340.436307172078,-26.1168563510125
267.855108291959,-23.6908732523151,2033.80561196441,-61.7543009353424,347.458605094045,-37.6955185891976,1023.02635465412,-93.6057830512259,1360.72293132543,55.8866084787142,377.817077112014,-47.7346244074894,1483.38754435322,-112.861868632779,765.889022060942,-114.64997852829,675.790201003475,-112.44021892695,491.017882344786,115.974497671316,2079.69962019016,-353.55465556695,469.768812842557,-80.1551436945696,781.098828136994,43.8187379413633,1037.57626707502,-93.0223722830384,339.084436323694,-25.8609765525382
265.560144096986,-22.7623926152296,2037.18994215057,-66.0834474501854,349.192450776274,-38.3097811724073,1025.76009892758,-93.9184696148095,1366.35921968956,56.3454311664538,382.619103953137,-49.8680303013452,1490.81390069048,-112.765810137594,770.921775786248,-115.870928662985,680.142486277236,-113.444630286354,494.171105945459,116.588863917938,2089.57691236133,-354.803824829626,472.572151380377,-80.4209626314098,787.196285119676,43.5768467611264,1042.93516769423,-93.5951795924017,340.387684424895,-25.7484222915616
268.548404754937,-22.4818483810486,2055.27111115628,-70.8202707944399,347.675751149552,-36.035508233891,1036.87260803963,-97.0359397314253,1385.88974602741,53.4343949891671,386.841580940774,-51.0874104644487,1512.28868746961,-117.987452344199,778.207527284746,-117.172084915889,689.137894967707,-115.720248900579,500.171419025005,116.402786967037,2116.1562637531,-364.43848377327,480.571223823362,-82.8274939223839,799.667620597242,41.5994899943303,1052.43726925526,-95.6026864817485,345.070074014987,-27.1810594951014
