0.397857657211008,2.82054679350582,32.2496788115889,4.71082129281298,5.35663173127459,2.06682348187965,526.859623981517,10.6391891313038,897.652585015844,-29.8874033620656,2.75920128857668,1.16571990313194,98.0925758344518,-12.9460685095009,115.832854950258,-27.0899500288632,20.6849923644157,-2.58651338818744,629.718656609562,228.13569009656,252.745334670259,-23.5606043399182,1892.15003270422,-321.122640594236,183.642680928504,2.92564084275128,810.657751868464,-34.4861287926458,577.434567133634,-61.9537482993749
3.10180175023144,2.30325699739257,40.4024348318655,3.4280294925773,-3.25754406370777,6.50007761143685,520.480652250036,13.8137683228497,921.708050091114,-36.7856094156391,1.22259897479311,3.18762452453161,104.131843384014,-12.2559389219872,109.847577484496,-22.5914078671918,23.9867633329687,-4.4951111497845,640.498578821735,227.470901572081,255.867465582579,-24.0187043643597,1906.81151650705,-322.746844202661,183.265093619969,2.7944268388335,811.566217824012,-35.8652468629046,574.234304935451,-63.7492669847882
-0.175646573907376,2.09055011379338,41.7759769079828,-2.00531493558782,-0.0970337687169945,5.17511174578758,531.202361569703,6.26533967815581,890.65630859843,-30.4539103667196,4.8287513725778,-0.782195832493488,103.46983093824,-16.8528634889384,113.382993138845,-22.2810577585771,30.1688124834251,-7.78586710333197,618.175153016518,226.679339839242,249.538149286649,-22.5723868079543,1857.99390727411,-310.56936005664,182.742030004728,2.13360309731658,803.024736734741,-33.8889834277424,563.212380898806,-59.3202178198406
5.03082006291288,0.799493972212422,36.4550172694108,1.78986602755387,2.80332671694273,1.7985431025415,526.881183296573,9.86166630092514,897.071925019713,-32.6292052788695,2.18325773501938,0.508389468929932,99.2407337812566,-12.8695092641662,102.940785298866,-18.9392008786333,27.8108046727037,-4.0327989015818,625.185086707001,227.46911562686,249.427485475821,-22.2258591782978,1886.65275340652,-312.75292553059,182.970157939646,3.23459783606368,806.378818941718,-33.8658850617844,577.429035924776,-61.3058934405945
-0.258799058505511,4.30978595008888,40.5915675491741,1.46661726094503,11.1220867345955,-2.89893095047825,538.522334253843,11.002667759931,916.370774818936,-34.5594496929462,3.51151138139989,-0.551044946626596,106.198507815464,-17.9164085917704,119.949413558497,-26.7993113022187,31.2318407297734,-8.93197698090649,643.363682325693,226.585251882394,256.784764574345,-25.5147929624055,1916.49434650872,-322.954428584847,182.867263305448,3.55009328039075,815.059808394361,-35.4455592388643,572.782388737552,-59.3177040140452
5.05394422995484,-0.64247321112808,27.5903127098665,2.56074741367516,9.46179133156994,0.920830174402159,518.319015012375,13.457133423032,889.903457672694,-31.0033936324634,3.72016133494448,1.93692955442805,104.727519994743,-19.8141441675502,112.079663453319,-25.5696498447971,29.9444776780319,-8.69944704964175,618.904811057757,225.808782613657,250.71053166829,-23.1567799886735,1876.60390444404,-319.915426783182,181.437535473721,3.46756674075047,803.089966125909,-32.2225836803676,565.194506323994,-60.7032409402962
3.04798126193235,1.20623322287212,35.7188110059411,1.20315234423154,5.70738749753754,3.58360022508455,515.859393152212,18.4505687730856,900.640177891789,-32.596741975359,5.61019783394015,1.16022275022898,98.9909144931544,-10.8631137818533,106.158270780475,-21.1285065992064,18.5640034124266,-4.4907728226267,628.830692602079,228.242413002352,253.426263132649,-23.376175180471,1880.1982911652,-308.292027357121,183.762558096731,2.16506337104789,812.780790678179,-35.1000244390562,579.810063964689,-63.9467357505627
3.96815798801799,0.149482471950424,36.4382521650202,-0.083768342481831,-1.52344657338859,5.98164047253432,533.761066610581,8.75565311330031,922.281482816829,-34.3851395307487,2.49141196734081,-0.018323771741387,106.487596892437,-17.5193155327747,111.595028327525,-24.4570858625893,16.8818798922866,-1.32508110647457,640.186441464569,226.136536281288,256.543165886935,-24.1048540159196,1889.19401140339,-316.198332255846,183.661874448945,3.79350640051392,809.68627703516,-32.7908991629405,570.264984626978,-60.8244783854135
2.42711685970185,2.124269935974,31.1654097219232,4.70443472152634,4.04924206941341,-0.525395751391183,527.663973238275,10.0661233947252,892.515484384453,-30.5958237552746,1.11937324900479,3.6112467454243,99.2289367432768,-10.4343184228757,115.961602045262,-28.7211189656049,16.2220047579943,-1.2671785180094,617.726676557567,227.50309712014,253.555948571014,-24.1625562228419,1855.93070879934,-303.814834365189,182.224453934847,3.09431863214806,801.886740456315,-32.0051541422595,564.376678617679,-59.3666661158736
2.64759299210786,1.37633908514903,30.3696057103461,4.85468400728121,2.98369070754731,5.38105173169164,526.652250194896,11.4104692433718,903.55108823492,-33.4622685613527,-0.166701812820121,3.31204114510369,94.2879712172477,-13.064543752837,110.715479028624,-21.6304343700019,26.1510670276007,-6.86531602908469,628.931118466794,226.902404942652,254.580427825357,-23.9308551447661,1880.45469798553,-308.983270076383,183.685314432813,2.32930022844222,813.018155779144,-34.7387270135163,579.993065024243,-63.3050043527369
2.48196829770243,3.51805030845782,37.808439912505,3.42136801463657,3.53927074759986,3.95857713865424,530.228105999403,13.136059424043,926.898562350917,-38.1173972193827,4.4074942722699,-0.217023474439243,106.85694119975,-16.7194964617578,115.092936481948,-22.4331613960997,14.9150925425655,-0.141241188231342,639.780631302382,230.282976479706,261.03171084494,-26.1303587414499,1923.90027728719,-324.489988653897,185.528962406076,2.25182490363009,815.768191591523,-33.9482826409168,582.239862998707,-62.3529579757966
7.12977460427093,-2.40608773651407,39.8485268781224,0.422799199596395,11.805386671559,-2.818222421594,514.205728630305,11.6802019205001,886.55538952067,-28.8438215821784,0.799346025911029,1.48442456396169,93.1955748701181,-13.0545004694379,113.112601076036,-24.4395446085599,19.0549167029875,-3.30875345811412,615.953615445482,226.165907854591,253.802957834629,-24.35139868832,1876.86607803817,-318.867534109017,181.863088181264,2.987967317669,799.678941213663,-29.8801230421624,563.975370493668,-59.2409077495738
2.1851462538379,3.38069277743962,29.4580277163696,1.92951832958323,2.8344788979079,3.95846111267989,522.965367072047,11.8578252867565,898.937768630856,-32.5393419686247,-2.30165972498969,4.63520698201641,95.603763206711,-9.92148657035103,110.968002150539,-24.9578804443255,17.3417747444627,2.17049622850428,621.59684170782,229.115152353068,256.093768399697,-24.5733635520978,1894.85913795326,-319.847970194109,181.082562785483,3.32088538916734,807.978427993544,-33.0998016817129,574.533729698487,-62.0065238290606
1.87348133793081,0.717474939012489,38.6054662903981,2.57286584434859,12.6430623943602,-2.70858535407517,530.024921183614,7.40094818091737,918.850925563276,-35.6317644684709,0.446510739803702,4.45220637488878,98.9737203123574,-11.4129337868868,103.89385158494,-22.7499818070182,17.337385232271,-0.134259797630412,638.746922516699,230.900207055265,259.258789262969,-24.1342909726283,1921.27466293611,-326.493759817875,186.563958032153,2.10271178161058,820.828849749909,-37.9692573058611,592.280021886153,-64.6655880328193
2.96506028087889,1.16416066360487,37.6079394989799,-1.15539454747001,9.58196615907914,2.59786552853795,522.868925109879,9.86366076539524,888.161327550387,-27.7477180163122,5.68376937140173,3.69378058133349,95.9005622228353,-13.0270449017941,110.737608345933,-22.197632576356,22.4998269522007,-4.10055941968397,611.054737766284,226.390852972091,253.500005124765,-23.8010073707132,1863.65857205326,-305.560076185518,181.085402328958,2.9320667350555,802.960664159634,-32.8863803822342,564.907057296131,-59.9391497484007
3.4956240693774,1.4711388779721,35.072445138542,1.3095918600617,11.6315039190749,-2.08783347437846,530.402930448636,2.65556377600202,890.906714380036,-28.9105248638647,1.72598848693029,-0.151112160003114,98.9415175823447,-17.769950177126,105.876651655242,-19.6079918290505,20.012298483603,-0.318995008682504,616.644179298528,229.547413263764,253.959610399353,-22.9854364071806,1859.47556686343,-306.082031100547,181.370035257083,3.07581973365607,804.174463272744,-32.4967462196029,572.213141897267,-60.7332917021426
8.88166572017669,-2.49253161966527,35.1237377229031,-0.572402399065065,9.47379707394258,0.0325167325364804,538.921360561068,8.82898251555812,912.73569158222,-33.5562447262098,2.42686418885242,1.65773956867568,95.2829195874502,-9.52798776019523,110.787314369778,-24.7929823497735,21.2412178137414,-3.88018775130204,634.708865542364,227.570333458759,258.273316574476,-23.8941865763024,1907.07764587963,-311.23112246613,184.91957130108,2.47007007874482,814.739733044891,-35.0370599498329,587.628348791535,-64.3236035325104
2.45144388524244,2.51796714195504,35.1745946970807,-4.83522796185591,0.130673600959274,3.67088461671005,523.87202458194,15.3499102557004,897.122684156832,-32.1823110692249,4.31402815125075,2.27715694471121,99.9438638229928,-16.1314395058779,118.931259870346,-30.4221955242215,14.4987692732891,-1.58978277713548,613.381632613965,225.724292680888,255.85871017703,-24.381225148396,1865.4290110067,-311.794226610449,181.435534257475,2.08526403991975,805.112340896397,-33.7903330812922,562.806954076246,-59.6510923676552
2.79200346110606,0.43476201620941,33.6374992610737,5.32948730976061,1.11530308664854,3.18250273742735,517.782776911984,17.1402584828813,893.017569918288,-30.2389450020477,4.88934747830517,-1.05380897936074,102.623524214826,-16.410563384794,115.062271469857,-25.1170924164904,19.8382319782552,-3.25731485096882,622.225743181821,224.051644280237,256.024931213893,-24.2704835875813,1872.51739473618,-307.008831497053,182.51380963468,2.60607524805623,807.048274684536,-34.3699567719419,570.26905040859,-61.0179534804396
2.04583474116965,1.37215376538308,41.5430677323129,-4.82999082314824,9.96924062034694,-0.0770983534989286,517.378732745845,20.4984742063731,917.912142100079,-36.3373687941623,-0.110355510226274,4.85381368609458,108.509343525519,-19.8794388701508,111.468190481582,-22.7262096491436,23.2763718415037,-5.00408238344738,637.39929256631,227.474640332519,260.024847476279,-24.7627473496296,1905.65057669279,-318.070181334119,185.512310388257,2.89515409912427,816.386211783474,-33.6843895918791,593.828020735355,-66.1338438815799
2.74400317559993,1.21767560475214,33.7315322340401,5.49555068426538,10.040530024666,-1.64088329214534,523.721206322885,12.1767398216339,905.271446599785,-32.6507132399328,0.19741100722314,1.91381418789422,101.721079932544,-13.3633138471725,102.791929229586,-20.564553087223,27.6484704356322,-5.95052209521384,614.768669770122,227.08487619285,257.462824954034,-24.7822547102395,1868.139600541,-314.391355805738,183.963237131177,1.05580367222216,807.544551887405,-34.6260435994429,563.918067038685,-57.740765814016
2.28829988055566,1.35520422875985,23.3916991477227,4.72042994816268,15.2326335659121,-3.19919688093908,521.438961804218,6.95008012155298,901.506038365014,-33.7516216801017,4.24951176368413,0.568630020406807,106.06950341347,-23.5486586910839,108.860178678291,-26.6076722907746,25.1928727134367,-8.44074454716971,617.331975427275,226.930562073204,255.088490296042,-23.8480162718278,1852.87045318605,-304.476358120782,181.930120555499,3.10551582654409,806.851618510073,-34.1710406597533,573.104976196972,-60.8701157026593
0.420283402274582,3.79563134802847,30.1037019653723,9.98764227515951,7.46321369328262,-1.81137530336812,533.27617685497,4.12397377335636,912.808359522855,-34.8654453671827,-1.26104771405765,5.22711614396088,90.9514113472169,-7.93150215230554,110.234731532027,-26.0453683923158,19.9749416019287,-6.14262803666057,631.941167447124,229.165885739856,259.468906845294,-24.4851803093937,1927.67648095653,-336.93045765346,185.841099719497,2.83427992837946,817.28975989045,-36.2284327671122,588.532865140963,-62.814936725009
8.11094835602417,-1.68553516320945,39.1633463893068,-1.60672505102373,8.65304325001496,-0.370022921723701,533.327120764203,12.9902759801889,928.379379616045,-37.7537141511962,6.21273260267865,-1.25927562575502,101.773724362517,-15.8585857943357,117.413712637676,-22.9047981726327,15.8816189677772,-2.67098451562375,612.892471063178,231.349984134959,259.442542106669,-25.0814113330719,1857.75860374961,-304.903749296032,182.976370066292,2.93714329271705,808.345974208223,-34.9786861348952,564.833001874964,-59.2312516193334
0.764895158098594,4.24489661103093,34.2806390654977,-1.38069668873717,13.2312536601343,-3.74518996213516,529.096245386982,10.7110672045053,897.114669407274,-30.899096885537,4.49193721159067,0.216118649613861,103.684890802591,-19.1494573465169,116.589632577854,-28.4796504465191,30.5093200871808,-9.27783515252265,611.385762707513,227.142309464518,258.714071534515,-25.8936046220353,1873.64020971045,-318.188150904717,182.516973685145,2.55378476347481,804.294681612938,-34.0178204885789,567.169771197604,-60.5378058366138
3.18599559061064,1.85080645881318,30.7961386987962,0.417229835640777,3.21889846756072,0.552945121901044,530.546160354698,14.8791696172456,905.258909411573,-31.4335370392534,1.56682754235998,1.73077167489094,109.027940736412,-20.792269555445,101.369443400248,-19.3219363013704,19.3719487549321,-3.01207140396884,627.234958285448,228.485058609304,260.881419801723,-25.5484619439765,1912.15914324174,-324.012347180244,184.548107058538,2.83919712299861,811.546939607922,-34.1459910114704,587.05341641884,-64.3471829120801
0.0597361949721794,3.35943487006593,23.0254517861555,8.82960717693318,12.6182208570751,-0.335636403417073,521.78929888753,18.4589016723533,931.28805504096,-36.8205389595345,9.97860350698535,-1.75392809207847,98.8642948651771,-13.1317056543494,107.983838632973,-23.8355444787941,13.4650940616854,2.599980995879,637.210525022131,228.419433983998,263.919033707172,-25.822844691444,1922.20293373007,-327.668891882449,185.6666311292,2.07290381495356,818.764875884805,-34.9876012505714,579.465128570716,-61.6960781795613
4.35879805007526,0.179238375491908,26.5585865456907,6.82348338138239,9.06806116696056,-0.587985645992746,518.277659479952,17.0070503489781,900.692463447658,-33.0459333740853,0.776451216842557,0.0548875034728488,100.491516443079,-13.8177349297668,107.601140292458,-23.8422890804708,20.5684670991539,-2.7266513401005,614.920954696081,227.147546237635,260.547007717684,-25.7575626941998,1885.81255036801,-317.122556883226,183.506554122725,3.33944319262345,812.14149862538,-36.3761939351747,565.714448070967,-58.4542199473318
0.0738146688602491,1.78012284604818,39.2167823718787,-4.26432363710826,7.05342097436577,1.94302943258495,519.708744894474,10.0958550502066,906.706467997715,-34.1182593288092,2.29658559479703,-0.119295337717089,107.927236990105,-24.8664119646892,113.740123091402,-28.4211461530452,26.5506172093033,-4.39603261759989,622.104480293399,227.457642496631,262.326135914806,-26.7127521214694,1906.59780141206,-326.107612896577,184.607350155393,2.27893648413993,815.609531657,-36.0196840597327,577.683767898142,-60.9188107525997
1.80546605063984,4.1048609648471,28.2114042716294,5.78330672021797,12.5343954127612,-1.64202247685829,523.350983933528,18.0158317242111,927.915280995274,-36.7487000628507,8.03163856436523,-2.6721884543269,99.3484126994362,-11.2803637548025,104.775460283178,-20.8770815036803,29.9384914365228,-6.82657532987402,641.435114475191,226.579708635625,268.880446164117,-27.545273787519,1930.65019650514,-324.438281856765,187.348617638593,2.89000516598355,822.983431183126,-36.3829690844949,595.625444334552,-64.4107357787351
10.1919038604984,-3.41535576388824,31.4250815222559,4.22314801829104,8.38628003719478,-0.935194054058056,509.505328169492,20.0758861951882,898.256372299112,-30.9520107614747,-1.54154511609326,4.32721247949899,96.6047554936575,-13.1888657172984,105.527839921146,-23.9796983424451,22.0613740494886,-3.80446468921433,615.695931961641,225.812193632697,262.845858915375,-26.0097533389148,1898.94354928717,-317.598381692828,184.113306673463,2.03005821624323,814.945783838224,-36.4140372345579,569.234117101749,-59.8929468020065
4.6053478023073,0.515009160555049,31.2526142028092,4.31312151592746,8.70938924759756,0.110095052858968,526.519367992326,8.73474184338017,904.34076358425,-31.8494618681151,1.84270748562095,2.34806874190159,90.5387915095085,-7.19156050760722,109.190961456255,-19.7822392786677,24.8151091099881,-3.33291775437226,621.071384744045,226.307836784959,264.167167589841,-26.2058484210188,1905.71397398113,-321.841892652393,186.221694363896,1.94085692224112,816.228067303142,-36.585381722036,571.799421676669,-58.4971746381276
1.36717353172493,3.1849139022067,39.6979743436165,-1.83153358459419,6.92581267087432,-0.413285880294138,526.873738501615,14.1908278410308,928.581596287512,-38.0707267898065,6.3682610475966,-1.87602727496569,98.2770001670772,-12.5940543438596,104.947119159252,-22.4965861731545,22.5108139586873,-1.63083770694869,640.319784148361,225.41129637405,269.998122496454,-27.9205020618331,1940.72853305716,-328.923160377988,190.413785989424,1.08667466799871,828.639847493773,-38.7223711845921,595.274235080753,-65.7793910964192
3.71092344913122,3.03998794249483,36.7090317968726,0.294503491784111,6.17440743131214,2.70050138028067,517.709739728822,13.676065409503,905.678974552251,-34.5433990896836,-0.485692515460093,2.38294447930499,86.4328444151785,-9.64757247087537,110.529520151879,-24.7129065646658,24.6714250486682,-5.84079455308648,613.803184997117,224.165698014,266.095228719154,-26.9415677695598,1883.46283423081,-313.20359037592,187.238525415965,0.470832857552741,813.227630649714,-36.1094976585487,564.892116110797,-60.0132720673218
2.00856024118403,1.34592396371815,26.6454466475608,3.73154842008915,8.46382812277997,-1.37060169136299,513.494825966168,11.3796259967133,901.363674978249,-32.8683605217333,2.58652300515829,2.15121482198198,96.0538018742099,-9.72134264236827,113.050193660631,-27.1040805365158,24.4970033268826,-5.88946694482753,613.559089589829,228.486109726682,264.78178683004,-26.3054304592169,1905.22205954627,-324.807834413461,185.547119751668,1.93384928633799,814.171195313828,-35.8250574373342,571.35215464463,-61.432012521121
-0.260104160361771,5.45600473773136,30.3195173395579,4.49405322238329,5.64401022166758,1.30503500535715,517.839872480873,13.8710131816332,925.809349365255,-37.2722227743316,4.57883115716078,-0.0879221618187444,106.192586433649,-23.8141191347387,116.890300267617,-27.0564751441666,26.8235954571745,-6.55775084798726,630.525441564958,229.098511433561,272.084948385515,-28.6863917110544,1937.37822308905,-330.810564556865,189.779010424863,0.931600272287113,825.054585586966,-38.4447648204644,585.998322311849,-62.1360638694005
2.41332396380767,0.0360172271179215,38.5492467722204,-1.00616030166868,9.56108899365963,1.73562144616955,527.418782685743,9.37569616772871,923.376977443541,-37.2937274634343,4.75370332007248,-0.809985414606815,100.134353340107,-15.573478044608,123.054084943191,-31.4592756455145,28.0899359089841,-9.27229545232756,613.907579930131,227.056353420688,268.829092528742,-28.409333125683,1893.9763768629,-322.253264799155,185.297375649294,2.33255392861018,813.460928640447,-36.0607833191551,564.001970214099,-59.9627761875846
-1.47548631231135,5.77201054338758,32.3215613478498,2.23370810723981,6.56994463248797,0.450489654290317,524.128979992895,7.61487035533693,908.325061971458,-33.4172641051046,-1.85853329515172,5.91610411536033,94.4592316612132,-12.730565452619,109.935230230819,-26.4452527064604,31.1495169834128,-10.3533274292583,612.692873808938,227.67650013123,267.443500643211,-27.5517930601733,1904.41466453211,-326.643849636324,185.902022402361,1.3440706393665,815.607778746853,-38.1592703169864,563.670067020791,-58.1888866490915
0.411302864956917,2.62614391381239,35.823780205235,0.477161712196018,0.454241898042496,5.54761381625997,517.158497534887,12.1734325944169,922.736021613664,-37.9716529101633,1.10302658792462,3.59240278493051,95.8576659672184,-9.77089267003268,109.399044611489,-27.2565241852888,26.7585999785464,-6.9664966968277,625.397029450729,228.801659526191,272.265314723468,-28.7439192579088,1924.29006362581,-329.652358350979,189.807649150814,0.398830899811471,823.832262887102,-38.1537829156991,585.544092298183,-63.3034516139154
2.40725490796106,0.954659224160178,28.9625107261715,3.91136853536779,0.527940255395731,2.63804178828701,530.651463415324,15.4987752695888,943.030983652233,-40.3368297908559,0.359149907189366,2.8850512739689,93.7333375799636,-11.3925069361746,107.714829409826,-25.5951155150025,25.1830110422037,-5.42022141225871,629.594398895502,227.597722496535,274.980860258189,-30.0496548662808,1909.08815492579,-320.854893858177,188.406477728775,0.407411389581483,823.011321347985,-40.1380904071174,566.023030771978,-58.1640174705831
6.38348843069683,-0.483366022024618,26.9544534575864,8.42790288935374,6.98665182416832,-0.399673223499474,534.101017353218,7.55439534336796,916.314119548632,-36.828351856383,6.86911935504588,-0.87647165200028,117.043974969794,-21.631489032004,102.518241440726,-18.8421629765419,18.9399190779377,0.0216069688157052,615.471294501153,227.485295745234,271.656014368646,-28.6402588500454,1909.22958408713,-328.470397617446,185.690229412169,2.26934616236913,818.485048537603,-40.7740263143909,567.870063094947,-59.7443437343848
4.72229146506026,0.412642751944159,38.5969254081083,-4.86182824134021,6.56776002655259,-0.57376317299308,522.38597307333,17.0377316566966,923.174460351549,-39.4089562661979,0.48637729167718,2.39590109188014,101.221933748253,-16.5897967572063,101.870043502093,-16.0354200015575,21.479417443214,-3.00880360088965,624.995330272684,229.020010824871,272.475621180679,-29.5284443372831,1920.88853943239,-330.52006187131,191.071641080571,0.265609560838164,823.842270218451,-39.5687820806412,578.550688696493,-60.1611157846651
-1.84875558641003,4.80065694910244,29.8427903638542,7.53664021330355,7.31091825316498,2.71924954611946,521.346496906597,15.062509261135,947.555512969207,-44.0308069025007,9.36766306528292,-2.84055129632693,104.136651012217,-17.7911680243397,105.432250636033,-18.796308355836,23.9724781416431,-5.28334228359434,638.762085546086,225.563873082558,277.221714381667,-30.9241986031125,1909.55006922774,-320.560087483745,190.14921016961,-0.113713978363469,819.357274576599,-36.0785791450257,569.764954981518,-59.6060743640691
1.05513972120339,2.45658305635638,33.3292519001572,-0.562749224419158,4.54902774287513,4.24528729224142,528.628791869717,11.0383132474224,915.629416671554,-37.7800458003362,-0.766185038454474,2.96610664492831,105.977166915377,-19.6163890435491,104.033173198884,-17.9915208124811,26.1582586787947,-5.69665245199343,619.89263581326,224.344676718804,269.496800351859,-28.3510884451378,1895.2135052519,-318.09994835624,186.318794977969,1.39454397429964,814.749103552617,-36.6934171193543,565.996160495317,-58.8721100061147
3.81488272667607,0.841663521942602,23.6510066299598,6.98080594856791,12.9359343928476,-3.22006297403612,522.474780426957,15.405566610346,921.730148395688,-38.5906337120395,7.3307461770628,-0.80622714173807,93.1422903846441,-14.0709887786664,98.8822867445419,-24.3874102772615,20.2053225186437,-5.56191886140153,625.210936292716,225.832479516435,273.479081102707,-30.1033698007498,1909.54349665571,-325.513097912675,190.394590300002,-0.135114517121749,820.374746994153,-37.9189736942146,579.635479247556,-61.172726383296
-2.26686388690815,4.46447758038356,32.6609768015994,-0.61908700254241,10.0480318789246,0.583930855447933,524.260466626828,14.9093055635856,942.906222607004,-41.6943311158288,2.26761533601765,2.64232410375764,99.7656829367287,-13.771389242291,109.97574196327,-24.6708703221083,22.7261624766571,-3.44748628035979,643.891822357236,225.240490481772,276.982207459761,-30.9912061961654,1927.67536873652,-318.152728003673,192.835891249078,-1.42089070353152,827.031378227589,-39.326572676917,576.3317743658,-60.6869902960703
1.6354272341535,0.9073616436225,29.9418822258312,8.44544599627011,3.65819516409,1.09298008802396,522.496542688789,7.02783613308193,910.689242567381,-37.657274472588,4.5287811781753,-0.191918220228242,101.197955964008,-12.6726471127755,107.34607638944,-22.8947731576809,19.8249862493469,-3.70692812220946,614.818307404534,225.063576384177,270.035700046141,-29.6370689724114,1869.39061742906,-301.777653293911,185.14819414272,1.61515630704129,813.576987663719,-38.5489629143248,560.764887774267,-56.4568289955523
5.75394671778098,-0.853320959778978,45.7676462780192,-5.0104976485709,5.06522507285917,-1.32351123531857,519.587084926884,9.44742788374394,913.243265339351,-37.0052888577037,0.224404215206839,1.99111898298245,103.202493665203,-17.0604770305585,107.029029929662,-28.9428120268233,26.3517044708172,-7.45384578148522,622.207698182174,223.993655047911,270.973482024541,-29.575295473552,1901.85991679025,-327.746315684986,189.025080218538,0.0237642716779637,816.728718933651,-38.2495519395785,574.95408134517,-59.8897382957909
3.7129068406464,1.06018416798672,39.3748646719838,-1.13378849828345,-1.49374551024904,4.67109446000904,531.719933842176,11.1664041664722,930.358132031006,-38.8704782403021,-1.44878705470885,3.62822054931421,104.887092646044,-18.1375838652064,103.870457196742,-22.4427708720413,26.7298419003334,-6.32254321679032,633.673003752001,226.929152130802,277.250805726056,-31.8219732705519,1934.30616511213,-333.815003048411,192.366974675032,-0.288035456936616,827.928322202334,-39.6203326878079,587.681502735345,-64.9398130852377
1.78578888385999,1.41984927875464,21.2030293092566,11.0597601401252,6.12085232070351,-0.932972791166408,499.486901274022,22.1101222568208,905.621013785984,-36.2091199315223,3.96261567652468,0.0404673923320735,98.6464826874633,-12.64636645169,109.135257148611,-22.8288821402409,29.6559278182508,-8.87647927657078,611.291379690702,224.65414448868,268.594590405467,-29.1609006493316,1877.19254852022,-310.479770366515,186.847343312043,1.05952176268848,809.000560043799,-35.3499160953586,558.851107556667,-57.3272244290901
-1.57001093775238,4.13697364599245,26.8004453798282,3.04811684400049,6.4650813041188,2.73145130893704,520.885147836274,4.79694275834491,907.974823498894,-36.0598440860433,-1.31530948583698,4.09082335917515,100.226256052555,-16.5694508875218,102.917138304395,-18.9961558987111,21.0026465090844,-0.634173161792537,618.110709808973,226.759967495057,272.355127930456,-31.3433818529607,1901.80113284558,-323.421498837688,187.987031068713,0.0700284131301972,817.571511716468,-37.5344602141242,571.40046022829,-62.0428396875937
4.3567973725028,1.02252784736795,30.9337967255624,5.06286736617398,10.4272584341597,0.283501536847451,515.756137550713,17.7898587327991,930.691061929574,-42.1971919407534,3.68863278232187,0.175820163617338,103.388802030978,-17.9448422030031,118.480432262228,-29.475187028005,27.772668098004,-7.45470805901848,635.956934543586,224.764586523147,277.537455614947,-31.8242625731681,1937.44191059036,-333.094627350907,190.991368815641,0.0369754222301539,828.295279941282,-40.7900721026992,585.006329696711,-62.9120143125008
7.2618841445016,0.155164345494832,34.3170429837192,1.24811154673522,4.06748302045373,2.82700255123458,510.16819391201,17.3569592178755,901.337321177935,-34.5668882229568,0.501677404826175,0.413425409557144,98.9820681638755,-16.4168447313669,111.2291044625,-23.1222477734737,25.5981467887624,-7.30711107504421,606.419873217094,228.244149595499,267.72004294712,-28.4739338345053,1880.80345424159,-318.353746126964,187.485693403344,0.544850826274493,811.561636073308,-36.6687705067154,560.025829423253,-56.5132664942403
4.27991996690424,0.99323763401646,25.7300410737034,8.25628295019101,4.65409393540881,3.36958238394321,519.566330637567,12.0413605373037,910.538433726511,-37.2725319746187,-0.566335400043641,2.87975124972591,99.6833925959069,-11.0965021939659,104.946976458139,-21.2441455979338,22.0025207663686,-4.61831292757354,614.407102798898,227.373378601814,270.775017300756,-30.3746837822389,1900.9582773028,-325.852550314808,187.862882066827,1.17905568849292,815.981313912826,-38.2715946579759,567.960831381697,-58.5301049457801
1.98392816704074,2.22223166321119,31.8325370852002,2.77364564428197,2.78601209280735,3.35895716937469,512.106135336955,18.0705818329332,929.821118463832,-40.8468562097353,2.39017804492684,0.147093685855425,101.806979638664,-16.1174134283046,98.165584020828,-16.6775471988226,20.8980644568694,-4.82074353603767,633.189299264538,225.690764081504,274.713392154408,-29.8347967266017,1948.48679429697,-330.080474771941,192.67538557823,-0.242375433837083,825.52428241436,-38.9602269295719,585.406653191959,-61.6992115274612
7.88522754591606,-0.643977243143166,42.5687204739315,-2.24171295494364,1.36729889416439,5.91702828145805,505.665608844754,18.1981997344607,906.296307060294,-37.8111875043832,3.28101292297975,1.84353525494844,100.525057857643,-20.0893206985331,106.736811413135,-21.0931639702713,20.6935094984567,-3.62379734137766,606.083911836022,226.662676834,269.307521925718,-28.7118429935065,1887.52345174929,-325.323834722605,187.409644304701,0.643723721765311,805.413663953063,-34.3657046912867,556.469059506472,-57.7570710565321
8.83895469172749,-0.215328345457026,32.4620996172631,3.76578737606594,8.60545101335735,1.89585309012593,521.946478970708,3.5978013244561,901.403860321712,-34.8258254676096,0.0729244508759203,2.66269848393481,98.0617043016539,-9.45636672156197,110.324694260798,-24.0064332607426,17.3077864965357,-1.29818993502198,611.671964720874,224.402199969392,268.103817381939,-29.5705689209678,1879.89822701058,-308.532284113223,186.907843207952,0.630518507372291,811.819912088848,-36.8312034282894,563.980724077611,-59.2399318336925
3.78782648015396,0.308231158922219,41.2217085371474,0.525822694179395,8.82288824420471,-1.29433478180912,514.862597968647,17.8598720039806,922.715330999292,-37.70335703989,3.22051310669197,-0.546407077980059,101.556557611773,-18.1525187298669,108.36102977282,-24.4025856310341,19.3197509587076,-2.74644587979411,630.241211087883,226.908672383392,274.687873428055,-31.0444654162609,1914.63086592494,-324.814516176474,191.734733731714,0.330510045698593,823.674342293616,-38.9140665145533,577.59840153424,-57.432285702963
-5.05196404728301,9.45000854942316,43.3197056356512,-3.08254194628456,6.54787201429021,3.01323964975706,529.570790438589,1.73321327540983,905.927687601344,-36.6512171741027,1.12255003081161,2.94274925058202,102.834888121438,-16.4404969173488,107.543937623127,-24.2462472583627,23.5296117634202,-3.26438454323632,605.966933492898,225.95062674571,270.859411118626,-29.4833987066579,1868.38852191356,-312.568419307968,186.572037592282,0.644500217047812,810.424242125644,-39.2769315739901,556.58905695817,-56.4235402581204
5.62032090842075,-0.233455364429258,28.846281556228,2.01499036988181,1.01720230953272,3.58165293758935,503.940541509827,18.9960411716288,906.020626276539,-35.2355300264983,5.14257446498963,0.309848409904201,102.029028416544,-16.9346341496939,108.520650990924,-24.8976071107611,25.9485667869652,-6.54034323276212,612.778359721093,224.696617265329,268.220078648396,-29.0329035870577,1902.77152609615,-329.785638360977,188.454814598926,-0.613287663805119,811.775869762668,-38.4990970835285,562.544415762711,-57.1966529607998
3.05001462166501,-0.158180794214555,35.8944000073081,2.89303582337904,5.97043813298552,1.10137678807745,513.095389218857,19.0902520715274,923.252278532846,-39.6530529877239,2.4418011619322,3.2356150905713,103.88550830326,-13.3989285941733,112.600133578149,-27.7280843434086,22.4123105675416,-3.14260948946895,629.06148595126,228.408917902276,275.650288599415,-31.6814073044855,1925.51186437813,-336.119465562565,191.669345541148,0.234067550761302,824.123070951344,-38.5094542257871,582.475924421973,-62.3843449108616
-1.62733162150344,5.34102594312806,46.4925145452078,-1.2124056799484,7.65650753235511,-1.99461045641767,523.633711654096,17.8702833978901,920.363414317423,-38.0632203666111,0.335981166253508,2.69758063550284,95.4276111051384,-10.6978933991714,105.471950055158,-22.5998688849242,24.3293139721699,-6.14944030712047,610.878172219756,225.188997454773,272.720106252426,-30.078347291641,1875.05576464407,-317.775812946931,188.695770226778,-0.383548486335763,812.791366382626,-38.8118426400057,557.572672345193,-57.2847944758362
-1.23693136609963,4.08564302978015,42.8234142601202,-6.64028647748639,3.0320999710162,1.7833459660347,510.0414512988,19.1687868924944,911.484497045984,-36.0335503371149,3.80148927369226,1.47664225800256,101.073657693995,-14.8995569324611,107.701678625369,-27.5276194906128,21.7715485021587,-3.32963926101868,610.203483631052,227.814242860534,271.247777994494,-29.7908282805525,1895.78706831863,-324.102762601932,188.871838607405,-0.0504326950742569,811.942106958438,-37.5362427457526,564.920283131116,-58.7786180870857
-0.587267848583107,3.35658044980648,36.3782729254987,-1.92675674199034,8.84886582534337,0.0403491656444199,524.195792660574,17.9814327770135,927.628077276594,-38.8119038723362,0.115953724707321,2.62564193055342,99.578087436143,-11.1637047223238,112.255684032978,-29.0168900352863,17.5907214906643,-2.06148750042772,630.390321568467,226.617728001084,274.655456464647,-30.9844686555046,1925.16867986048,-325.43796070938,191.937168887526,-0.675136962850921,823.470917921924,-38.7603217963113,580.723514175227,-59.6119782896395
6.21208633620552,-0.47390786559647,31.5086172959343,2.08830419038598,6.30507600598995,-0.523445064697518,525.434231594426,11.9825268961369,925.614782194373,-38.2590234933854,-0.870722854314004,3.08356582111412,100.605726216649,-16.3218646198986,108.281034696076,-22.9795422977636,28.691609670194,-8.50082923444581,611.13350797363,224.038239057208,273.010306864059,-30.0555245861333,1882.22610672574,-311.900531084361,190.258885454682,-1.35454270908826,810.757180597981,-35.6904326098931,558.765119146906,-57.8299232227613
6.24566257171062,0.215691833079776,31.495272570117,3.55286382510941,2.260333002361,5.32425497773098,500.547605359735,20.350814274184,909.540185038606,-34.695410839643,0.244550199809463,2.68876115912125,114.088709120195,-22.7937104712529,114.608397093724,-24.8650993631177,18.0285189085112,-3.39760994991559,613.481496966596,225.654146751209,271.067021691981,-29.1920387722709,1885.3007341532,-319.619406659809,189.385896973289,-0.953632783683487,812.035100677781,-35.9040529696593,563.058638848219,-57.7678440530515
6.36745777900003,1.86639676927602,31.3779798174924,2.86300839282353,3.73021795680897,2.70747630892197,529.092941955035,4.87405713551716,929.427500696091,-42.2192223248768,0.3574756691064,3.51177438353073,104.080082743349,-19.5261423685746,111.546141755334,-21.7467419393676,22.1585895447921,-3.77169750153397,628.402653993081,225.700172604525,275.384104989153,-30.0764294556007,1916.8952736318,-325.730249749394,191.451832120941,-0.0374532830435867,822.17117802756,-38.6180349226858,582.557315070883,-62.2348522794661
0.5692302104015,2.57242592721002,31.4042735037135,5.31892371550725,11.3086310390786,-1.22382090235423,516.880315529401,23.0193342783652,933.022199441455,-39.8346582589877,0.552255893873638,2.41064426311334,94.9612020165773,-7.88676599683561,110.033510174649,-26.4631184299268,23.9404236104155,-4.61813439999103,614.692735545629,223.903332845177,270.343237635301,-29.0316905557622,1853.67835407001,-304.103393414081,188.519512674457,1.26158405464372,811.456376996307,-37.5990305655574,556.918428083811,-56.2566394530582
0.813605046679921,2.78115552198944,36.7022036720764,0.465275060108475,5.19846699940585,0.869962075794616,499.651558267265,21.8767434804846,910.28416561887,-37.2562198871627,4.97572324061836,-0.455808926673023,100.336265964624,-17.233203291109,104.293277344697,-20.9480197931788,21.954836767466,-5.63671272483823,611.822634154406,223.648254332855,268.3027904236,-28.7758277116576,1870.26898136232,-315.346672885467,188.189713246373,-0.209407832303597,803.556715823422,-35.5504388889354,556.922500508596,-56.6190393734433
-0.125914754831159,3.79090419602686,38.2189686647262,1.06727583501183,2.08495968775227,-0.667725629927091,528.1324629199,9.67499939613528,915.36379345876,-37.015061931681,2.29119659326213,2.17792318974229,106.906200917247,-18.1473032244952,106.953494704418,-20.2165737944638,25.2625472097156,-8.154151546394,628.053013002356,224.06448727135,272.667298157596,-30.6732082041195,1888.6616459903,-308.986260076587,191.136221579054,-0.270033369304575,813.94707606668,-35.5546420919616,578.309225866665,-62.0995366994934
1.47318471956152,3.58316240832199,41.0661471199304,-1.72506346174789,3.86371921047284,4.02475137473276,531.315271047027,9.08058276158656,931.647990667107,-39.1673974955292,2.69838455269009,1.38522822495317,102.179496684478,-12.8710225459946,108.093530390489,-19.6757238697166,20.8566035489194,-2.57091691925148,612.123982248397,225.53076056751,272.446194342839,-30.2708866144007,1865.65393366554,-304.525796067531,187.874722224888,-0.328490153383296,807.607948061662,-34.8665166185737,554.174087779232,-56.3740954525801
2.6069082666553,3.54250731481552,38.6381325298925,1.76643246125798,1.12012572440122,1.93226439765281,529.953515482405,2.61445771858521,901.506123725015,-34.0518576128351,0.0241575186241688,3.41298149547814,103.948782630108,-19.3162016448995,112.553205279896,-22.3604036237831,22.5300250787935,-5.33922141692071,605.806608945026,227.280404474925,270.233002072694,-30.0111097865771,1848.04508318438,-309.036268444379,185.097666039869,1.13043740330117,804.053699146923,-35.8132080255677,553.743142497124,-55.2691612986853
1.08339953325741,1.14622150700125,37.3535483160126,-2.66089746593355,11.5549495461051,0.297556316056073,507.378160686969,14.4726689319909,915.314561225733,-37.6505819496192,2.19000664636095,-0.361614353251686,103.857840532605,-13.7179766650085,99.0057803139907,-16.594431489552,19.1589172555883,-1.59924794609096,620.906639226474,226.855935193332,272.144781837966,-30.3207405339556,1890.74898243362,-314.759929717619,188.723423185004,0.351019247325749,811.157931537681,-34.6838906828379,571.688575094867,-59.7157317174402
5.5492588424952,1.39728879852836,34.9681546303538,3.07613895850742,7.30835712934606,1.11365922520531,518.713982890473,14.8184753477428,930.780486442621,-38.5557366150878,4.93907936176165,0.426955234645724,97.9115846338676,-14.1542836277859,108.343901047597,-23.1912719659569,22.9743382017839,-4.26514282207195,619.843761194632,227.572039513605,271.765677776834,-30.0704549397074,1885.15301576262,-309.828871624432,189.878962591718,-1.04476287278901,810.277212942398,-37.6407865327871,554.510321343405,-56.4691332570887
3.14414044407734,2.12769791432147,23.5497715422844,10.5690050173232,12.8513844841628,-2.82143874318359,511.940934969007,15.1795104234993,907.317951347022,-36.0027889985005,5.85194045553565,1.09308996503969,93.1216613213068,-6.91811866112736,109.501248928635,-20.3288481269278,13.8457720349131,0.229958920271073,609.901328202568,227.422311592221,269.473378660493,-29.762923081224,1868.39526963134,-314.092655058438,185.509849576304,1.91004254829053,802.004451363224,-32.7637316661116,558.353324975799,-57.7074738783578
4.48679676737358,-0.138734206397387,25.6698931616984,7.87630268793309,6.13754876660567,2.86848229028916,515.116773945337,19.1679079146398,913.140899839968,-37.0332147696998,1.32834198225594,2.68310707299006,106.720510630303,-17.0717582057596,115.139184245093,-26.6091073182093,26.2053712739783,-3.9189645836402,626.823092901893,223.901718950557,272.537915189373,-30.47133061804,1903.6275990345,-324.977305167479,188.968015911281,0.244276602968929,815.59769731265,-39.0084453931325,570.771286007729,-58.4736905200098
0.248503217203916,2.54057679725248,39.5864954326626,-2.01060577569654,5.86658811474393,0.889008464645589,527.074398900796,12.6905052991722,935.240767440936,-40.8344751104089,2.4057827453741,1.16843843991236,105.404511203984,-19.2964286410026,102.411783503765,-19.3132541536266,27.1258040368207,-8.03897153671069,628.577422878717,226.095903982539,272.994750017378,-29.8620838804347,1885.50386353338,-315.172764370416,189.07313412568,-0.133881165896753,813.529205188608,-36.979950067652,557.743862419345,-56.7248284722221
6.01066972262109,-1.42529275517989,43.1746820527098,-6.30776322849501,15.0588738961384,-3.72701331486531,524.848078358959,14.180270089935,907.341362994812,-34.9537157778885,3.29781550715873,1.97228742320697,98.8538190394786,-10.9650808927542,113.496109368612,-25.319277229966,19.4404005190054,-1.05822470410521,613.28244700777,226.15138607497,269.353863488385,-29.1059416328884,1872.22218115376,-313.437576050316,188.17461019623,-0.285059614680679,807.100418119999,-36.8772237638463,557.194746708809,-57.328892989389
-0.805127876268063,3.34860796972169,43.0020873913811,0.887687220073471,8.55660952140818,0.322484904547782,510.760949225547,20.7246366830396,918.437351267362,-38.8787955644266,-1.9431653240461,3.04210166759681,107.393185725279,-14.01235006214,105.725942331057,-23.6819351940182,17.687239873174,0.0955994892832374,621.499538362462,229.122768386947,272.124244010353,-30.7503511040179,1889.00404478505,-317.266373708554,190.133670615417,-0.299478088683027,813.075037750546,-35.4412312477016,571.626845139476,-58.6028817252488
4.00440942444256,3.44561588186901,40.3874681345295,-1.70566863035486,11.4222379534387,-2.08813962885373,528.71988617959,16.7769532012637,939.841721285717,-40.626822850587,3.83860804019456,1.64734049734845,102.770768058185,-13.2017190696205,107.774627551083,-22.9039690032562,16.6840203211495,-1.84266677705603,643.232620667496,225.469646340043,278.227801953685,-31.8686798841763,1937.77772998114,-331.172576578801,193.40942365124,-0.766437830689549,824.028374291721,-38.1151343642063,586.526126217176,-63.9033102351809
9.94470476618159,-1.73880128302893,40.9596095336556,-5.34620708794276,-0.750316698374132,6.54215810216719,520.44204631282,10.5130428707617,905.710919795316,-35.806571696033,9.27414120089693,-0.79671878407401,100.307554487581,-12.6441513342893,103.971415338572,-16.1428251111583,21.2696584763269,-3.89682481154829,609.168799157592,226.935601710688,268.222770911196,-28.8620967713423,1856.67017560172,-309.344063707368,186.733996425763,-0.281281249367402,807.812644677076,-36.2996299966226,558.48735870671,-58.3665707306858
0.375027996724245,4.11107696577731,26.9274316081916,6.02422623059491,12.1949602781537,-3.18663480308398,513.705026460982,20.1602892158866,911.360730420507,-37.3514732073502,5.06450171479725,-0.260048835630213,94.2915197295301,-12.0213082554584,100.67152495389,-16.1416706543545,30.4023558783598,-7.46687059801106,615.02955638898,227.86341770337,267.887824723519,-28.8877147228789,1865.29762801667,-303.084238601235,188.337786202618,-0.0767979177250337,808.673911019142,-35.4486573705822,566.830362480145,-58.1028520797885
0.270571257814397,4.45244509764964,33.1318890341165,1.83886591267963,5.37064207616084,4.09390421512141,519.58929914973,13.2575133507649,934.854083476,-40.0661306654411,4.27058751138425,2.05053296244257,107.859734553829,-15.9221594456029,107.498240520063,-22.093328467518,20.3046644506374,-3.14274525595386,636.020657216303,228.728457585208,271.798404589487,-28.7773284183592,1907.4142493495,-312.545838116474,193.877825975818,-0.535948414026344,824.622286120221,-37.1560291317087,585.209561186369,-61.3729262058029
1.15348497320523,2.96439135487868,36.1466229002133,3.39699203048907,4.50986397291376,0.876803982469237,516.599769538157,19.2257187249764,915.600177536314,-38.6791462478379,6.98689016983495,-0.213815109285734,105.29318926839,-20.2715195580023,104.351038826745,-22.9622966108517,26.3369047523085,-9.38014941696323,614.574324852624,223.73045416579,268.065918909789,-28.9763838173798,1860.8185334283,-310.220644388122,186.69181617917,0.684176591701489,807.865616924211,-36.5256114814323,554.676286342911,-55.8622531586398
0.0592464293925074,3.10389174061056,27.7800923815875,5.78919662310629,-0.759991012098936,3.76745652500066,515.433040516995,23.6561001716774,913.054043079887,-37.043775022891,5.42165292552333,-0.795002353616035,97.4665226404216,-11.4543786225459,108.521929711342,-22.9235871343461,27.7789961417946,-6.55151200384629,617.050395074777,225.840539173654,267.46507502924,-29.0153841548292,1876.42615691072,-321.455415602306,187.415159891562,0.905920676020738,809.691071957861,-34.6346070146384,563.667978812094,-58.166537672831
4.12080606551687,0.0917164932001678,36.5311885943316,1.58121966798054,13.7435247572596,-3.82679316005595,515.823816552766,18.4223727550778,930.789874881257,-40.641171761617,6.92155696405793,-0.0137113459479281,107.906421697671,-16.9094902222916,111.637888095327,-20.8275410192346,21.1661951698802,-2.27371788343611,636.302935058119,225.429163460833,271.032848967942,-28.947096862847,1902.92479055755,-315.42544014015,190.146715014692,0.565986977635788,819.331871469334,-36.4905137941085,583.938887453088,-61.231734342072
4.02376927377937,1.92007101952479,24.4653004234626,6.40741160393422,4.93119750996598,-0.821070951015551,529.572718586002,14.1894477428483,943.983755265525,-40.2795952908009,4.20727578945943,0.410339982559256,101.929382849019,-15.4090448411402,108.314544558033,-27.3560874957215,23.7134690421012,-3.77879605754235,626.88212876901,224.437116425444,270.464606875401,-28.9773427353999,1858.06109765213,-300.37901994287,188.954778961267,-0.00936177964266742,814.146695497912,-35.9190799734233,562.703021259938,-56.2704290622211
3.48820582633655,-0.554105155031257,35.379770315627,-1.24343423817739,10.2774186158051,0.294725916799116,521.300187428274,11.8500115937809,920.19782258356,-38.342886027688,-0.107866117339612,3.11558811047415,108.109018069271,-13.5205160174713,113.428528672489,-26.8355444497937,26.9935700034284,-6.87833272100198,619.112492263524,226.306386215711,268.33394994411,-28.3237809713753,1883.55809763063,-311.606292127319,187.49028194936,0.757760079234584,813.273464305496,-37.6416745218887,564.982682945847,-58.2200547341063
7.09677798195939,-0.968415553743387,35.778684584478,2.57352695589727,3.02882315729069,-0.51706046352334,502.655338294087,22.9428723871279,928.206452178991,-38.6007192582646,3.02654636476951,-0.475729397799083,98.8073380727872,-13.3935265870412,113.404618023424,-23.4316435602146,20.2547841305828,-2.87322911331329,634.837212160283,226.89529906198,270.88165739568,-29.3936311943963,1911.33831041302,-319.91975258987,189.947697739512,0.385289150856149,817.318587631995,-35.4712702369637,585.830719039246,-62.9431750872842
5.33083988234016,-0.0697667356318111,32.0176593262291,2.58215869094081,14.8121896489536,-1.18817917336031,534.445510060188,11.8271559435989,952.500127767549,-41.5868619303307,6.18778575267762,-1.80330369006967,115.30012295635,-23.5374699487729,114.62659096213,-32.9374190698037,26.1099489824074,-8.62586140101796,640.373688474073,229.092033769345,271.698106942734,-28.7221906321994,1919.34825121458,-320.093485800799,191.933269853795,-0.341919800255806,818.120378621203,-35.9433295577247,570.761729072758,-58.0429924790636
6.93758802917165,-1.37279848002567,32.506626136727,4.08132400934354,2.52510824154647,3.23110764969548,529.873242233006,10.3314973545093,922.185772349198,-37.7642929454982,1.87454997311776,2.07431091218382,104.458482812692,-15.1014663559102,111.760751910498,-26.1830257779772,21.7865340347409,-2.95934996389531,623.173663802524,226.081092634395,268.004226339044,-28.573657655582,1882.91908697645,-308.588368871384,186.526173146126,1.78135963131841,810.67910231034,-35.0870066062054,569.701099311375,-59.4087120535383
0.410049113658834,3.10568062545719,34.3683982679442,1.36185361837151,8.44214597730853,-1.78876111580605,522.164010797489,19.1441897030939,927.062960538952,-38.823771819158,-0.386742458993248,1.73073276229211,99.5694291518993,-10.482391432943,111.221523078684,-20.0035582457115,17.2072951932755,-3.02698711623088,632.850411196411,228.009788865729,267.744643536866,-27.8982179486134,1905.83986880531,-319.62609333789,189.428156385413,1.12928441853883,816.62121447299,-35.747430205559,580.56832915808,-60.9906838047213
1.97038009954922,2.69450972644929,36.63984218832,1.46531534977655,13.9291050490575,-2.80751358674319,539.378036680159,5.05120998846173,946.55654494074,-40.3910292746891,3.53121944104969,2.4600760919479,99.5871110457065,-13.8383346490698,105.292192607345,-20.9334361189678,19.5121064753006,-2.80893673403259,646.182235857309,228.991988935361,272.729375423419,-29.372460567649,1935.76759065738,-328.12474349069,190.862294345044,1.04540763100064,821.933818791911,-36.1524523564537,586.435218766466,-62.8116203928814
-1.46779541276305,6.88243033245372,33.9377065428283,2.44809773426958,3.606498132412,2.16189657025948,515.623950327745,22.4516353429445,914.758622795957,-37.4196802276461,6.03807330451083,-1.39835759236266,100.582033600139,-15.629216167965,111.55336300534,-25.3167406424256,23.076696155238,-7.61830410766269,622.82652682697,225.135416644177,263.45904902982,-26.9151931860426,1866.93000336392,-306.363257412867,186.485238237234,0.526249871507533,810.688917282278,-35.9617602466521,564.595664729524,-58.6019227142774
0.135322390105554,2.6464822246941,24.3465392686314,6.96688838183648,5.51360042570294,1.40112762666389,527.492113829818,10.3385686882207,915.5277110503,-36.9018561810683,5.33640665056624,0.74339655057909,93.8043078637845,-10.4490493353186,114.729181659663,-24.0895631485096,23.7938787889045,-5.15437267515447,624.847304496154,227.349612442534,265.194705998151,-27.8274762831272,1883.5452791639,-312.27567862774,187.75833897036,0.456675346240164,808.969116731994,-33.39674419967,576.419934910282,-60.2941807271699
1.26626128662148,3.93804054119528,34.0251313719709,3.86987015165308,9.09846890986463,-1.07070446062922,527.345420973606,16.0487530209083,939.263152443303,-42.5841094746046,4.21977601711593,2.03408939616299,95.4699290089803,-10.4058867202867,119.590373817006,-26.0324166085089,21.9302172109061,-7.00029784784821,644.170648798563,227.33791627365,268.943311203925,-28.6254730191158,1945.11515714618,-339.082955523466,191.76123820296,0.12092595513038,823.604729704141,-36.9170931638241,599.055085728377,-64.8430671994921
0.883321655465005,1.36712567101051,33.2829374801927,2.80490208565842,7.58334837852406,1.0521867604465,521.369913794851,15.2433296693503,907.442689319474,-35.1715310203389,0.769224381817466,2.74127670450979,103.268020311645,-15.7516750234655,106.241608246883,-21.9328644250547,17.7372262578552,-1.73305084139343,617.309215357741,225.362481719555,261.601954706246,-25.968773749009,1873.28420812412,-313.185134838589,185.421488225993,0.999985282581795,804.192662429162,-33.8828786391985,564.407733225059,-58.1682174269216
3.36721681827824,-0.125990384730919,33.9486730422773,5.68316612831004,-0.675885673251029,4.11191248876052,534.214484390208,2.36312013640442,907.198794783307,-35.1061610626418,4.26509265047612,0.021695056676781,111.919430689399,-20.4655926355511,113.361195658338,-26.2869604279184,25.4658768488764,-8.41822548414203,621.733574481011,227.792782342901,259.640768493663,-26.347386090679,1868.12596407574,-308.53258447854,184.246440705234,2.39405847379633,810.132161145954,-37.060292328836,573.693725180997,-60.9178055957931
