0.365759261763744,3.85037385304884,20.7677196977135,8.48751033153787,7.83766273852395,-0.31529537317659,441.205341823674,23.4559119218924,773.518199084521,-16.5939385141385,0.273354408694606,5.11061973388771,99.7884329013579,-15.5511455494457,100.591238536312,-19.783978325785,19.6896617773561,-3.48399869877412,564.180466515607,216.856359190688,224.531859390362,-19.2468992972316,1698.38333068893,-271.638718018582,159.405573290846,4.7552703523808,757.231573441817,-30.5245669335775,549.866437030695,-58.8830659868619
2.97247228299136,2.88440980123994,17.0628019192686,9.48735918823225,6.63848774731691,-1.64067730071823,458.163449144233,16.4414485506544,797.372558929751,-20.4019532724065,1.87654897318483,2.90022419423306,96.7944282857521,-15.6192770419818,93.3229721231843,-19.9736282577808,16.5590459290964,-1.94946924630152,586.431758745905,214.434538944175,229.404266359798,-18.963288105389,1730.99806233842,-274.356811153624,163.494568343174,3.60026957905147,767.309337655913,-32.1544029378208,553.828454070843,-57.7838847565717
-1.15148839733226,3.83340437446128,34.8112542173946,-1.58769972978923,2.32162982373662,4.41548379981078,450.841346746002,15.1731591894041,774.108523471,-17.4360885768401,1.61765357112538,4.19520790215642,94.5529707397973,-15.2106625913363,101.994822761236,-23.784464264171,23.3315531137171,-5.45200616372153,564.657304673548,214.327917196501,224.23291849212,-18.9879478238468,1699.82335502512,-281.553830661537,158.881206761727,5.43354320547144,753.552926150215,-27.3507062925839,542.459257792285,-57.4019946172619
3.34127214138074,0.893206248139252,26.9618337496486,5.5471958503227,4.22911834755418,1.79074670093731,464.090760166976,12.4355329947016,784.908224712932,-17.8556046552443,5.61658547814857,-0.825776232731407,90.3141534328009,-8.77802900778345,91.103458619763,-17.1814605044422,25.2551902056333,-6.75249921146067,573.32972549438,216.502263512708,229.723131862145,-21.3536899051351,1727.51782106225,-273.668803368828,160.838688756191,5.11770894344392,760.738138783552,-30.7901155416321,555.708319370303,-59.7042014266449
-0.824331276362367,6.25118331418316,39.5401072163998,-3.27107782677833,6.03152022019556,-1.24477061573356,467.517656036889,8.36660260093117,812.926532789301,-22.9710818253581,5.95513777512682,0.183607814713661,98.2118010002761,-15.5235370176387,99.7772304877044,-20.1941453217874,18.7886408680403,-6.21141268305045,580.936713301956,217.518412628677,230.972032814993,-20.7706241409324,1717.08824211951,-281.495854694115,161.954132033304,5.11143259668807,758.57895366204,-28.4562347021853,543.783247893578,-58.5306863376149
4.64545273327572,-1.49140263310077,21.5082311941581,9.24011765954816,13.9930224711606,-1.80436615612891,448.176394662906,16.4234018191997,777.587783750655,-16.2156027879028,4.80250744165082,-0.640388914940798,93.0376839684496,-14.3851329983876,103.376898567023,-24.2392937965273,20.1443652056488,-1.39375350498323,563.199358866404,215.249548910778,225.93029883213,-19.0311635192501,1709.50729515516,-279.940383135124,159.550465315102,4.5343413483787,750.720917398806,-27.791876044116,540.787302969142,-56.1489012638535
4.2911929146036,-0.520133112324387,30.6415250194867,1.6430814560264,-0.380619016492028,3.5551326177621,443.482757718261,27.9667761870151,790.827768706161,-17.8400058552231,1.74715772321812,3.10396628556082,100.390404486376,-20.5194501994902,98.2345241675471,-20.7556792188258,16.3489011459299,-1.18715497233527,577.270658732188,215.336196428972,229.577449315005,-20.1487827000736,1736.11805137395,-278.652710193472,163.342377925372,3.9838765137237,764.94660745408,-32.2338569368438,558.398402608028,-60.7682268407349
1.90534058843525,4.90138675695803,25.5054878749914,-0.175815048093535,10.4538890149207,0.187970463127481,461.561899448789,21.1736900245923,812.040274253166,-20.1961777547152,7.7316506112789,-0.934442230610648,93.4560191526074,-14.9558011190746,100.350003264398,-18.3308607656492,18.9379031615804,-3.28013751778952,577.03672220667,214.396757341194,229.314946036672,-20.5170104162128,1713.67352964411,-277.916603545124,159.598893629501,5.20168093784269,756.849291976399,-28.2690093542639,537.578534215715,-55.9152246939028
6.17985610624491,0.871433702117648,20.7446870666343,8.70119822316117,5.75192615263136,1.1059231027206,450.94238333883,23.0720952092837,781.090483571566,-17.491171490065,1.19455594765426,2.41396466234258,95.6103028745819,-15.903930807161,105.878289762372,-27.1975206451432,20.5533981182897,-1.3444713399903,567.832050953654,213.812039421219,224.571037794321,-18.5358757407311,1704.2635212362,-280.034276787186,157.765523704881,5.73974148296534,755.152922465776,-29.2525790687943,543.897202415657,-58.2311438981304
1.73715267630464,1.28629726372699,28.6776713774749,3.47892005656389,5.2300988616619,2.55920871050369,449.257626095258,22.1390133323405,793.202268591729,-19.2168409233676,-1.76042869400233,3.83188567066628,89.6497847663205,-13.3713476013689,106.118528553198,-24.7526082632567,11.4649667693143,1.70320081579187,581.55109241829,216.156216312748,228.761621224455,-20.4945352043305,1746.29431849882,-284.372966143192,163.233666403139,3.95292172677729,764.470126029511,-30.6025365818144,561.795242212636,-62.5255150723432
-2.44732489970151,4.37016364632805,27.4499607648375,2.06675184260047,4.70851267357359,-1.44804041793509,466.173624839499,22.1706835249261,804.669738225463,-22.1379250193312,11.2825866599218,-3.18584224198332,91.3437100948899,-11.8792440840474,98.7331329213843,-21.6298939511579,22.4202198910651,-3.08873178931611,570.447729195379,213.92388676281,226.031496555866,-18.9540907116927,1698.11419817653,-269.708786752788,159.528331674385,4.95228051625262,753.216594805865,-27.8808139415024,540.679249005358,-57.5463520395994
1.05780567630304,2.92931253315091,24.1434314600958,6.63668681414235,3.08218978914271,1.01380867668655,456.439272134016,19.5829435054689,782.711405174532,-17.0525002630113,5.67910067200382,-0.696614626963282,98.366084914271,-16.7874051883023,100.89589165963,-20.4058673554056,16.5672451129961,-2.62012275568518,567.291693780737,216.575584062267,225.479260357616,-19.3696828135553,1732.21326604167,-289.531707154182,161.659654003456,4.17755261096491,759.068223795335,-31.2698363624586,545.894465730798,-57.8984708049662
1.08485145329386,0.173200039334914,26.5913904499788,3.25985089501145,7.52855664857762,0.105412317050661,457.906885892628,17.1013800597485,800.290383574802,-21.105391560108,7.69449049479521,0.612747713836167,96.5542444256933,-14.8791202658668,103.720620897113,-25.5265354911857,17.9431708193807,-3.65869039702559,583.823064826059,218.034864905727,229.672750820788,-19.6330051266016,1769.70930552867,-296.979021900161,164.114941443098,3.99507713282692,769.196555127709,-30.1849993003862,560.935226640515,-60.5666924441224
4.41731076021251,2.09536224575667,31.3459884237496,-2.00365603531286,3.95597845595838,0.957010336433271,466.463533978868,16.1038306247033,789.759312624794,-19.1973757564409,1.53093019529753,0.386353144856187,94.9322965340776,-18.9294010836437,98.328812744666,-15.3341687469273,19.5152770695766,-5.7568609326471,568.228896090734,214.617194514827,225.547402999097,-19.2096435056374,1705.72099529003,-277.333152108095,160.284841753751,5.05219612093344,757.590090309158,-29.5330307116547,538.152328997625,-56.0184750864107
2.27808448241885,3.39470110093585,27.1688393060409,3.79097194193081,7.60036865926577,-0.668465068900305,456.430907336673,17.9719287420099,789.667937396038,-18.9181826210231,-0.566484529371548,2.6574326685699,91.9905533872569,-12.4311785936897,100.353863807214,-15.7836851604175,14.5378862402259,0.0187860192065244,577.872393525409,214.35401244648,226.334362095516,-18.7983274932033,1735.69506436797,-288.102235569076,160.961812158724,4.91156348723327,758.636784891607,-29.4220083177858,550.03012160811,-58.8882461995315
6.54945924055472,-1.0255968703573,27.3985123740695,1.80424659496587,4.72632289178095,3.19173564030375,465.06975059259,17.1667491335987,808.8309723761,-20.5311365524927,2.15738243468655,1.98243399025283,103.439551155897,-19.3883042070839,105.026111107375,-19.6993531519735,12.2083715727852,-0.365125680781748,593.634981170421,216.96455120684,233.513162047847,-21.240868177158,1767.18351253919,-293.232630285896,164.403962398349,4.73774110265826,769.778272894356,-29.7839594474799,572.447803301581,-63.174816671591
5.99957488838914,-1.10391508287946,29.8352172531552,3.91294646617277,4.20749480426432,0.0506095329108101,454.355407491322,20.8383133669596,783.349688428729,-16.3860493098286,5.62739647995739,0.574960373296659,103.559985949236,-17.3733863577752,101.035800803199,-22.0161799965921,24.2972956681441,-4.37441431709331,574.878541617663,212.365605658823,226.012812120436,-18.9456563427638,1720.12594671437,-278.58497180712,159.249099943333,5.5661528917362,753.920270033354,-26.0097889564356,541.687172757356,-57.8335365330362
2.58399045815389,0.296913414319324,25.837920777636,3.32272744476526,3.67471382738006,4.09591495432133,472.227406568285,10.3256550316188,792.389137319527,-19.732438128019,2.86558920608531,1.21076615379586,83.3596916589524,-6.03781671855779,106.070962931531,-23.2118755025473,23.6417795017914,-6.8362262957986,578.942545954807,217.359851776693,228.267677054468,-20.2018821004991,1729.02113004431,-281.712149670502,162.243132805613,5.30226207729227,761.453007468644,-29.6349670546759,548.007281580016,-58.0234172786998
5.20047933849518,0.0688985803433082,23.9088861279465,4.05549391368364,6.65212655527844,-0.588274124635989,467.081702108702,15.5821638068248,813.349622988533,-21.0440962841484,8.29772849116442,-2.79450828447778,89.7549980657875,-6.65815565679207,106.319608452808,-24.0564241851127,25.3277954919528,-6.53027128383159,596.979754103549,217.016550024432,235.006316881873,-21.4771750298103,1764.29502315359,-285.340746745231,167.685598199876,3.71907678198493,774.689672601801,-32.6288537126259,571.37950705846,-62.2012857532439
6.26239849363763,1.19220767677031,25.7961204584895,6.05558478810704,2.70074323098547,5.80295933897779,454.943296595362,20.4634970648162,786.644464504331,-16.2701812738515,2.02930451058677,2.14583547590292,89.3366799394515,-15.3207370755497,108.463833355023,-20.5748881204521,19.7482395678286,-1.92561774747238,571.996438789075,219.702783414509,229.596854897883,-20.9916170728025,1726.52596571583,-273.004019284246,162.203541381964,5.17896576814154,760.484188864142,-29.5098313137263,543.419494182316,-58.1094941102776
9.56507412329719,0.379943595756611,15.9112652748852,8.29787065074374,7.565951566302,2.79969089800419,475.203426437704,11.0240331266725,796.857582088851,-18.6398251989034,3.98738266479695,-0.440813464963936,95.4605409956993,-18.9403858737371,108.768439034911,-25.8412839329847,19.8412617602368,-3.82146521879024,586.018270513465,217.249308584108,228.787005871237,-20.2833136470859,1748.49830039319,-290.133476506616,165.543278240948,4.02658238437965,765.243279173589,-30.2394732812683,552.810454416847,-59.7745665151119
1.16879100643413,3.39028758164614,35.7164423679162,0.216306460977122,8.86435856521341,-0.838545777108558,454.296897377446,26.8488432360761,822.520112509727,-22.80377447707,3.88929432141687,1.71508326959511,88.1955782213146,-5.66804889410434,107.371686833,-26.0965034122808,17.7873668604348,-2.43966814430912,599.461617059476,219.747650448407,234.439139106141,-20.3085898128424,1791.51479605387,-300.106427222006,169.738101974603,3.09490836673048,775.959311937475,-31.8551126553201,560.595139638674,-60.9258409106829
5.37565821441933,-0.76493998672798,25.7387272836707,4.7298084944001,7.14036308483469,1.92194918998449,467.796528503269,12.5367807258571,794.334942873356,-17.0837003170242,2.13430010110063,3.91140955291486,93.6179469993998,-15.0606164717735,109.390897091219,-27.5779648773932,22.6776088068275,-4.86731336460935,580.673206469696,217.114027187249,230.882140789509,-20.3182248841208,1730.40196825759,-272.747747868605,164.606166966341,4.65758514535213,768.563691586271,-31.2374422360496,543.176909195429,-56.7889362311233
8.06637406373362,-1.58113830004753,26.8020785256903,1.64515967242251,6.95541646255054,0.105737280424118,484.257742870177,4.45891887206144,808.572571307649,-19.9073159753997,-0.736202030115467,3.41432398013753,103.379133583398,-17.8191476510239,106.560361710376,-21.5145338870811,20.0115810678401,-4.0887973383705,590.928597230355,219.214828824589,230.704499381497,-19.5311513659509,1770.46484905699,-284.643838043847,166.952949539715,4.06669666492918,771.77901685652,-30.7026660909225,554.74439496857,-60.2739126539437
-0.79342144011885,4.2113447092546,28.2620419437539,5.81078903825839,2.02122944817802,0.190802675290285,480.683596072414,17.9801425521602,830.0821061132,-25.0172490807538,2.49124643057975,1.98771135111409,93.2304633072805,-12.6222291975328,101.139172386874,-22.5141268818571,16.5305638010745,-1.64233274520761,603.260474586758,220.321917453212,235.215701718409,-20.7374670389331,1784.85433981557,-299.400975311821,168.888461603599,3.11878496880512,774.311563936978,-30.6088630945744,546.151619798538,-58.7144093556143
4.42495540800033,2.86588099700889,34.5970899971264,0.511043122575137,7.39838367250405,1.17578229655072,460.739963539678,26.5036589774887,802.098164885282,-19.0384866177326,4.3094791658217,-1.18147095343576,98.5044522826869,-12.9195309994996,102.503358720213,-17.9567660458202,22.0956062494774,-5.28328925983331,582.780007176105,220.098347922526,230.165103008777,-20.3349826614647,1729.45300262094,-272.921631262192,165.004688742946,4.04748154600164,766.156236300585,-29.9013717038847,538.689223481715,-55.9729510777505
2.55258340981993,2.13842125241908,36.9799944531166,-2.23190980591862,6.10895731968467,1.11798799114657,471.709915499008,14.7288368578104,808.595967528144,-18.1103878731124,5.25844136756437,0.695852624203908,84.5888006730745,-7.49204101940376,103.768280091403,-24.841671033781,23.3947122811501,-5.73097443318281,594.981745703563,219.579407046693,232.722181208156,-20.5732518713511,1763.15207385109,-285.478842430443,169.261513791551,3.04861545773763,771.168280534434,-30.2974702742626,550.690262845773,-58.084684098954
1.71959025513326,1.49326698015337,40.9627887456364,-3.37137173201257,4.76285056520201,1.45052727153364,482.967210945103,11.2319449178584,831.623179779495,-22.6129436399214,-0.197824994513522,4.11141133103487,90.3253335698552,-13.6544616363707,112.977736461532,-27.4217050317788,16.6704350178129,-1.45058300370394,593.51553893727,221.110000819152,234.257681907615,-21.3873351420695,1755.19054474629,-283.336054825026,168.538528842354,3.03301728625666,767.320141736303,-28.2697479798849,534.266163909111,-54.7324180724193
4.40496734599641,0.974882188907237,37.1680064917467,3.13777815007224,8.94180879467312,-1.23863415604748,468.897377625046,13.1315326463554,801.525427980184,-18.4375092343361,3.40820519633032,-0.239431144807658,90.6730988109448,-12.8286705592286,108.136668154979,-24.9537005145186,23.0807212488036,-4.98708420573184,575.906841470564,221.944425237291,229.697730817865,-20.1579351159485,1736.76850883023,-284.601988144191,163.961146568231,4.72712451029209,764.936219396039,-30.1149016809964,534.582713195131,-55.2527281271211
4.07218019605712,0.975840762874965,30.7533582539542,2.92177608978294,10.7495564598403,-2.4828266814284,472.241293978758,18.5460821406439,807.276129628385,-18.1041730564073,1.16479376617552,2.00831685502382,90.3963111446953,-9.59225479446953,95.9208909310859,-17.1329245119344,17.0302930445026,-1.93990636823801,593.274528067329,219.360354730431,231.555537813878,-20.6097845930953,1766.07572324708,-296.325950424596,168.681942895399,3.60895486486227,774.318919779836,-33.4287432091569,546.100258008194,-55.2522141264814
4.32829123186654,1.66767350833088,29.9805264218169,0.380639704333001,4.91500504735762,7.09441160048679,468.85880557258,22.5477956315259,827.565869001442,-22.5922506697382,1.93839764981167,1.09117833017113,99.0689061647151,-15.1314162482686,107.678197415694,-27.3975664143047,17.998335996317,-3.75627378743234,582.256073370027,220.756206434221,231.122876194989,-20.583605674517,1739.23887273719,-279.014969607205,165.517069974912,3.49629501137956,763.977117871687,-29.7793529357504,529.743589394533,-53.5928569518715
5.23620162396051,-0.449038196544856,24.7753125793649,4.1418802690281,8.12859467847824,-1.85887864871967,457.542773921363,25.4853490816393,798.793162552785,-16.6590660740796,-0.495626444395875,3.17429610421276,91.1344753294576,-12.1752916344088,100.02265133901,-19.3231101172751,13.6945536093063,-1.73624146069143,575.602101073147,220.218136040097,228.400395523133,-19.2798821957907,1739.28611164938,-282.418058955148,163.286718885075,4.63660310581553,759.218219970801,-27.5792048387523,532.917374387192,-52.8805379604129
4.77786000250173,0.00278779596950129,29.5337543658651,5.93359746456743,2.19087898845591,1.7547287939797,469.244427253275,16.1639667335298,809.296821844861,-17.0472217723961,3.44597967005555,-0.185872656248458,101.627921359776,-21.1146801112364,109.21275990199,-25.3259610277062,20.2341729736559,-5.23859300875331,589.936306270295,221.54182383244,231.717084979286,-20.4012701527472,1767.83763289044,-292.81745442198,166.750555617379,4.90977556175326,773.247677022654,-31.2895419656282,551.636986789493,-56.9297433939309
2.9037506195976,4.66983494367036,30.9451220950581,6.19334947197717,4.86041369789469,2.20551689789543,480.219923718099,12.5481350941094,826.610376763725,-21.2454786492599,-3.36600602230623,7.34039887908795,93.0264085573527,-11.2863258125427,95.2756717854827,-16.1839026692278,17.8864793705875,-4.51856390137844,582.529763443806,219.105799186495,231.511836453895,-20.1225900826665,1745.43117619512,-281.94750746828,165.077120437515,4.40154261827568,763.875470775006,-29.746541028491,526.130437806387,-50.2506022871305
0.41808227170239,2.50924955756626,32.1468416246956,-0.75447407774943,1.19560886036934,2.26626737289982,448.441203945502,24.0642539140494,802.369561832664,-16.9822212735959,3.76337368186307,-0.0964632634549171,86.9297122732406,-7.63504778816255,103.939797722387,-23.0863557278027,20.3464824436852,-5.07693788632952,579.718323640115,219.803287686309,229.209317403909,-20.032382153057,1737.90904272047,-281.756786960303,164.618828172842,4.66488525125141,762.422816088154,-29.0709091139456,534.192232387227,-54.3655952336405
-0.813076874689838,2.90296330631318,26.954399528024,3.02320607180729,5.01939844786936,1.01424626683589,463.65110881107,21.5376795121435,810.03948157276,-18.6259248191541,0.934871158628528,3.57132690894709,89.2157870661599,-12.1251842827701,104.323469176737,-18.5350158447989,24.8867805751819,-9.14357834816907,591.645414401801,221.490466046484,233.989282164749,-20.845837560786,1779.91027672879,-293.839703543714,167.293355299743,4.00942688437116,771.718416062124,-32.1893463465952,550.883820007284,-56.8547641788322
6.62990004856769,0.169545900982759,31.8180862997283,2.46866509262649,5.36599146957645,1.40934212967954,471.970644065005,10.5741673079641,821.997392301143,-21.4009147787656,4.81910047079486,3.91482915789055,91.2966893528402,-12.9950582138938,105.752044168583,-23.1097543368296,15.0668329742714,1.31079612040224,579.956017227237,221.544634719353,231.463583662589,-19.9642329909325,1736.28902899523,-281.833082754544,166.166262214363,3.64091354765025,766.692931201204,-31.9507134746218,529.380166325034,-51.2859910122451
9.34369512298792,-2.7957811399273,34.7111312273034,-3.23622951293469,13.6832646053034,-2.29100424659798,449.93408222107,24.3228534281785,802.189958363323,-18.0286452966864,-1.52745166125322,3.51938799695979,91.5884918886428,-12.9236244950112,94.6759663822652,-15.9918104912254,19.1465790967679,-3.91453260967864,577.094428365315,222.556961639886,228.215650509789,-18.132286781029,1734.14422395066,-280.044598977843,165.072634061931,4.74461882800103,763.51199264265,-30.3473797945595,537.304944550327,-55.3043785665176
4.8664691342861,1.49144478316176,32.785829003064,-1.42439738638617,8.21104272225057,0.908947483014029,471.08637370648,11.4909178375845,813.508303152565,-17.0385300814335,5.61785013333421,0.920053121265636,88.3929252282032,-12.2450430201597,108.627288280412,-23.0697502545364,23.5322897412995,-1.96409546593277,591.450046505787,224.780540058242,235.761420059552,-21.4241836218189,1776.68025545189,-295.534182260126,168.495355608754,4.39159521369928,772.328350867553,-30.8916291887341,552.171091383195,-55.4595587863254
6.12173392322115,0.5282440530934,30.2991822161096,7.28216262951205,-2.98760961626647,5.52263945189556,470.323315301173,12.2090115812096,826.572013684247,-20.4540145299159,2.03253549208481,2.86230857040073,101.062444504685,-18.1064609749335,93.9237156159229,-20.4156134357069,23.0074847573701,-6.85313296476527,583.193183127162,219.994974959174,233.827778319603,-20.7059896416657,1754.5748431343,-289.116502072913,167.125439886702,3.55631163543776,765.167972258429,-29.4673678496447,528.978622482614,-53.207223517236
3.59071971483826,1.85294432803577,27.7424626968887,4.396444108956,2.85971452466648,4.50458381664419,468.227627296135,15.2149934155596,802.323574675736,-17.2158387229582,-0.436045418707953,3.96147681165987,88.7821421706161,-10.4379148530227,102.891382782097,-24.477801463834,17.3404751491842,-0.0310524676662897,581.467037361819,219.583094546413,230.153930490538,-19.5163557175273,1740.69306632663,-288.040157976717,165.338848645245,4.39259271675408,758.888122970748,-29.2708467412723,535.904330815676,-54.6743794046274
7.1325300172097,-1.25779611764634,26.0011582564245,3.64718741447656,3.19252226468395,1.0753760923892,450.61029391925,26.6068343941701,812.527219525006,-18.5305880639683,3.37825246712452,1.71359860428617,100.792603985386,-15.5691683270262,104.543193122921,-22.3322214081983,20.9633627866952,-5.04978031323884,595.596139690958,221.334002793978,232.844487064582,-19.403573716154,1761.0156495013,-283.849558279206,169.072598512232,3.90568542510366,767.534248846257,-29.6373787151143,552.039008848971,-57.2145061447981
2.16403653338832,4.07131563485447,35.4693384595065,-1.15268415706774,3.45414822353812,1.28317204065632,465.364835550902,18.6690399848408,830.481765736349,-22.308033165987,-0.692124318312369,2.13439709609834,90.5307169757751,-16.1680134826935,97.9552942552909,-22.4828278510327,21.5888237041106,-3.83320078822321,587.019326543659,219.481006100302,234.981235285149,-21.2298550036964,1742.97408830412,-284.887723759101,165.292538060196,4.66221968746915,759.809975924506,-29.53989160162,529.012847066722,-52.8728699846469
3.66572129315794,-0.744724273604318,34.5830530519022,-1.5794533649035,3.31193870835381,0.937694051224008,464.377369380293,19.5699986853596,803.354836002089,-17.9752419899592,4.56033328361048,-0.575646902718754,83.636184216159,-8.30901770705671,102.77573156805,-19.7145961262675,14.4028043904268,-2.34855151469359,577.528073566242,221.220382049682,232.06891757631,-21.9758388847018,1732.37138935444,-282.676399068647,165.979566003763,3.27681808323656,753.824271262774,-26.9145223322592,532.407385415078,-53.0073784693928
-2.93778169051892,7.42436363761391,35.526513673416,-1.19625825296815,2.51039033310409,1.48222117142784,467.654251193283,5.23280113699272,809.696828922971,-18.3889863296711,4.01338419588991,0.850479105013916,91.5590206677765,-12.9886898876987,92.3723774871372,-16.462357704842,18.285801990557,-4.05814661121623,589.779596562803,223.075218948594,234.498298361598,-21.2421985617541,1764.97980955859,-291.293121189312,166.183835094855,4.8765901488409,764.454959721774,-30.193298667162,548.630304231783,-55.8290507733153
2.39005543507295,0.88194085119275,30.2112793554592,5.16300239316988,15.7497625708733,-3.20314063100063,472.081705830153,18.8531052932585,832.273480007418,-21.1545505884675,1.79664974257367,2.45574225470536,105.838583750246,-18.5056870796487,100.963102913216,-23.2755819408866,26.5760716677418,-5.24450943421832,592.925089998154,221.22834354808,235.06121476501,-20.7331893513078,1736.96173241893,-281.649467524677,165.886471598491,4.26236137549318,760.393705101152,-31.1117652914102,529.127792202816,-49.3025041204377
1.41572935956719,2.96224510096654,31.5561613611197,2.70472754778714,11.7212240992734,-2.51458267334794,454.952840063333,17.1538574583993,800.963149406701,-17.8758842677245,4.04623466508397,1.72490848699245,97.0861333880181,-17.4035317497859,110.649770493887,-28.5590012196662,10.7811594631061,2.75714064411129,578.190628290424,221.824881698783,230.752635687094,-20.4696800492476,1725.60156359439,-272.694540610184,164.129982104208,4.95279079762765,754.109753713411,-29.1656328665208,528.484230793664,-52.2994159189119
2.0082710691043,2.75759318466828,19.4478423331822,7.07543059967566,1.39421054331597,3.58760176152005,456.479797531818,22.1473709954668,809.970005904232,-18.5582672155941,4.91739854025426,-1.52943660574752,90.4081115146218,-8.35128244153707,103.49441712722,-23.5820602293279,19.6248856588826,-3.06258209529604,590.709186105428,221.370947593008,236.047291343541,-22.0913889627601,1758.63233350031,-287.086799551916,166.40528785988,4.85006191012669,760.027757862126,-29.3307996586008,544.408774824995,-53.7147418093501
8.98509476808331,-1.0103852306037,21.1683647821975,7.09930685472323,3.32158727881555,0.100082827080678,461.074226335649,20.9265787148496,837.560089726006,-24.89197852035,5.44495103160778,-0.716810051946959,92.0069423439765,-16.5237328711755,94.9602974121466,-15.569682297521,17.0666979957264,-3.99396519698383,591.545941610161,224.326137244095,238.183647750205,-21.6035124789679,1764.10844909598,-292.378284830402,166.913027531362,3.28940616538945,759.607933904999,-29.5977157480272,532.102125200495,-53.5930196045184
4.78776534841568,-0.52414824555375,35.9102042239041,0.435482190594865,5.72781115096209,2.28098658210215,446.210628683396,27.7881589274709,803.997209997897,-18.0626396051456,4.41647394455147,0.684402912708457,98.3179085811377,-14.3330188441802,91.1480222883708,-12.0868284506846,22.2493496665846,-5.49130895756026,579.153728692954,221.543586328609,232.880692571534,-20.1024863663736,1722.78182046823,-278.791941805702,164.550553922145,4.45780279514674,748.882953028942,-27.5855209752559,528.100177310186,-50.0265868732043
3.72230425566408,-1.11995159479441,30.5788235196056,4.95267264770867,4.13053606264483,1.68593128313748,448.993333058421,25.8377785774389,814.8422512411,-19.405895903841,-0.980648765173161,5.59759679699605,95.139929200308,-11.8756141163032,97.7314200287176,-18.1522624262779,22.3032869714314,-2.52608875018537,593.408423723389,221.068672138098,236.94488736912,-22.1006845313966,1729.86327259629,-273.634022703444,167.371319010635,4.1352937787574,760.367718804587,-30.1557592828681,543.735085362007,-53.3712002297698
0.358910121594785,2.48742625018088,30.943004723941,0.858569930879818,5.95890141201737,-0.242471625056681,464.468642168025,21.3189345067166,840.057080974004,-23.2548276214404,3.9300965716282,-0.274574139071103,92.7482640580761,-14.4609426920564,100.993436993748,-20.0828623934185,27.945925914026,-9.16365190402457,605.389804640392,222.170076007651,244.314773230433,-24.4263470358352,1784.20864121631,-301.233594768242,169.326148167529,3.42071880087501,767.488586475163,-31.6500958504782,543.067730072822,-54.4756740675362
2.19866115874918,1.6302360960934,21.7968322898264,10.2626799829223,11.8177167155945,-3.32784838484329,439.365132797218,31.7412350872455,806.357251956157,-19.9579754704081,3.23747840539956,1.8687788413102,94.81614262144,-16.6611156848007,105.180979535337,-25.5410864457895,18.4838938228719,-1.90280406048218,581.211821890675,219.106193457761,236.162688611163,-22.3637045569527,1733.76144569193,-286.648643010636,165.766972426616,3.68464683047066,747.950768889951,-28.1375042302317,526.282597511715,-51.0397253101813
-0.383955574529799,4.75842734686601,33.3725524583719,8.27132323792369,7.71680005827748,-1.91022648753754,459.329327234697,16.1497133243576,811.576917876681,-19.171141448132,-1.44719320748939,5.32224782683629,94.326917730947,-12.1681396736237,99.4376033599981,-20.2424866326329,17.6134787714907,-0.126957271186448,590.021553312959,218.811097229976,238.383596271771,-22.9545971470243,1742.19436436836,-288.459979672912,166.077288293522,3.81068039394139,752.659580109615,-27.79212944322,539.324888401839,-53.4199628993499
2.49605830620396,1.83523337095592,26.5774156536921,2.07286851565386,4.62119834180798,1.42860470755302,472.912630975386,18.0586954590913,836.846628451969,-24.0970371247616,-1.59838651522743,3.71471555950029,101.776163440175,-17.6858108894799,91.1782587335949,-17.1361544824819,15.6596965211533,-0.442089028505575,604.411748607158,221.571511695278,244.342402096985,-24.2071561849015,1787.04063425588,-296.736556912858,170.14449500238,3.77951875467922,767.787612572714,-32.6983366753529,557.72664436195,-57.7362129105715
1.96184927165649,1.44409100254276,30.4156186957208,2.2992780744142,7.77927835039497,-1.46536522606908,446.866703663937,26.7855871593221,810.020531712379,-20.5065079589023,2.0680439184123,-0.297581961444442,86.3406445923376,-9.23408852470332,102.611257377821,-21.1718303583032,16.8450738163105,2.69151240814132,580.842832547473,218.825543481837,236.714581133196,-22.4265486192875,1711.12037502897,-270.048869102909,165.372081250623,3.66116726611916,748.441278532609,-28.6305066592694,527.468285995434,-50.8583047866031
6.92152515760565,-1.7138572848375,28.0824823164423,3.39957804510755,2.73959380786462,0.963886461705794,447.611516926416,31.2289387464821,815.141197552333,-22.2554922935702,3.08741711219849,1.41534636263673,93.6772000429093,-11.1643233955614,97.808433711222,-19.0534626545652,16.1831853740879,0.324314061613927,585.406490964462,221.248404484519,236.833423669975,-21.8464036737115,1745.89194591407,-291.320142053254,165.614588526555,4.11314711045391,753.231608347802,-29.486137405262,538.416052445862,-53.3015385226227
11.0223428483923,-3.49797985441532,33.2687958534084,0.75377762900936,6.15205601538838,3.74188979365005,459.708105804287,18.30914822026,838.819110170588,-25.1429188203643,-3.00255862053117,5.38367670921569,94.7598245539537,-11.3364593398671,108.721712600274,-25.6904912610532,22.3227751321368,-5.90765537769499,603.396334493537,220.742904550618,244.25957609638,-24.282817328145,1773.95906986477,-292.448105567581,170.399971836318,3.36918974286441,764.729392955694,-30.8512415220543,552.098714793203,-55.1395346777933
2.14750798069686,0.94024956863159,23.2863682402769,10.1129332087234,8.64187900415031,-0.784673013669312,449.713542926623,26.6358498454736,815.8020058893,-22.5184794075917,4.82793732528653,-0.870769673439774,97.6196465625458,-18.2548004943227,95.5165679568413,-16.0012435539521,15.9080694305295,-1.64735888462042,578.80657232558,219.34498823962,238.395391141504,-22.4197645026086,1734.40772676508,-285.05121041682,165.407975570412,3.96932516108139,750.309036340357,-28.4077781308458,528.225242314752,-51.6685340465898
3.94281453415176,-0.333614786782061,26.981350708601,5.30935540576974,6.41795188419543,2.00276490692706,453.072055727379,23.6158833872023,819.741903944179,-21.748085624566,1.69028218362362,1.4237927484417,91.0605846407452,-8.60905241420653,100.283060349763,-19.6973218096994,24.8756210404948,-6.68897332485459,587.868353815152,219.648615286966,238.636680847262,-22.9295474685716,1740.34332262232,-283.326558365931,167.829274448504,3.21450462220624,751.930881179946,-27.7867834866912,536.224944613155,-52.57060905289
0.807232265651879,3.99435211622807,21.9135245995733,5.55934655748587,-1.40779464684351,6.52946118943956,463.676150943012,23.4959317084818,843.397476879864,-26.6629057141924,1.27466087624935,1.77152364232759,99.4393699624779,-18.5274886991857,100.355709798367,-24.6787712892326,20.3995569578655,-1.55698608429778,605.700189333632,220.382769651158,245.007584641459,-23.9982221037627,1785.44503554524,-291.875945135888,171.812523213396,2.43271725377954,766.795554900217,-30.4611254096185,553.459444335244,-56.8872298299064
3.47864403967779,0.633047007165521,32.8083007856145,3.35756546352164,6.83305580539451,3.23531132513316,457.191301000552,17.380263956458,814.988493384595,-22.6453505021094,-1.30105579233588,4.25646745058928,96.3824641107971,-15.9618366044885,103.262784563743,-22.5400500812351,23.9177203539598,-5.01589663329994,582.026093097629,218.638015961688,239.705032541695,-23.0621003046966,1718.93611571049,-275.066988902487,167.615333733093,2.82062653396893,751.371837046315,-30.3416548316121,530.336474260718,-52.9451368754809
1.0474991433892,0.121823873863153,26.1775601300561,-0.686414647180207,7.09759737914508,2.29321100624284,448.409532344994,22.1575929041218,823.559991809768,-24.3006078862612,5.07686303302816,-0.0705316510326469,97.8988159326223,-16.6994996012157,94.8483259105528,-17.7680336261401,12.6392303140916,-0.516680418145101,588.766099180125,218.328690522103,241.11467186283,-23.9201947161476,1725.25977141197,-268.19891010284,169.2969453786,3.2939457289597,752.290264694067,-30.3743282977662,532.768272300336,-51.1834661601957
1.24813452145606,3.70767006268155,34.3742327554386,-2.29849063936254,4.37825007660998,3.45014656019922,462.179762192945,20.9098491980715,841.072148412481,-26.636648774822,0.515867251732441,2.24111703642545,93.6278673225155,-12.9592536931718,109.328438469629,-26.2982508736748,23.2561356480896,-4.76791968313537,607.46426316037,220.623518066225,245.26011057871,-24.4366175044588,1767.99834110344,-293.225120606845,172.21122564559,3.01159688419653,763.729676246127,-30.3127629648027,556.227166962971,-56.6254369680726
-0.305535585473265,4.12805097662949,30.0129917846819,0.360487488413237,12.5478055906339,-2.26467156252612,451.828484764878,32.0445940235366,810.462058897605,-22.1727656749607,7.52118771547903,-0.227516192570235,103.662117110793,-18.0469688219886,98.4461889309463,-23.8569237427362,23.0373971885175,-4.70319220968652,575.067861556062,220.095782160003,238.590463044381,-23.3320756822924,1704.52569893714,-271.864978023959,166.874531781141,2.53884984362449,746.73251473115,-29.7994468293575,520.795283372114,-49.5348088797921
8.76329220045146,-2.03102674943563,27.1273930711168,6.88909898083539,10.5811483159072,1.9960544359265,459.037349467274,16.943259762424,813.877162898856,-21.6230841829306,-0.804425877538551,1.87585430632587,94.1903149963812,-13.1291036275948,100.496712174902,-20.2575218374218,23.9976726339887,-5.56675877623426,584.568107081229,216.639291045933,238.120666813739,-23.0152866118933,1742.81271997007,-290.729523626695,167.177856806908,3.67993648816729,747.177419563631,-28.1410305190566,528.523787081279,-51.0565187390828
1.75121943428865,2.09751847065098,24.0654850784914,5.05721091134515,12.8336860678592,-1.33785064074551,468.00385583957,19.2388989408644,831.928108821807,-23.2697889344499,6.77734370422235,-1.08557063983085,90.9893924089227,-11.0373754099669,103.637851803,-23.2179002728678,15.4138191195008,-3.13434932824406,599.48097498789,221.583347195156,244.112485601875,-24.4513460286211,1772.97595028316,-294.147925871572,172.671251866924,1.78401081133034,758.955426346203,-30.7805950533119,545.585024534495,-55.0028392916589
4.11484741110421,-0.0887562445617679,17.6687491127493,8.35650979823535,11.7779034539836,-1.48722003269359,445.638628254621,30.9356038862235,809.229472241869,-22.6388542967832,2.16738781741644,2.0262386724477,84.1557966292086,-7.08302384492754,106.257071576824,-26.4758624442286,21.0267787730043,-5.74124415218977,573.674292437501,220.506429043576,238.288802686598,-23.3027414668001,1720.48915513505,-288.70115363547,166.55773766044,3.67532249429358,744.849939252419,-27.4802134411374,521.19193485136,-50.2215155620396
0.882527317170414,2.0547529281229,34.4932237745258,2.2235830280541,8.79077666893192,0.0706333046276958,454.978367822887,23.1710312759836,810.169452053874,-21.6313276152759,-1.11981932849893,6.40575866459538,91.9636526405374,-10.0937419412227,109.115756971705,-25.4442944860782,18.6652753622847,-2.77384954300152,585.765864244174,215.460437139742,237.869916336034,-24.0228076202308,1710.48720677511,-276.461389013971,168.653160523528,2.84190401158127,745.872246448421,-27.7890124704048,530.495030354488,-52.5331203591196
0.963028812206686,1.82685298705507,29.4993726532001,3.36895016054444,9.66987545935084,-1.47787858207948,452.80569524225,26.4598678500193,825.755625316943,-23.1645885810408,-0.400600659378691,4.31780888652407,92.8083655918902,-10.5781080082343,93.1938669720667,-15.0568040922197,21.588568578574,-6.65535989505257,599.81416668694,219.271580983102,242.417557525749,-24.6918887874705,1761.75343786229,-290.186998056382,171.548660403924,1.86354073215758,758.085694464346,-30.2876092808963,545.623287404607,-53.9884119695222
6.38087525835098,-0.477143449310707,29.6269353508003,3.20301227480587,13.6939715592644,-2.64291533243594,447.636506319686,24.554465623192,812.135601197922,-23.261648568867,4.69674113794201,0.420245163209116,91.1833829512627,-13.5303299909573,85.2399721586947,-10.0747293955274,15.2354117769188,-1.5658891586252,576.997768385592,219.519737389879,237.583813669693,-22.0855505219002,1706.98761341481,-279.806915260273,166.263160350613,3.11649635113028,744.339537015529,-27.6954555005575,521.79276470539,-50.4091333342199
4.26011588765041,2.03032334196617,28.8869613024293,0.453998322378984,7.16124744295816,-1.05778229434985,457.910638173685,16.4719709801346,810.51910073916,-20.9168849057168,5.13596227798155,-0.719156139567209,93.2120797251392,-11.8005425224379,100.944860074465,-17.398041672378,17.4799406400762,-4.10215996756743,584.444495197681,217.688412527966,237.98897585313,-23.4024703107808,1725.70180436973,-286.360853989193,169.726952529758,1.87689275233322,744.016212892942,-26.8236225032322,526.960443494561,-50.0040795847468
-1.53805525425356,4.40560459599917,26.5798397850197,4.28586763752571,5.2500656990706,0.163199370831412,463.699856616811,25.3425645688761,831.159413606291,-25.4796507481831,6.63491086682732,-0.909926010519194,101.122158698337,-16.6455204294036,112.037784684778,-28.5090432875666,26.5319626120542,-8.1770958685374,604.041362583901,217.907937915214,239.271930952954,-22.9780251124538,1761.82342988416,-293.923258075436,172.172080237543,2.23128510795185,757.672433096195,-28.045771023979,542.6944232736,-51.9729494405838
-1.2695090938534,5.11357605593729,28.9925806949146,5.87979478211763,3.46658186607833,1.21927209496553,457.035363111471,21.0710418833255,808.626213494774,-20.3318318824321,7.55335559782419,-2.08858606320371,90.8826518345421,-10.7823337072027,104.022880188537,-20.8493859922511,20.1837674147633,-1.57553071710831,581.567415085086,218.201087053713,235.815020371353,-22.5075134924378,1714.07137824113,-282.25958730599,169.875932690945,2.40826758403095,747.993059911573,-28.8700417194321,525.372099675163,-50.4364644615703
-1.7632367067425,4.51373899118231,24.1752969421391,3.2474692439992,7.47568083832293,1.66466544430071,459.258976674197,21.7552236095552,817.863674582073,-21.7484665353254,10.3920674699481,-1.84339157766048,100.899337595944,-20.9690353241553,108.122132245941,-27.3571031668585,18.3592020431889,-4.81885819924414,590.14445485929,218.205438488794,239.958035458467,-23.6692289750465,1740.99175097981,-288.824598319683,169.623293779453,2.20231413973815,754.773381102079,-31.1688486277212,534.747689992999,-53.1340878510984
6.96430249761855,-0.826513520987875,14.4531063797145,13.2569006539509,5.04858184027595,1.7121857856446,471.487414890272,19.8070350001247,838.557525304409,-24.0538535146484,-1.03867267970057,3.98630711201326,95.3929606922111,-12.8003206556574,100.737403330655,-22.3805444505965,24.7980226605388,-5.03393775418614,607.389947405789,219.5762280642,243.852186976528,-24.1177411891692,1769.24545535586,-288.531061125246,173.894937563574,1.59558479024958,761.284247750328,-28.3718074726863,551.446959364038,-54.2625049808873
3.8331090974211,0.800025380239448,14.3713611888242,8.96769546043762,6.74519450180517,1.79482800523017,454.346166698917,22.1566209922364,814.864016989042,-22.2680757091338,1.87458294192401,0.619410748065408,89.8052005169642,-14.8609325269339,94.2980390185391,-19.9398139071607,21.0480765833604,-4.56327533264809,582.651835580817,216.857640163306,236.633152139158,-22.1286312838393,1728.00128574015,-286.412079655698,168.770025985965,1.48153108093042,743.128973104485,-26.243442044508,528.451320241912,-51.8735250403933
-3.05959932345369,7.46829691812207,30.7626069652291,-2.32368243961305,13.9010610589125,-3.30204144346767,464.57155575003,19.537618688245,820.574227818074,-23.2609415526902,1.42681130991126,-0.315694279558158,92.9782744979518,-12.5259258506208,96.9114734968469,-18.8797117249857,22.0726424111691,-3.93975310504769,589.191630474725,219.244374357136,240.613604945681,-24.6344354426058,1736.26171982973,-288.124328530399,170.449287926153,1.8576442995888,747.142334453422,-27.7186008327287,536.646131823846,-52.6811488882484
-0.836505052445897,3.43826522849048,29.5647978269285,1.73832102991302,11.3285346015409,-4.04580986246304,478.058782642429,12.5694576110283,846.630796142807,-26.4996776829194,1.85220838574959,0.193684681170417,97.3993682698721,-14.2660799813228,108.075150854673,-24.7153381768001,10.2689263573282,0.317473568829615,605.12289441276,222.094108169215,243.56679837534,-22.9776070698598,1768.22352925792,-291.506391213895,173.20701715044,2.78604292725764,764.328965684199,-32.5409504372278,555.225538553742,-56.9756626119721
5.12645760406111,-0.330807728687913,21.1832969381246,8.87225694094607,4.42387427706494,3.33100488053986,462.041784929435,21.2962227095104,813.693314251357,-19.7288376079211,4.61612791245576,-0.807302155731929,92.6688945856736,-17.4147033143032,102.514085314434,-24.4215548232499,20.0743785490812,-4.31705800165008,577.192752502428,219.848538084937,239.024542779732,-24.0080012410579,1716.85725173175,-280.123574576834,165.929177537641,2.75604477519326,739.059280517608,-25.8735219498872,521.166195805583,-48.0447121158478
4.22651865869559,0.687694561242041,23.8173442321994,5.46798906622859,3.80609240850462,0.779117816921112,464.800748371379,16.2246309525077,816.171956109203,-20.9377087543284,5.09184302377213,0.998299943334161,98.3264612355832,-11.7212809102202,101.146216389316,-19.3193252767239,15.6964061451976,-2.21914574305812,585.221476353764,219.90577885625,236.311328023115,-21.8405647762239,1726.50560801955,-283.010060973582,167.839944027941,2.29279079470707,741.481162081884,-27.615505898761,530.843848395071,-50.8460007535114
-1.47061754516934,6.84208003374315,30.4022951276991,3.8571195469735,5.51553788724844,3.31853843346831,471.116860615127,15.9992848484355,840.633329298257,-26.6795908051693,6.6689297359763,0.644467468430622,98.0968026241894,-17.1883021742866,101.680257827354,-24.9456059563856,17.7528350077784,0.524976712497466,606.594554168786,219.379310834804,244.246318634654,-24.4602628246396,1766.84421949451,-287.4502511429,173.408951961094,0.633444577216694,752.740720627127,-27.5025152928858,551.773424439716,-55.7672628706348
0.923314159077196,3.74757348010031,24.394977637439,6.3772962477687,7.48481986440219,0.315248690850976,467.739359227121,14.343885181394,817.578528005078,-23.2058529135341,6.0240107402877,1.92437019244967,88.8336849859509,-8.3246170524047,99.3738573363875,-20.6986892978338,17.8806964709259,-1.6122190974393,580.493218686756,216.971182380545,235.97694777972,-22.062950878989,1714.33692866776,-273.973918554009,165.474034889434,3.36075583056317,737.424278262674,-26.2890385919081,522.515883914842,-50.4326261332375
7.27585671749449,0.975625253692149,25.8650596849553,3.96814538504989,9.23404330294775,-1.22361491092712,446.265782526486,28.9453762618749,814.23107915887,-21.0973272676115,1.28442106684555,1.80750347127122,88.0530899547163,-7.68569555864516,106.484510533699,-25.2497210712041,23.8930979537869,-5.525141751793,585.556040422202,219.779714027384,234.72630490206,-21.9075981687378,1707.49077785242,-265.839972515567,166.30516270878,3.88836302769689,737.149093372739,-24.6981217410027,532.735298583616,-51.9826702206825
0.516848788636394,3.70747358901015,28.3193808161611,2.68238359126593,3.87905560081018,-0.36236498080374,465.149493472484,20.8003592757142,840.26924257373,-25.0389470882018,1.81488774838159,0.207892911072546,93.2500870988625,-12.1614896861442,99.5113867338525,-20.7994831381568,19.3774996542586,-3.8430552969724,603.399005089682,221.033086020754,239.841418223376,-22.7122402066062,1763.05056002376,-291.906407640247,170.951693922089,2.54010419972038,750.552295144043,-26.9699965296477,550.42761090383,-54.5621796898698
3.09701888763309,1.32158615592003,33.8305904116046,1.88313562258329,0.164449718398764,4.0877158610054,459.828732768387,26.3277532213292,834.407378372595,-24.2052943074639,5.41768019292175,-1.09232603803093,102.835955342316,-15.3613620123876,97.4283886309124,-22.3155706728088,21.2504770366985,-5.06639984143507,586.193806717513,219.739009200172,237.391105033975,-22.3455481291822,1740.1033318479,-289.272343887189,165.571246678637,4.15809547939418,743.192417768627,-26.2723440145145,529.963280893442,-52.1133942900515
-0.348228747735319,3.71657936186387,32.4384478229421,0.985681703658571,12.3831150322253,-3.33471839155857,463.746160747253,16.1331115223105,822.49221726691,-22.6951770104539,0.124400833174842,4.98292376474009,91.094450290256,-12.8718394455185,101.233759186852,-20.0362448605404,22.7267659982366,-6.05031965525472,587.416117884251,219.604561880631,235.518458452828,-22.3462846695472,1726.29594258084,-282.649976204746,166.131438106446,3.63372737034432,742.277241111233,-26.2614508566945,533.400719814038,-52.0509151136217
-0.532183574552064,5.76587748289997,36.1855861381704,-2.4173451956771,9.58250174132189,-1.7977266150697,471.99474056814,16.2264790597916,840.087583565965,-26.9516551561903,2.30116987951215,0.911668525246708,95.2790718816272,-13.2456909496013,98.3589681543298,-17.3689419444775,15.3063838629807,-0.556812991082906,604.607361076782,220.679716990715,240.07220574482,-22.7638473479413,1755.86921293369,-279.8473348749,171.294155460797,2.29132091037044,753.69899657829,-26.2500700148228,550.657541126434,-54.8700546508363
4.28473505390406,-0.194735094690282,27.0203446815672,5.83760801878531,-0.338106605475396,4.37517043905688,478.063727350575,17.9148007463789,847.774539821978,-27.1641940893324,5.89611294731159,0.950543066692892,101.280494597568,-16.7844797827642,108.130914150314,-23.4317218146083,14.805060998967,-1.10446163753201,593.22442383496,219.512425648346,238.856305151972,-22.9194731215145,1730.57985079147,-277.93507000483,168.089382682962,3.08198055362187,749.730436928206,-28.2573213205904,534.178966944494,-52.8405473399729
1.8659916663995,2.00292194989624,29.1843996564721,2.74958101696232,-1.65187937739569,6.23074687977236,470.542250749019,17.5246734235328,835.027938669878,-24.4057128074829,8.51785772550345,-1.06535233765996,89.47007766853,-9.57701672811659,97.9220444324119,-19.5644044044531,21.4723272897613,-5.80181375031274,595.131226488301,220.160487364349,237.999214325856,-23.0126913687659,1752.77645873239,-292.552371926286,168.118522804315,3.645250825181,749.926301328771,-27.5916396898283,540.217091429612,-53.2111678439229
-1.97787780225344,3.84050258070032,33.129742274699,4.26931369372196,9.68884225257051,0.254601324866756,467.783559731779,22.6308410919355,850.224266086966,-28.5090217471588,4.81942667382796,2.43163803778935,87.0960115249807,-10.5861232213201,103.659839144481,-18.5473871282432,17.1986632841725,0.278275967291004,609.842901454563,222.943755929883,243.400859424761,-23.4498346965042,1783.51261848339,-289.375950807493,172.171449945295,2.94600917475499,765.321105558492,-29.9783971127879,561.746847599496,-57.7519972991061
4.29564760951741,-0.489153497334739,35.1693227554133,0.833737345700583,11.879265100318,-3.6732819580823,484.742185663184,16.9574722694928,860.751993987464,-29.5417618852336,1.2382979249756,0.499902246276745,107.173055701505,-22.1452893848988,106.909467304717,-23.8954030913385,27.5378746123135,-6.21320095215241,600.45320617851,218.914230522207,240.427867516114,-22.8153444420179,1753.77117906697,-288.069963500209,169.043295324587,3.74913087093381,754.230394045032,-27.9006497939959,538.581833643308,-55.1148080487958
1.52011661886037,1.43249678979787,26.0873433177712,4.93237490933944,1.20716000753578,4.58149951987882,480.572924357514,16.9014375008294,842.533406441812,-26.7564213505795,6.12803236983357,0.176072454093222,94.7680212627,-15.7751919684047,104.47243270266,-24.8599432983656,21.8728878050216,-3.01484488875967,602.714574319763,218.221003751217,239.650082548214,-22.8102048697436,1753.18513316171,-283.816464574667,170.716871757641,2.30668026560162,754.062694436067,-26.7840250703962,542.013118870574,-52.8604686341008
6.12666399830672,1.51211508242709,33.3909665241045,-0.976103933570635,1.34966502184124,5.79060347916304,476.763907036402,18.9890277130025,856.884989622149,-29.2242641784481,-2.62977492319661,5.52619346098867,102.400731180403,-18.0742738794397,107.853220467237,-22.1446039091301,19.2306883926246,-2.06741205050128,620.050469706467,218.753275685637,243.347399836462,-22.9143091196621,1781.0275210132,-281.674233191205,173.671569985384,2.17222511877568,767.379622779718,-30.3337795260525,563.118083565903,-57.7282102632779
2.9472026007964,1.40715599183871,20.4781145806174,9.51393748631404,6.01333579555962,1.92749509559021,484.945565351062,14.5513643006698,877.34403422997,-31.6155965677291,1.82654798558889,-0.151876942233829,98.4847834852853,-13.5742729686185,107.939622179383,-19.4462618104559,13.9142786187136,-2.19322289666086,610.371182311294,222.995946702504,242.438223213665,-23.1153677440895,1775.82874401963,-291.969172250005,171.173545560479,3.52974184360931,761.278011636606,-28.0395594692177,544.079273842232,-55.8546279020381
-0.090306124965778,0.884647293012272,29.7775751208671,0.855530097685617,6.58763528502231,3.89973882609422,477.697348696038,15.7073523460074,843.314643328126,-28.7222360675242,-0.638282327952141,3.70155134179626,101.406430467556,-16.2746161439302,105.203086025267,-25.0017026321038,20.7401830782795,-3.49213143192814,602.981519895477,218.959143363555,240.357293880462,-22.6515406959294,1751.06927414255,-283.893549510515,171.293971814297,2.31848249160559,759.625046634604,-30.8426311406454,545.468737440961,-55.6830978929921
1.65834476618677,3.71070962595085,29.2934271402049,3.53075749033172,3.10993688422901,2.53497219881989,492.15022782144,12.9398692853031,856.013154357804,-29.550552825671,8.00841626943073,-1.26666068111737,99.3472117153511,-13.0023072428466,96.9356972343788,-20.4654633931031,23.1898346688754,-5.80226103139372,616.617931727872,220.140832151038,243.720904820936,-24.2762514794726,1795.73048485129,-304.928545545211,172.992403580519,2.87480403222571,762.884803690165,-28.4861464457766,560.344589898905,-58.5773644490449
6.24605951197855,-0.952381307960745,35.7687508881817,0.929424060268499,6.16414707764254,1.14772508578987,493.303421568632,13.4299432628729,881.533354318748,-33.1481772383296,5.57604197533887,-0.918385866069912,112.031264250582,-19.8040362629271,101.193541260114,-20.5196999591577,29.7696928461098,-7.62529469189961,627.183506032532,220.336927845632,246.001447168555,-23.5991099213319,1802.54435074759,-296.665252097952,174.430166273096,1.82969572063566,765.649439135612,-28.8186494867055,549.732371829239,-55.6266288689316
