578.245145046924,-56.144593487131,1522.38025807557,-184.001301077802,1457.396776636,-159.221023274634,685.320249861609,-86.5106100914011,476.554661697323,-4.84536154435913,332.481437773802,-40.3046290558059,2131.83104784806,-149.790858638688,281.72729051708,-40.5067476184636,661.561178226859,-62.8203284955516,1908.35765727134,159.57287652046,546.41058823918,-76.2232274247669,374.281541144163,-30.352116555613,883.602942523384,49.5233709241583,603.016380972294,-14.0753658863429,588.20869436311,-66.2702859225101
575.889814595148,-56.1309096737818,1530.67619570961,-197.573760346434,1454.49375726104,-153.318287716277,691.455522665142,-88.0884746739212,481.199397915574,-5.52817966300309,332.921382444441,-39.8335326091272,2145.7350871764,-150.774631976095,283.786789763571,-41.1118561249199,670.487455970192,-64.9348457435665,1918.06212499993,160.186255452938,556.33137342485,-78.2653438068,381.929628380137,-31.0010672920841,891.179795962423,50.9619169066378,610.927057710057,-15.170754782011,593.158739031168,-67.5566945129391
587.469746668226,-63.9777519840244,1573.97222775874,-209.466557766326,1485.29450329102,-160.19149466361,696.792112967399,-87.6064367075625,482.422191391133,-6.01697378350884,333.439396273341,-39.6215059827489,2147.67756554973,-150.943834880288,284.499523631663,-41.5496436499185,666.674545630663,-62.5994620812703,1918.20829763607,158.488777233112,544.041839794645,-76.0021338065046,367.704439732879,-29.0869322383256,877.102891385386,51.001479352698,599.579075662147,-13.723164887907,586.57826359108,-66.5321032279299
562.582381711183,-45.2518089717454,1549.37470234325,-206.024509703864,1469.04913937389,-159.557240940989,693.615844552372,-89.7991191703641,479.15998313092,-5.04695304229258,335.599877728778,-41.5596469590721,2142.88270929287,-152.382502371275,283.196616618022,-41.0223895399113,663.271988461217,-61.5942423233158,1915.71675123608,161.179012503801,548.917974626379,-76.7823430698468,374.500600890455,-30.5940870323801,886.279800172677,49.4359644050505,604.2183641671,-14.4565081753358,587.332805404957,-66.3540828756947
582.099135044351,-56.1821888487906,1561.70298054582,-210.694613091874,1473.04666690348,-159.531938214053,694.482992984347,-86.2949636289903,487.837302382317,-6.96168127335611,335.412867007297,-40.6483303576587,2169.17143449643,-159.967641306749,286.080110444361,-41.5944918700428,679.094864679035,-66.5682292324614,1941.58898457998,155.26705175395,568.299954294118,-81.1643116598788,391.121286204265,-32.821832967789,904.071186793812,49.1951618250804,619.297862105868,-16.1096186688367,597.350405242938,-68.2990455337762
571.979045270318,-54.4007493798695,1526.52463751877,-196.097101201737,1454.45380414281,-152.140208468016,691.76628625668,-89.1100564597963,479.182644403601,-5.99946006848217,334.912898528356,-40.9339323699974,2154.20483475637,-157.400279067254,284.07706440824,-41.534935913864,663.246438145226,-63.1205956401203,1918.14372069258,158.108021346605,550.772353540699,-78.4607667330346,371.996967942068,-30.0923335963532,886.262467734029,48.7864040689357,604.7201149053,-15.2295048727736,587.552526026,-66.8987880860926
590.398232751987,-66.7149950739229,1547.22887326214,-200.637724668656,1461.65237037504,-161.697804594895,692.595862578536,-87.365297661406,482.883998581474,-6.32147798898845,333.725758667793,-39.8755404700005,2153.18349110285,-153.680050196843,284.694814211245,-41.4572132138335,666.300452639833,-62.8971118190545,1922.06739822583,162.298514678694,559.7703975415,-80.8375418510865,381.204941905134,-31.5108822601674,896.84177007981,46.8815590846283,612.261587570208,-15.5199646880056,591.109245237189,-67.7902806187772
580.572863474165,-56.0254683502376,1555.63074569118,-198.152012859266,1471.33246683441,-153.791771588518,702.198042184797,-89.93836495557,492.422587543449,-7.60701853674101,334.468627845755,-39.7663983272994,2186.63746783955,-159.411764629778,287.994626428786,-42.0550538775629,682.820645083048,-66.0442133618271,1956.86948686728,157.279494637645,575.389311487757,-82.5918714099268,398.936797204619,-34.7584457235363,916.157616692297,45.9174914463748,625.88616890199,-17.0217552305531,599.234132651827,-69.1137776678118
570.991331823295,-52.9552415914057,1550.02713579005,-204.679718662256,1461.99179467754,-148.388776217815,696.539724974684,-87.7530148208537,484.479906835537,-6.77232336385367,335.840641189656,-42.1659155113988,2160.63805493159,-154.940425276785,285.88030945058,-41.6048716200682,671.020575798238,-66.3232164815829,1932.97823336377,154.974059669565,560.603888285535,-80.2414621994672,381.467857194069,-32.0111565335364,897.772393543406,47.9763589846513,614.21296645425,-16.1144578271575,591.168088103528,-67.6661853301029
575.682878979481,-55.7929912751272,1555.24299862033,-205.852151857367,1465.29569753115,-157.811360713846,699.315057922551,-88.744329328465,489.928565867006,-7.73092059957792,333.635624145135,-39.5362189735702,2169.54989177055,-153.199118597923,286.920381856288,-41.8633974156617,678.213893161279,-66.6382208108312,1945.85569097851,159.075085325992,569.90006162486,-81.791561854999,392.139620926955,-33.4555374338145,910.683340379947,43.8897394279701,623.17391125887,-17.1978165457501,596.267514657546,-68.2897713631223
590.700124587059,-57.4821556492334,1593.94813037045,-214.324760467482,1489.11783284007,-165.114588248753,709.536773141173,-91.1800150829518,500.367382859582,-8.79418104182811,339.711912392609,-42.7446397165069,2206.54280202652,-163.949695745129,290.546061543362,-42.9725937323088,689.319285901733,-66.6056171843492,1968.74224258235,154.235983042472,570.911719067632,-84.4932270742099,385.345785951308,-32.3430845114123,901.985594392965,46.3256087822703,617.446329027701,-17.1723406517761,593.34983253507,-67.7022361927505
571.918556411224,-48.7647362348868,1576.24184876975,-209.577460341601,1480.40486284508,-160.233825788574,705.259924061291,-89.4513032648797,492.302518173589,-7.59958164271075,337.451695333685,-41.7677410611089,2184.64693042743,-160.646677856802,288.25230804761,-42.3419181248651,680.726260084771,-67.3438590984171,1951.63921363732,155.530268723212,570.149020167894,-82.6710810064725,387.536916901263,-32.6232852127031,909.141344837412,45.393310326339,621.526910059393,-17.1982264078785,594.567601758771,-68.2948800725918
587.924574112196,-57.3498753876588,1589.10757475659,-214.657359955768,1492.02093040565,-163.568381925059,709.88646918001,-91.8611194128312,497.851304279774,-8.20629340991496,335.287513529562,-39.1444732266947,2210.70307527319,-168.027629538846,289.803017452785,-42.4981471595161,691.977784429146,-68.8118227778547,1968.08838843251,156.930756522665,586.567617057249,-86.737300267216,404.263860902388,-35.8928668191253,929.656244387387,40.7868971561918,636.511178572383,-19.1673687274869,603.74525916597,-70.1704126664812
595.078829558005,-63.6291274698776,1592.78442154947,-203.941037248345,1496.48576475231,-167.093839540203,707.287181333699,-91.1491523591012,493.153075850171,-8.7040469768347,338.07222433149,-41.6393754531728,2193.55607748565,-164.113456288007,289.075265137796,-42.2708445943239,678.869287377257,-66.1461523976362,1955.2314382187,155.777754650706,566.651928510254,-82.2020009140724,384.151484812478,-32.8431736505221,906.676498505679,46.5196257520363,620.82488822283,-17.4127167348273,596.29740927742,-69.0415407032372
581.415016145299,-51.0401862025258,1590.14367464111,-203.984850357217,1479.46759103322,-159.146061657291,709.149837779521,-92.9120163205225,495.624327210389,-8.55502498097412,338.457822661727,-42.0740768606501,2197.15787538781,-163.948959826632,288.615737838771,-42.1074791407012,685.613447345119,-68.1434009701552,1964.24436048422,155.821273636792,574.333561569739,-83.7026866107695,393.160174633924,-33.8627263108843,919.399279142259,42.4788484128785,628.442072373136,-17.9559211307572,600.239888952221,-69.8243125059386
591.962432537879,-57.2229794564563,1612.19659939099,-217.249569156073,1489.52877798244,-159.576307045191,716.078494291964,-93.681940820021,504.748200011242,-9.81727925701751,341.785810305284,-42.2300267974311,2223.85308731322,-167.176726435918,292.482212091918,-43.2255002080463,700.164346882031,-70.4508554353545,1990.11498965122,152.930087899806,594.920448921999,-87.2479309623716,413.103131190295,-37.3382460244943,939.944202241927,41.8233363922518,645.576641103251,-20.5341619895997,609.895491823474,-71.6851369144107
591.658642164351,-61.6027564892758,1594.56107684316,-210.869107308098,1490.47400930757,-167.107217652304,710.589257401066,-92.4400700438772,495.540095179017,-9.15862565886995,337.793025596817,-40.5793458031375,2201.20267796722,-164.888764828683,289.511809197753,-42.6867386122223,683.171852454169,-67.3349677833915,1971.80592038385,148.682017875104,572.736660947616,-83.6654027365762,390.949620058299,-33.7819804679376,917.103927675702,44.1568675039874,628.348557001155,-17.9090070718517,601.231737569509,-70.0296397703829
589.12331168548,-57.2988194266827,1597.21039602548,-214.982706137719,1498.5267161823,-163.65659452448,713.957109565513,-93.7241915798416,500.212809878765,-9.23370979525126,341.224410476648,-42.3081474742617,2209.99128632554,-165.698971011637,290.236032670397,-42.5350897772384,688.623859571463,-68.4794465388978,1970.47442945601,158.579384914418,584.596384219472,-87.1652948321005,400.923215330354,-35.3819645285935,924.605807917551,43.7301576609361,635.060769651475,-19.3804792853919,604.261979732613,-70.3933336017118
605.350496489793,-60.637962214966,1645.43370652622,-231.932243399154,1505.10855332306,-171.363416598238,722.745554073179,-94.4610068005045,504.322807425964,-9.96442914602525,340.906838399078,-41.3604488757816,2215.1128798427,-167.645148783717,291.600953155373,-43.0478109284257,691.6981957603,-69.7708992491862,1976.50823558508,152.273308044491,569.146967572217,-83.4470194316038,383.217589322977,-32.6080621523048,910.275808705516,44.3853383982181,622.812797569526,-17.8519581410225,597.663312416372,-68.9531515541148
595.32952770111,-57.0712680167644,1605.53380808094,-210.41980131954,1498.59934746327,-168.30117908887,715.647326176989,-95.2375468674194,499.467460331952,-9.75454568166256,340.200059596049,-42.4607791498683,2201.5691967456,-163.812970322943,289.57671308646,-42.4387823403755,687.85522782425,-69.1401405610377,1968.46359535177,154.233183334757,573.531312854261,-82.4906009910717,391.664795137859,-33.75372127971,915.848189326864,42.8122651217473,628.666637679164,-18.6201093997738,598.993002519764,-69.5724122146396
599.874368673895,-58.7064218465867,1629.52629430182,-223.179363003271,1501.36323388319,-157.681230785221,716.254546499913,-93.0003612466545,504.92369185841,-9.92874759649326,342.022319408971,-41.66193813252,2229.27721674427,-170.728203932714,291.537382961478,-42.8902098515836,700.778474958307,-70.9887250463917,1984.92177915266,153.301485160693,593.935883150772,-87.8192958719038,409.533023057799,-36.679293942136,938.193620198637,39.3882129391831,644.076361589391,-20.8073385114163,608.537415232912,-71.1544680334827
597.00296776835,-63.3752340847449,1605.78941427341,-216.528960072212,1497.45537306667,-168.755198017622,714.951203017678,-95.5031645703501,496.946520343814,-9.24798508716528,340.886412684203,-41.8246276458949,2203.21341629572,-166.499044750262,289.476586791561,-42.6457234940697,683.764560671364,-67.7199153709693,1966.52753610727,151.704747339165,574.063784003232,-84.0056133796179,387.395201693831,-33.2858637966784,913.325023934511,42.8575112119015,625.687943143985,-18.1497348553834,598.667597569264,-69.2382313862655
593.374533352793,-58.4959355460395,1610.24456940069,-210.091820151744,1498.93471683472,-162.555270084058,714.244077036737,-92.7673775790723,501.095120058113,-9.56792449463063,340.391117167942,-41.6522640756027,2209.98509288019,-166.08347192984,290.159967889218,-42.6771983927823,688.812589323277,-68.6063753739544,1976.25839673066,151.02502585867,583.231831977052,-84.8024692314763,397.353581387316,-34.833335808093,921.91052769964,43.3735161859326,632.004203267006,-18.6143552194728,601.907989282281,-70.102438023656
598.325721199959,-59.0551270350437,1643.68557036602,-220.40121784937,1524.16557033458,-166.935649228233,723.243090391874,-94.9338103518473,511.210749627813,-10.8360121312931,343.996857143492,-43.6850862466381,2243.79855283449,-173.24693120289,292.730246999887,-43.3439004689495,703.651666694145,-69.6116708190517,1992.04137761789,151.883734769198,582.759442745324,-86.5608798997477,393.591264289244,-34.3363958628051,915.436644973218,44.865541026397,627.219843420019,-18.5491704844361,599.401566454993,-69.7373933986459
591.502794162996,-51.7769191871471,1627.91950170389,-215.958811740763,1525.27101027523,-177.270628221136,717.734772975814,-95.0294444779966,502.504007062508,-9.66396990197333,340.776463117905,-42.4628301859151,2214.61289213193,-165.713348006996,290.035225859534,-42.7635372560156,688.153596063929,-68.0221557263872,1973.35533786079,154.50190428726,582.180721464236,-85.8704927156689,393.83654333367,-34.2015342928821,919.174197260662,42.4549295727482,628.911897161617,-19.0010575435481,599.687115133398,-69.9398742417696
603.916563420804,-55.9997892187243,1635.61116307606,-222.870140597424,1510.90023096254,-170.926114927547,718.16953399833,-92.5315524674095,507.617881228177,-10.209678143048,342.959799610314,-42.6197225772873,2231.42916080166,-172.475303618013,291.373617876027,-42.9036949649862,698.686845096034,-70.4294490160865,1997.88527693334,148.570456012085,595.646473572826,-88.2957110022169,408.780751605482,-36.6985165032636,934.700844991743,42.8547897112347,642.769136869841,-20.7432233499684,606.658948028899,-71.1709649411264
601.584654842404,-62.1392198042627,1613.04346883835,-215.730064918952,1514.39598756893,-168.589483693151,715.125055059749,-92.5995234158775,498.425963478149,-9.33989609948761,339.649070208916,-41.3524690135516,2202.54532277463,-165.231934339199,288.702977140139,-42.1835961260133,686.069645047139,-69.7063926368065,1972.06610826459,152.265692010613,576.951959037644,-84.1510778185707,387.246266354054,-33.1319716263715,911.868047470057,45.5466888070378,625.436835308513,-18.4814760606439,596.158693987563,-68.5012010716062
604.613249464783,-61.6020582939107,1619.62722122431,-211.458567275506,1501.85384876847,-159.5900364078,714.454838068445,-93.6294623083877,502.500142887816,-9.4766310648922,339.512753726498,-41.4756673704528,2213.15857409486,-168.504322585329,289.30994427297,-42.2428289760719,690.698431236544,-69.9598231235545,1979.08886952434,152.198751784438,583.991049570581,-85.1180507501114,396.754538860456,-34.6917785491291,923.029577134088,42.6943914940006,632.014914998713,-18.8545712897277,599.609631003573,-69.29926633512
609.040999825199,-65.5799116072322,1645.49772016558,-216.79443058322,1516.70350867951,-168.874822610077,725.011459865451,-96.1121125814268,511.406154786006,-10.8155002096024,344.581275959424,-43.1816536441428,2232.61615855808,-171.994894442154,291.019829178855,-42.8515674502726,695.985202169087,-68.9104796856169,1975.29240059927,156.081794783092,576.153743243683,-84.2537571619739,383.949910379853,-32.3252297047159,910.627144678897,45.3089750846616,620.589852078079,-17.3881413906864,593.579824291545,-67.777718443142
596.445578797245,-59.6209213537638,1629.4757844112,-225.671429663949,1497.53310574686,-165.684650827681,713.355691013965,-91.6951745709526,501.528837989273,-9.4960174320986,340.570920532077,-42.111080176465,2208.72939253777,-167.240130763219,288.19506618019,-42.1249339604351,685.067998316702,-68.7880927205428,1964.79627728165,152.994073818122,578.973205751634,-85.2426203654047,388.639590791802,-33.563123921513,910.581819729152,45.5418638511996,623.360355192766,-18.1273420748617,593.361217973631,-67.8146113530598
606.413745592667,-62.3209506986839,1646.02793989152,-232.519528877187,1509.81061847857,-172.83554645587,719.000422109073,-95.260438411284,505.634724912246,-9.78828450452307,341.919362872845,-42.3937973113536,2226.05319160025,-172.60779266907,290.14040873522,-42.6163789144427,693.001931364966,-69.0902422086283,1977.29963120048,153.278650692225,591.995300721098,-87.4460358909831,403.522406533547,-35.5859685561975,928.368685239039,42.584290581749,636.820425145973,-20.2502479538093,600.18455080267,-69.1254987099556
598.801050972936,-59.8219884753586,1635.45443504181,-231.787485290341,1513.05361092262,-171.527150549682,712.400190638504,-93.2650871724331,496.454434685366,-8.61868179457593,337.165790632641,-41.4896160404925,2195.20653035542,-165.058537054039,286.908415990589,-42.2089077414019,678.816382569045,-67.0020953018969,1953.28271583732,154.541349136935,572.162339410718,-83.250146940962,381.712881659774,-31.980144906765,901.437047499375,47.3274093879898,618.256496593956,-17.4209756888149,589.059740080369,-66.8605998945627
589.870979234392,-51.0032901692975,1607.84213519758,-209.847893362908,1477.2894202247,-156.351034006358,711.153384659085,-92.684462337604,498.633897012073,-8.64739134116184,338.342430069523,-41.9518288691432,2197.6872433862,-165.610784035929,286.952928676595,-41.7699641236191,680.360483648501,-65.8338150780457,1955.49289055411,152.158668902424,578.221393781517,-83.2487683821511,389.014112625074,-33.3730074208831,909.049766572855,47.5572401192988,622.333488178189,-17.4891040039609,590.592834395909,-66.81128347496
599.131866288635,-57.7958640499522,1631.44637760131,-208.838111138247,1513.42501792544,-164.726937537005,722.06426155467,-95.8651211955382,507.657913040337,-9.84145686535679,341.660308142935,-43.2628231872328,2218.59270436653,-168.009712827325,289.531227995543,-42.7052701796931,692.300464110296,-69.736253994099,1976.12928065119,152.999424291873,580.494155582476,-84.2847569267417,388.866489182701,-33.3095317645017,905.170586920386,46.6365728823244,618.896269132961,-17.2924201521984,588.622775905597,-66.729990047558
589.604102447552,-57.6059202388079,1617.01522937946,-221.50668734509,1489.07070440818,-163.461047927809,708.805264898864,-91.0604123242154,497.767600451926,-8.09959395317393,337.363312078951,-42.3500826412691,2192.11974134302,-163.056360492398,286.934866804538,-42.2892725497057,679.943402862105,-66.9587237896208,1951.96298810448,152.862039024278,573.785687914226,-82.7430516852212,385.88391350165,-32.4669177591224,898.503912086716,52.0679957374022,619.332502112905,-18.1977386942719,585.779274789493,-65.1296125045778
597.63860915256,-66.319334264294,1614.55154732052,-206.738330151545,1487.56463513561,-166.786504863224,707.816882331932,-90.1203283967154,502.900061132193,-9.25328593617879,337.999420749133,-42.2798862372418,2203.90143387622,-165.048519128335,287.608755049839,-42.3008691964518,686.635189251422,-67.6206326545437,1957.69330040955,155.671926626168,588.819489692165,-86.1675872081303,399.371313001506,-34.9599548075912,915.101331743687,46.5653186523251,629.077905762996,-18.6696229839705,591.447304042763,-66.0308655667439
581.586728876676,-50.7679552747291,1630.65732563661,-224.378954638542,1492.14635816865,-162.433396128671,706.251217561359,-90.8899607383324,494.630878936014,-8.23944491582795,334.935629887405,-40.7520854572832,2180.96780418921,-160.373026332173,286.004834238432,-41.9523072220229,675.759694569369,-66.4499156895453,1933.40368997041,156.586374478043,569.332695494797,-82.3568896906529,380.511169274338,-32.0989388436294,893.756257337962,47.9065543190592,613.432742896283,-17.0624246945123,581.433041750287,-64.1926855135666
591.116633238355,-57.5170525005365,1590.76169562911,-199.611514545449,1486.12889035729,-167.124064533133,705.975436086409,-91.6060388708217,495.428914957495,-7.86611992475603,333.548525668959,-40.9245176591371,2179.78494667918,-160.90038569025,285.396754917077,-42.071581369099,675.963551598251,-66.3427411987506,1933.24558347925,156.569336560636,574.548341292756,-82.6645526012657,386.411417163487,-32.9485854933236,900.104786309861,48.0827641811905,617.164123251388,-17.4691540126467,584.599552678995,-65.1591958685091
592.85770192273,-54.9951033108838,1616.9497654016,-211.281411918351,1504.38746647281,-165.919662118556,714.72711607512,-94.0885962098299,503.729924595247,-8.81850152578502,336.275281059638,-40.7566570462285,2202.47834980159,-161.486345046652,287.946383249496,-42.2081251974654,687.191118503177,-68.1691705180176,1962.79189426785,150.979744921742,586.890943222479,-86.6941026086039,397.183709236011,-34.7304524951442,910.031418242448,45.8577910369495,621.065096199605,-17.6037583606344,585.579172512885,-64.7911812335802
583.487555968596,-54.2863942248783,1607.397081375,-218.58754568466,1475.02577944872,-158.981579202345,700.353506255599,-90.4658543409012,494.495553504016,-8.25413792805929,333.331822342581,-40.2091854307234,2177.18583130979,-158.733044641923,284.528129042646,-41.5452684931225,674.380173505621,-65.5168330480331,1923.50879802759,157.000822834634,572.716194509166,-82.8119846486703,385.843145130123,-32.8906521231648,896.252159047142,46.9249480702167,613.653040398897,-16.5459252328228,579.845247897866,-63.4192623545008
584.981407878289,-54.5467091491419,1596.39936191258,-204.586526419503,1490.85912932513,-169.230927400371,704.957349120936,-91.3340014853777,498.733096202358,-8.63650743652364,335.062836806432,-40.9656429309559,2194.53172754256,-164.206024146442,286.525697696566,-42.1621184305865,680.095459550612,-65.9345290084083,1935.50606664784,156.927103105869,583.947718225099,-85.5822193557378,396.621790529837,-34.6474145917673,906.782508787813,47.8861152097729,623.120001828255,-18.0259480277677,585.546981383841,-64.6371845859122
589.357982394797,-54.9262609306218,1636.02812789946,-215.900675383073,1505.6552153212,-172.428430800633,712.002271325839,-92.5374810464364,498.104154586853,-8.38872812321863,334.727089154256,-40.9398139451678,2178.70446394999,-157.646571547079,285.787024918231,-41.7882358428769,673.512749516048,-64.8642095416503,1931.48808844213,151.739117377779,567.31318560509,-81.4504669525544,379.134466419751,-31.980370180753,892.138911921538,48.5131448537486,610.579287252965,-17.1685260122467,577.18411334522,-63.4910671016485
574.75377755811,-52.5374243529416,1620.86483601695,-222.077002902145,1475.25864865536,-169.825548508384,701.633509400509,-90.9223201452725,493.018972528218,-7.65540674569005,332.392692024691,-40.9403839505989,2173.7947303905,-157.116337498856,284.500380983528,-41.4444353892711,671.680800944942,-65.0061361902763,1920.58601334641,158.749087883273,571.425052838529,-82.8646794770168,383.852564306989,-32.1553053990696,892.914798163264,49.8085074805943,613.636044079967,-16.9178752508696,577.005572673564,-62.9384764361029
591.203818269144,-59.289703001901,1626.8456819497,-221.600889897621,1478.80867204215,-162.66198202799,701.672977053222,-89.4857233587429,499.474816877534,-8.37009567029252,334.751581971199,-40.454017302159,2193.39281753095,-159.73970807113,287.244324943943,-42.2891209488594,682.740345796712,-67.3006554234491,1945.10202897734,153.61863822095,586.846802180318,-84.9387776015332,401.055761913782,-35.8950977142546,917.356830627554,46.4063551591002,627.42306333577,-18.6743504610052,585.507823088064,-64.5032926734892
596.669931461696,-63.2948638894148,1631.34803243366,-223.751644921991,1474.77822856909,-163.793663123628,706.009236204554,-92.550952585469,493.844402119141,-8.10782947828083,334.159559881472,-40.8010725707026,2177.75767172492,-160.100423470952,285.400626126484,-41.6862016567814,675.336750629282,-67.3698118775827,1925.20374040152,155.242742176529,571.592562551621,-83.0968040772183,381.746338658895,-32.5393937257064,892.920748491592,50.4192823225588,612.743354927394,-16.6264864876291,576.72479799198,-63.1173998303508
585.987300102746,-56.9162536892285,1624.41205802295,-220.141809753524,1475.5532900137,-162.093294991374,706.03399718601,-92.0691661531338,494.597617208651,-8.0333811929308,334.102747085236,-40.9372448584236,2178.06605230405,-161.043686935473,285.778121176948,-41.8176554049369,675.280946481817,-66.5334326030885,1926.9507821404,159.137328652568,577.299299245299,-83.8668659330827,387.821330084137,-33.3688358927449,902.769945748358,49.3548433652512,618.055464058591,-17.7333935740368,577.848420610611,-62.8409933592175
599.088126789633,-63.0740823231636,1627.98945912005,-217.611763959496,1501.20186217073,-165.323149016675,711.479548476866,-93.1771726922463,503.190686323827,-9.12581743616803,337.325542881945,-42.2295401761403,2204.24001007741,-163.579757233392,289.727390629001,-43.0375805979393,690.432509129949,-68.5150654641777,1957.20450407501,154.375424737374,596.459900971016,-88.0238714423272,405.177970836933,-35.9856652300168,927.179498901303,45.0564880886157,632.170573240629,-18.9637098469384,587.979401967327,-64.7286189032691
580.172886765694,-51.9606671659387,1628.35250852701,-223.160183812219,1487.60447031525,-167.411393567455,711.44145554663,-94.6786619179111,496.044387993906,-8.71246682239489,335.110322748759,-40.0905370684132,2190.81997512809,-163.285635504571,287.641370090528,-42.2250505048911,682.524121180822,-68.4398497625131,1933.02898804012,160.205864858799,576.780286839512,-83.8215556867466,386.686699295329,-33.2140065826481,904.371393422744,47.2572949005516,618.337396780986,-17.5598859101554,578.996304178228,-63.3666202365367
581.418650133203,-53.9035726410862,1632.55689460023,-213.294640993576,1479.03008720993,-159.872570759377,710.806820574996,-92.2133928128484,498.792337635861,-8.0150895692453,338.178780479709,-42.1546723360048,2197.49911148583,-162.767836543026,289.047281459334,-42.9921436975506,682.306017642304,-67.054734213052,1938.61913743925,155.728842110054,586.125835283227,-86.9895913700092,393.867244879672,-34.237073244163,916.237412196886,47.0693460553428,625.139544940212,-18.4870549368232,582.510469970925,-63.9823039094983
587.866624041922,-51.3037985759156,1648.30944372596,-220.479549551048,1502.36610394374,-163.608173622155,717.834289763344,-94.2056688813137,508.846031530545,-10.327769203664,339.7340128587,-42.7887601894075,2232.0642223252,-169.870261478983,291.60973661938,-43.0357174889784,699.587903074945,-70.2155167413934,1967.1483766589,155.096894800547,605.612998979106,-90.961526614616,411.021505073942,-37.5208151638792,937.543357637724,43.8446536141136,640.418500779206,-21.0927737610091,592.943093795553,-65.9868077163528
590.438110145143,-61.032682806299,1640.68591959296,-220.416684131119,1486.77155975203,-160.669058253852,711.270368742734,-92.1370839566919,500.593514139186,-8.86933198074061,338.932487795672,-42.6767427905033,2210.34412621409,-167.453485777894,289.124944636946,-42.3011533117068,685.862418071744,-68.3791138237204,1945.38009838511,157.326701396115,586.892653676515,-86.3660083513747,390.188604867833,-33.9782779406783,915.545327088632,46.3220233421302,624.48580852137,-18.4805020578378,583.874471398888,-64.6442944712057
588.344227475301,-54.4521232792089,1638.36268245205,-220.47761129219,1501.92163736094,-172.036657540985,715.483215708191,-94.0837747700506,504.079762770684,-9.0661935868045,337.764733281031,-41.5921432551991,2220.620108765,-168.322992431429,290.662608440294,-43.092590437375,692.829180049869,-70.8695936974839,1959.02873800366,153.101400400666,595.50031234751,-88.3699508919662,399.873538611811,-35.5103425766134,928.470644165599,45.0879988196999,631.558607550606,-19.9066322153193,588.489287088467,-65.3856768863929
596.895536825959,-57.676880319715,1683.07956125666,-230.990998631006,1528.06082174281,-174.616226770467,723.338836584222,-93.5252693475425,514.834416295594,-10.6694769657325,342.508159770926,-42.4706903170718,2244.78099438573,-170.696368572997,293.698126559108,-43.577060934466,707.612384462113,-71.4285766004649,1993.81880892975,148.240124312077,612.781768493693,-91.330727175918,416.160759945046,-38.3605060686026,948.952618735663,41.1437098665562,643.618208494711,-20.601559870906,596.285938003036,-66.7586132582943
589.691115827883,-55.0065776452294,1624.80138728733,-208.01787120842,1492.74755682088,-162.033404966809,714.343930484749,-94.2769726555941,503.691913169745,-9.35762085598011,339.133677199137,-42.2222258903945,2215.29700003567,-165.890151130591,289.965124559398,-42.7036772801542,690.138751421747,-69.301232519806,1959.59990163008,153.47513302351,591.702827606179,-87.0238884428835,394.974922173748,-34.6821248078319,923.895051305562,45.2718179246352,629.179735257882,-19.857873367247,587.084829848925,-64.6195947986862
587.287068988257,-56.2517471002498,1655.07080172054,-228.542212238873,1489.60681203557,-159.875822885857,715.610482886703,-93.5377394806559,508.833054956182,-10.654222539576,338.784324423856,-41.8466181817562,2228.87088125789,-169.990097585311,290.569058660997,-42.8446033545648,700.400247529509,-71.769574118116,1967.81180420587,150.305216042893,601.601468036815,-90.098578936414,403.701504902541,-36.0239710919886,933.965473159659,43.6118214694016,635.040474409343,-19.6031988028559,593.562304307891,-66.2486044617471
606.094321072612,-63.5234715436035,1667.24400934226,-219.908026129838,1518.44763785715,-172.551431477006,724.88018248334,-95.6473937342752,518.72741540716,-11.8023129258455,342.957547768153,-42.9393220140845,2267.38627139635,-183.223900683663,294.009347336468,-43.8626883806198,710.545141106981,-72.3521301451807,1989.88350346436,153.637964329547,603.603677369615,-89.9865926086836,400.553762626012,-35.5182206127669,929.22630078053,44.7854017359994,630.605774721422,-19.4696181544814,591.545586890937,-65.9157826510644
582.329552150803,-55.8427494221286,1629.21495167005,-211.245087789838,1503.76309809975,-173.149320801039,710.085535393278,-91.7957408786305,507.919097653017,-10.167972913849,339.140890620006,-42.5387666258798,2228.74777828966,-167.112912295539,289.997981228932,-43.0107775137937,691.911676862652,-69.6210528176723,1959.06955437202,150.890287879952,593.147463489787,-87.0533717472965,396.194189743285,-34.9292195169117,926.361016192334,43.0211213478756,627.345356703788,-18.5181645919118,589.740977147027,-66.0773012983168
597.457414891867,-59.5744839970515,1663.35133808213,-227.300797785515,1505.24182630469,-171.434785262801,719.288555056517,-95.227878667511,512.005049708196,-10.2782197213265,339.973851431245,-41.4063293954599,2239.6689816167,-173.213658907094,290.764649502961,-43.053467330503,701.37022472826,-71.1973339920436,1963.63730095667,155.608023870186,606.989973876621,-90.4752930770317,410.401240667024,-37.5201876734254,936.154149183747,42.9723053429205,638.988202108162,-20.3510128720931,597.919952789589,-67.6806084164987
605.60079714876,-60.024150365473,1673.36295840571,-223.868465224714,1535.63851861849,-170.104333317439,727.515092466771,-94.4359134991968,520.304329732984,-11.4492637299662,342.384451983965,-42.3591727953986,2256.54805535958,-172.648138398594,292.862964411988,-43.36339808282,707.150006417409,-71.4803177423758,1977.01513025222,151.22517278595,597.740913814354,-90.1566204176645,395.310932924542,-34.8989825595996,923.777861934316,45.3485304529936,627.977184771293,-19.2454642560977,590.592549191803,-65.6938504246199
589.816888215217,-56.6044254984884,1652.76216889546,-221.56760949774,1479.38577327789,-155.864081603337,715.137694655563,-93.4500089208116,511.465312953562,-11.0918388319642,340.385061007762,-42.2652495411416,2235.39370410987,-169.601519258736,288.679936047352,-42.37280488864,694.593924681319,-69.5466004016,1961.29005450792,151.804637300342,596.230014960366,-87.4504918916973,399.207440177751,-35.6066459776982,928.226351407145,42.7422488092493,629.471349322417,-19.0225991979844,592.525203704788,-66.6262498695515
598.534183309545,-58.8171060938467,1660.70567581497,-228.704538774952,1504.2480234021,-167.170440704273,720.077726427528,-94.9862824638317,516.749706142353,-11.7290019195055,340.427380721044,-42.5838374641749,2247.57291945774,-171.658989775067,290.663727107301,-42.6798944884073,706.546416860676,-73.8152611791721,1978.1250512809,150.911551261952,614.539257486493,-92.7299292086576,415.488000369418,-38.3842663304961,946.077759570218,41.5426919101127,643.20228350331,-21.3725034348705,599.856241743986,-68.1073433982901
603.251077613393,-61.0470539375783,1692.09950326094,-232.827868131496,1520.05074328694,-171.78298351746,721.054069229382,-93.7557574303267,514.271224261573,-11.1480674767644,341.791515110353,-43.3568311084631,2243.03682459946,-173.645178991353,289.979377618339,-42.6705276828849,697.312754178549,-70.9221492244987,1959.62939086309,154.860001845851,595.546595818009,-88.8553951486944,395.496936031375,-35.1393165915063,929.976579317443,41.9923680680609,629.871460582292,-19.5830554855012,593.068801355745,-66.6241968367741
604.521756176551,-63.6176841815447,1659.74700978922,-218.360627771186,1505.99868401269,-167.904222278172,717.772388742668,-94.4539145983729,513.561151768149,-11.2523050557345,339.453733820485,-42.2370088294485,2236.19177719721,-169.745774553169,290.026538651158,-42.8730568702252,697.055681335716,-70.1356909657957,1960.43161163507,155.404699596393,602.37107042026,-88.5480091827384,403.40581179508,-36.5933779929008,936.402542312185,40.8866750876427,633.899575875614,-19.9619234629237,595.009430399046,-66.9149439257561
602.870360826888,-62.4729046145332,1679.29927520906,-221.343511046944,1517.40101556194,-172.804158483838,724.189261320317,-96.8858813221527,521.619380356136,-12.5719661550971,343.74807507883,-43.853755258097,2260.57912977344,-174.760545407909,292.451538098294,-43.4638268268604,708.24550691532,-71.616403866485,1982.95327982467,153.911785996133,622.310108178117,-94.5848456147928,421.818642830314,-39.503884877131,957.876530784355,38.3556054938689,647.654697159361,-21.8826883984127,604.867353338592,-68.9875966787639
610.990781566119,-68.4539132893791,1672.2199569674,-233.945545652973,1491.81940859821,-162.306150759866,715.106211978253,-93.32563758896,512.652852950209,-11.4953083970567,341.908172875152,-42.9047201615113,2236.91488750519,-169.542566706645,290.438214201005,-42.9760791884551,695.3196207844,-70.0917845121885,1963.86246827303,152.189414426562,601.148484739567,-89.656419325861,399.570326142614,-36.1308342453913,937.162247853432,40.1767099939853,630.56863091825,-19.3574871395324,594.721280900248,-67.2569969594838
593.822571369181,-57.6444657897457,1684.12189020877,-236.392958068327,1500.71947323244,-166.066059704591,716.383062233217,-92.1842357345338,515.50557982652,-11.2717639514033,342.01877983346,-43.0385234844247,2247.17641283772,-174.619876182414,290.121928357574,-42.7675759461852,700.695650445285,-71.6358302331282,1968.65705851402,154.827694233138,606.27954258442,-90.9318426223602,409.059629536144,-37.5956085854156,942.268576467403,40.4299835311215,638.399686757637,-21.0197841697326,599.261276395104,-68.0354694323896
612.206813268638,-63.8057480093234,1702.2294864419,-232.839201909574,1525.96890406349,-173.67994293338,723.822437250221,-94.6582372995477,525.068868323647,-13.268031352002,344.00839610595,-42.178290359241,2278.99650832404,-180.292545903031,294.125463828781,-43.7687424813993,713.71954092396,-73.2507469144101,1993.19190690186,152.503128928777,627.072773363799,-94.8865506764208,426.751814037198,-40.484354002409,965.655061418438,36.8167966413969,651.616264517845,-22.6002936354538,607.448302544131,-69.158616113841
599.828999331744,-56.3610771068404,1675.49736145363,-224.200533263902,1494.87291014485,-158.046800303727,717.316143843045,-93.4906227617598,512.585515922453,-10.7521605035261,343.824526884095,-44.667384345831,2233.92562016518,-170.82177410178,289.648930429026,-42.5551408977956,695.648120742687,-70.4324277541459,1960.29215208617,151.667634579486,601.537262096276,-91.9587271536045,400.885006786746,-35.6308505072019,934.478482245481,42.3110920980363,631.410725089567,-19.1827386938314,596.004377718306,-66.8258979980385
603.22045639176,-59.9362126479022,1676.02093341914,-229.476426018922,1516.14274433605,-168.566603914883,717.082701637841,-93.2276684257246,517.864773081798,-12.0468508167406,341.350627634481,-42.4036725592351,2240.06353073715,-171.120179372496,289.874401841407,-42.6232020431765,700.40717414742,-70.7933025542145,1971.31370804053,152.89405243319,607.136862094219,-91.059720504823,409.100394893096,-37.0257393949741,941.942140407745,41.7923873131509,638.58520384062,-20.7591219592713,600.787952606247,-68.5939185630047
607.676379195765,-56.8883140907347,1690.58984658084,-224.804467010997,1521.66116422692,-172.058986875715,725.364920928992,-94.1241367987296,525.535737957038,-12.4545234880284,342.788754702473,-42.5728733049427,2265.90423702183,-179.959165008306,292.776864401887,-43.5088749092514,706.992528502604,-72.3709259994397,1981.16062420506,153.618230043852,600.630071410965,-88.9656714059556,398.732004565144,-35.8079377064871,934.254188010012,39.7594018854941,628.004837674858,-19.0025869491318,595.200423145116,-67.6881071147206
601.584788494355,-58.745769834976,1680.43412621043,-227.744515211172,1499.19502701824,-162.354556025878,717.416661747118,-93.4560902566736,515.557352780665,-11.1773547970789,344.025084834431,-43.5518886346723,2237.68702175319,-174.322833683333,289.739229989792,-42.9557455886232,697.855196310723,-71.6825095301097,1963.9490659538,154.159810706491,599.978413181403,-90.7625193898103,400.635286759185,-36.0726084286371,932.8072568374,39.9612157720194,630.395423062645,-19.7015283045354,595.947657816244,-67.4322752896394
615.826674955516,-65.777921716339,1687.72058294309,-225.394224422952,1499.10803032571,-154.523540157085,721.434688310151,-95.2190360223017,521.657765379565,-12.7824658387268,343.604247755004,-43.1425888158123,2248.15719083688,-172.383653544558,291.014419193592,-43.0210651035925,705.211381184484,-71.4267575433726,1979.77577985153,152.683290447377,613.928584098055,-91.8666253609052,416.606583928165,-38.6170715691956,953.368142122962,39.5089450558852,642.459777244206,-20.9514750892774,604.87459992978,-69.8047500984797
615.90536538027,-68.1267621917889,1694.22367424424,-236.751268563155,1508.44216364844,-172.990486454266,714.100944132656,-91.7903963371207,513.743375843529,-11.3300577487382,340.232596793166,-41.7330906746899,2226.95156228054,-170.980638428119,288.597178246957,-42.2563661681825,693.968034510901,-70.732964507435,1962.35164302733,151.282389017558,596.907418280295,-88.8372515064975,397.52103897283,-35.0153309766625,929.378800047561,44.7322377227643,628.017600606779,-19.1183218017693,596.876088289872,-67.8268258358178
619.798666083677,-68.7292213982414,1683.1552659971,-223.500507954888,1524.50556747453,-172.130696366578,715.876255700427,-94.0020565411591,518.310600719504,-12.0233897677968,341.603164884661,-42.5691357712063,2234.63120215429,-170.138664505969,289.678207928005,-42.7847771889641,700.669634512254,-72.5155703296241,1969.20200475362,153.286244913033,604.13607829839,-89.9338740357003,407.725632513143,-36.9055129886058,943.043253193866,39.4549780629652,635.013037949025,-20.0897141602186,600.082583904026,-68.1069440769043
623.400155438229,-67.2292947084513,1711.21482164395,-237.145570961249,1526.97202083786,-179.871640954228,726.648642002757,-95.5961211390781,527.220840061824,-13.250291599023,343.682266048939,-42.3689407129251,2257.14848920486,-174.709585983168,292.087208817868,-43.4055390281201,708.582542920881,-73.0513792833676,1983.26517782155,148.026480274205,597.998907693938,-88.4822659915893,396.861000398124,-35.5013340746295,929.653942175907,42.0599144817156,626.890760016382,-19.2306554267778,596.521783902407,-68.284840155207
603.342864660356,-53.6788373537913,1697.83345555549,-245.778703910683,1514.75966306765,-165.487820467056,717.882032061825,-94.8068527271316,518.591739777208,-12.5672196307606,338.979822804153,-41.5065838578287,2227.30156359048,-170.181859567945,288.21900550799,-42.1676507708202,696.582816341353,-70.2444208915158,1966.20406528352,151.349328425742,594.592937047647,-88.9753450622686,399.273072681019,-35.5463470941361,930.486886286441,42.528740917468,627.950965527771,-19.2589192570148,596.429561496425,-67.7555451408779
612.145306413055,-63.8027752969573,1685.04795945069,-227.291771498209,1520.30669171416,-165.942410687764,720.818893865718,-93.5822239961638,521.800778441394,-11.7167664224307,341.869124702269,-42.2595118570646,2243.25974849596,-174.670213389292,289.961775576733,-42.6372662936247,706.23494240017,-73.2611547517623,1979.51143967814,151.375243717881,610.046630469273,-91.1392622979686,414.699034591513,-38.6678439571312,949.196568753986,38.6810172920936,639.600643806218,-20.8876567433749,603.716474257486,-68.85899074892
606.478816394536,-61.0325529569175,1664.94461877315,-218.238930657809,1499.41710049746,-170.365815979682,713.32818399328,-94.2636421870815,512.358301994676,-11.0082895878995,337.850576671955,-41.5537955304755,2217.68276372778,-171.082477659889,286.565238409237,-41.9271472074804,686.530272717626,-68.0598190597437,1950.0302115091,152.751795761424,589.925682109052,-88.226452006641,394.080217963101,-34.8031490937066,923.21015504132,41.868205079671,624.868735400859,-18.8979986534184,595.127393152941,-67.9999526735179
613.972029691229,-68.9060474758878,1674.12750079498,-229.388556058032,1506.37363285341,-159.500324082016,717.575583592111,-95.5906552824862,516.13916716816,-11.5821020628287,338.200914881007,-41.8376590903909,2217.87786018194,-167.244757042999,286.796906222637,-42.1194804199218,692.176837188846,-70.1056147339878,1955.96163064747,152.211025454388,600.181615120027,-90.2241168305938,402.379848465057,-36.3883377049523,932.583718877743,40.8401155081146,629.374063868735,-19.5951091456835,597.918928882039,-67.8063896272713
617.791284050005,-65.9813188751764,1699.22675987519,-239.842819267273,1514.45245570198,-173.57436722819,716.370916718117,-93.6522230768196,514.809776070183,-12.102867056758,336.226725418522,-40.7912368768364,2208.62409725387,-166.324102281657,285.993401413306,-42.1874922132286,686.658259795773,-69.5513064741972,1940.34095955936,156.489031465615,581.411875247011,-86.1274742974637,386.775845673551,-33.5803482341026,915.30080527206,41.00204913575,618.09720245718,-19.1287600426634,591.543227705672,-67.3030182923186
604.223026434523,-62.5587846839653,1671.76284909461,-229.192276602454,1502.1303949062,-162.274622514244,712.201869822943,-93.6587025821371,511.825919947873,-10.8966121156017,336.613037444306,-42.4345424370146,2207.488844749,-170.301352391062,283.921838371332,-41.2010710416172,685.553510440196,-70.4510596195955,1938.35787522657,152.507230331527,587.39479797459,-86.9225031821799,393.569986300944,-34.8686251831011,916.384386228513,43.0901024855394,621.673127251424,-18.6368271872147,593.558075919321,-66.8998613194284
606.893988295172,-60.2096128999714,1667.4940966334,-228.517302857908,1511.72955361287,-173.545298189352,716.900089350213,-93.6780835012501,520.419601263257,-12.2438831100882,337.37121142631,-42.0991966536343,2232.28123621539,-174.237751253013,286.319492603153,-42.0308844491254,698.082977656308,-72.7637764792719,1964.63991160992,152.104212297012,604.108395001824,-89.8098475789713,410.612616183788,-37.8736346418093,940.666799208327,39.3767018132924,634.468810492441,-20.0140234655617,602.691023769008,-69.0119945757967
596.995842522621,-57.4289713367903,1645.73786847375,-223.621234547608,1476.85280639315,-153.592880180556,710.772895975334,-93.4395813886572,509.085996654577,-10.5155336683008,332.837229741794,-39.1465661686171,2202.50581111152,-168.885329322158,283.179342274188,-41.1584084912472,679.499950195025,-66.3248758259756,1935.35307107383,154.399015028765,580.081862907472,-84.8234921391857,388.745106517314,-33.9104346995243,912.509168528496,43.0707933013203,619.073188023906,-18.5909603110289,592.612733915437,-66.9118018969566
595.862620674559,-55.2811374772025,1650.58173579458,-221.582529026882,1493.0858214075,-162.52380030465,709.80026125244,-92.5973063549263,512.316507320978,-10.897146535851,334.423095063599,-41.605811626244,2202.77906027769,-167.071447828115,283.427184392779,-41.2512212014085,684.977022520762,-69.0804167774254,1942.5497163229,153.764883685485,588.51241995454,-85.7340975863626,397.744553644668,-35.6262786740136,920.34313825448,42.2071259779756,624.300206527842,-18.8343141066118,597.202973246961,-68.0972543652887
611.090724241981,-63.5182034658191,1687.49415152536,-234.90276589232,1495.89077152271,-159.53096808281,720.583076467023,-94.1748203479888,521.082647577723,-12.4436592151545,337.59049450405,-41.1948578081285,2224.62074477732,-170.033018893241,285.917840034188,-41.8789973063365,690.745332549145,-69.9770609772221,1946.45114698819,155.631870465167,583.677616503204,-86.6977859953705,388.236966244249,-34.152519315112,910.296742127909,42.3175090861018,616.098118952718,-18.360186087993,593.400177828611,-67.0561508668391
601.441667785498,-59.7255319132026,1669.18878274849,-237.454985913052,1485.22133853531,-158.088201634603,715.776958331814,-95.7650181667865,513.421867132815,-11.2244593067761,334.799517747444,-41.7531975842015,2210.83279481128,-168.736623888496,283.512741246496,-41.2739351526569,684.856558047599,-70.5698304924504,1953.94646073721,147.157918944653,586.88097681306,-87.265537838791,393.526645038337,-34.833957018181,917.47102482293,43.0922719234031,620.308425514933,-17.9406573845113,594.700030935026,-66.654770965494
602.826715327054,-64.1061705295269,1661.71027874819,-222.810355078055,1508.02862963119,-168.461073758952,720.933363755503,-95.730657617482,519.825316784558,-12.2298387640676,340.604677874353,-43.7850268425505,2226.8221376061,-168.666507679126,285.923476139203,-41.8888388188251,694.451622162645,-70.3862509000612,1965.12830821446,155.965353608664,604.177813775973,-89.690656580516,411.92373230532,-38.2581287346838,937.663924213212,40.1157773749039,635.593687682137,-20.073067095157,605.21221294831,-69.0956320745607
606.404422153272,-59.7779142414207,1661.20494293817,-218.157497352413,1477.65110605472,-151.117156237631,714.576172388513,-92.8599231790471,511.912317810011,-11.1183324431593,337.267108140172,-41.8378519429411,2216.14063557944,-167.142587343198,283.51559373639,-41.2121509912347,685.242416562011,-71.4368654116252,1953.4329148338,154.114494050658,586.390377805755,-86.3173948607731,393.67524365221,-35.3188058941516,919.279748796415,41.423034009907,623.996131038093,-19.5287420635342,596.909242199225,-67.4947051220078
595.046071654603,-54.1707494139887,1669.87503848404,-225.075681624198,1496.34066086949,-165.344930400613,719.749682342837,-95.4707420016586,516.632205681552,-12.1671425435974,338.705167359131,-42.5870580162412,2229.22714576593,-172.919145360979,285.00986889766,-41.5595007042206,689.966697185235,-69.4774830738707,1969.99235573557,148.828059660085,596.656861129596,-88.8109826322764,403.304899452037,-36.3081546373865,929.934456003183,40.963081447176,631.019227045457,-19.8045058229701,600.528406032294,-68.3154974378082
613.821288981038,-61.0674223880197,1696.88807145552,-234.414517205895,1520.92600976209,-167.536811753777,727.980857584163,-98.1412305934689,519.949272371219,-12.031155221215,338.993145126739,-41.6173641781792,2236.17345656759,-172.889513939463,286.083284126277,-42.1176020418109,688.32959697443,-70.8709156568164,1971.71829217178,145.133146767677,582.257405823236,-86.0067894417212,389.483424138378,-34.243219810792,911.343905209033,44.0756017132298,622.080941314326,-19.2541287032636,595.752558584281,-67.5546565575137
604.240327547977,-58.3002430104477,1665.93502237144,-216.633587096196,1503.9303816438,-168.069270586356,721.70267383863,-95.9029008267916,514.815705397409,-11.3417359218387,339.247494327117,-42.3502628792956,2227.66792783415,-175.138090955633,285.102363769558,-41.6560638993457,688.936295532354,-70.6475829962306,1966.69932827212,150.933796777492,590.165305471003,-87.6831041702062,397.433614370524,-35.9414670196983,926.400588830323,39.9234668225863,627.991073341354,-19.5731057478367,598.269157756147,-68.5204655871389
607.164758496742,-59.4777584449901,1682.20726881478,-225.143947513004,1515.22250906217,-168.620634627744,726.07913624057,-97.0117373725328,521.490625757436,-12.9527558518654,341.02655147851,-40.9906286678991,2257.19224888183,-180.347716613868,287.962404672322,-42.1900849694278,701.208504656005,-72.7946677376002,1995.05620326822,147.737010455525,607.582263532621,-90.2987770460752,414.963394451943,-38.7355916275025,946.714482679013,36.5005310945742,641.304674876979,-21.6218825587179,605.288498510884,-69.2038221274389
603.689117531071,-55.0204728887233,1667.29671735087,-228.117202934465,1505.87325216612,-163.373476417219,721.865954389837,-96.3610060542457,511.174224555904,-10.694508555817,341.251260862566,-43.3321068556318,2225.52279746044,-172.737247521895,285.541686149513,-42.0696435503685,686.149438405549,-69.7182842842457,1963.21466502011,152.493297777497,589.084815043401,-88.4017221291126,397.345080551869,-35.9876629324361,924.652945331945,39.798422542873,630.01473151277,-20.5819228056406,597.145671815998,-67.9201105554778
609.214984385943,-67.2966171937719,1676.70547645841,-226.010971936479,1505.74917423843,-171.924015808634,721.165321603897,-94.5303275183844,517.642954175518,-12.5045782156323,340.921218370376,-42.7307045162129,2238.91626805333,-174.391287463999,286.773006551,-42.1716711925425,693.083639458424,-70.6398171532941,1983.49129172159,149.159316234319,598.339286992395,-88.6339844025441,407.19948020033,-37.5116608481867,933.014788879935,39.3157465911435,638.048387701637,-21.4341924637329,602.818059534266,-68.963736083733
604.540952696668,-59.2001422803687,1669.23866976963,-222.298531754813,1518.64493243498,-177.125253567227,722.40359219916,-96.844553224746,510.585523792675,-11.257361325685,339.858089331845,-41.8573319747618,2220.66772289349,-170.753171446902,285.33683402276,-41.918835609287,678.516209126869,-66.1601641402949,1966.58407617729,148.227806470659,580.822462564252,-86.8240106575038,388.925306675441,-34.1362862080694,915.33289884265,42.3877829365824,624.442440356952,-18.9718614885901,594.319798902385,-67.582905804229
607.400138582521,-55.8005674086706,1673.13395663858,-226.264068309105,1508.24919647234,-158.114177176223,721.5217733402,-96.9063902489334,512.702055353861,-11.7894854765456,341.009185123468,-42.3063878550951,2221.24688885237,-171.060721029812,286.199471751017,-41.9996884850634,686.471486167475,-71.1055306192005,1969.6349136925,150.543166931552,590.404771218794,-87.7624509833542,397.891491227414,-35.5671730599392,924.392406246488,41.536088389661,631.936705702643,-20.3189308525548,597.488176882448,-68.1093055100656
615.12983447462,-60.7389367651113,1696.88736066044,-232.03391684608,1537.55558903863,-179.143774892115,730.01145421559,-96.8626024604112,522.587839537744,-12.9426904827314,341.779141442717,-42.6611003533874,2254.62682399754,-177.78956003583,289.144282660933,-42.6072635045682,701.800211386913,-72.63649486516,2001.21434621646,145.444067560772,599.120311281259,-89.7388520285236,406.551850257538,-36.6773707849273,931.613202187032,39.7151375447416,634.562860727673,-20.5503180938973,597.274848030694,-67.5175340606434
607.088437358642,-54.1217114438359,1657.51645883465,-221.036725516073,1508.98361188798,-162.958214696163,718.310764353592,-94.3380047152569,510.230813771352,-10.7677713007365,341.211371809803,-43.3376146988092,2221.92754235088,-171.543043484697,285.512119005665,-41.5051678879884,682.226578525379,-69.1687353346189,1970.61574174721,151.266626619501,585.899021746372,-86.9259420448513,393.393018281156,-34.6657428834275,917.797903560243,41.3876857802316,628.437515574597,-19.4199915237015,594.91217952709,-67.4484932662692
