267.387048366615,11.0517362478125,545.944058811213,40.8086459803123,46.8202547055071,-8.75838451475313,1214.51178540196,-129.490116010251,618.915874227669,-37.8321692250988,60.8019626585827,-8.917337505335,304.148176852647,-30.3470623084296,992.176337479151,-155.19442622338,612.315299210945,-111.193618118137,840.88357430662,60.1420982196532,255.549207340183,-43.2617437882463,704.876547236783,-175.664492200093,1593.17058979412,60.2680199425199,1922.82936803927,-201.990904429252,347.915107241354,13.0053787405908
264.139347062779,11.4014920152091,520.928879563872,47.3706422147151,39.8921222312437,-4.18245197551053,1216.63715098823,-136.122697867037,612.008558261115,-36.5666271738688,70.4912044606922,-16.0590749529075,298.709549145561,-28.4648328271175,986.508969163781,-157.776461843342,610.256540176424,-110.746815961453,827.416347878881,64.8558345105827,261.663399538237,-43.130315169343,696.032389956014,-167.912203986752,1601.81807626206,54.4270215112145,1920.90177999977,-200.059440481161,348.074819859407,14.1575050065553
268.812744194217,10.068436057208,546.799339667619,39.2552658977242,34.2831845314561,0.887579668223246,1194.96831730669,-114.719922117491,612.305599505944,-36.0637535337648,56.6710377624744,-7.25567161267698,299.860122530108,-27.7903004036446,997.384519161138,-159.643075346839,611.074786453538,-112.947415361257,834.702077482509,69.1847260547711,254.138358357664,-39.3111483509231,706.563358560508,-174.175297067537,1627.00478843775,52.3107675240209,1937.06345973844,-186.744224394577,351.868319459681,13.4442100992154
264.963183384119,12.2848149804986,551.511806081985,38.2357712321044,40.2101278805357,-4.97595316082541,1206.96591003907,-122.18567759439,608.108858997458,-35.5604572654024,64.237649420288,-10.6851417873927,298.846390346076,-27.916209814377,990.027724506801,-155.752826400048,619.409982325329,-117.567624315898,817.463666745958,73.7446482907169,238.203051584199,-29.8596678636515,709.207026314367,-176.923788264925,1605.48054409042,50.3419318854031,1922.22167945853,-191.022722998536,346.063366252187,14.4030095307829
261.797660449778,17.9952463242955,549.674727023602,27.9450376929222,45.8735531953136,-10.0008223738853,1165.62229565426,-101.183774734567,598.740317225511,-33.2406193989405,65.7991540184567,-12.7253242123538,296.967042300604,-27.5975063900699,982.826100631409,-153.355435430186,615.581229401091,-109.1641424306,816.185331028422,71.0058560324395,250.727683807519,-39.6278034011132,694.932540171183,-171.190108443056,1593.16374447564,59.5844897072266,1933.36893586797,-198.14325666288,345.727436939842,14.7539081728533
254.400665123235,18.3207343073823,530.669109250517,44.2381112201923,39.5822051741239,-3.33119274290847,1188.14995337726,-110.903420306904,598.994667104903,-31.3730082200902,64.9789672042486,-10.6022303709916,298.454882638531,-27.9585983380376,993.182421596807,-157.671911246797,612.980075130492,-111.663304731428,841.090120087488,58.8464012331936,252.581825745799,-38.5408355781769,717.721748217961,-178.543945133348,1612.96436897446,56.6128904352204,1943.71235803402,-198.346940664891,350.033983377421,14.6041119384132
273.445540460695,5.77314111679773,535.834343562953,39.6106214242671,35.4865040883056,-4.44142716235154,1196.73504820305,-123.183408167322,599.290268218038,-32.512186603376,54.2142878553322,-4.04697057074548,294.626367792164,-25.2417682980352,986.78258449507,-154.889911656691,609.648218702287,-104.376694181799,816.180952583306,66.5180300874199,237.91606440731,-32.1757151601135,693.813391466899,-169.915016985368,1568.82519177276,69.0425652673391,1917.52196037893,-189.778964012389,343.254784511989,15.575644422273
274.661285492944,1.23179338243901,522.430848824413,44.6215804040449,36.9120421885663,-2.03143782583692,1167.52671278036,-111.217485299197,594.221511942041,-31.2604576796096,52.6161515053541,-4.14797121426756,296.261107921329,-27.6453320944402,983.218102912176,-154.444670605196,617.37086540857,-109.910006510317,812.738462876226,69.519594873629,252.457262651148,-40.4646013849052,699.831486765341,-168.257683355506,1566.24970779496,65.1154368371074,1911.027038842,-187.54771199455,344.632192694025,14.8063355527724
263.449453668823,14.8779404400807,520.461294369659,49.9783318872946,30.6295091773257,-2.87529541708343,1172.25121991697,-111.470177937456,598.60920174356,-31.0160727528777,57.9808027973583,-7.81883334392171,298.000361842934,-28.1686633962196,991.00034271584,-155.618958490216,608.007274559582,-110.591621827072,822.364553899826,69.6745991043209,255.616410744295,-41.9476626250192,704.41028057039,-179.280996840208,1596.5053917733,57.6349851709541,1923.11335429927,-182.772953363157,348.433485699927,14.6345179318128
273.128396268004,6.72621427495314,520.833096915786,53.8834421225979,38.9260010412881,-2.36594410907029,1171.18680512566,-108.672530271115,602.172373353359,-33.7477943040611,65.1097330011457,-14.8171605465867,296.784118281936,-26.8491607142881,990.962513418578,-155.666855087068,620.031456501607,-112.960019836193,807.074917568828,72.7662516027467,245.889313021328,-34.3025053732106,705.832151837115,-178.33131133712,1565.0824497114,68.2507288946884,1900.98830500925,-180.121440023521,342.922873259151,15.1373551629897
269.68600686453,11.8161933217449,522.680118084611,45.4561602774262,40.5130943835333,-6.37484048908624,1149.81223710826,-102.743689415101,590.602228643678,-28.6398521867989,64.245494054823,-11.9376502556458,291.349686111909,-25.3184488785796,976.804296103295,-153.5530645837,614.726133927711,-117.622577457656,799.00100021826,73.2925372123839,243.42998987474,-33.7413954069626,709.440435582259,-183.184416165633,1537.93497612381,73.8792877145498,1895.70783640972,-187.050920320505,341.891296275971,14.3266265228259
270.301605219431,8.73439818407649,516.861004154994,47.7915504572052,55.5743971565412,-13.0210011473932,1149.77872299877,-107.457876923199,591.567543476497,-29.1784343701108,60.2082230522657,-11.8417435278762,292.749010303975,-26.023660023659,979.444827067919,-153.719773981168,606.171906888082,-110.068875533426,794.821091526376,74.1852115290512,252.947203502787,-43.7849618806134,703.899881763125,-170.14585892713,1557.55780529457,68.9036990976202,1910.94871148598,-190.792487521655,343.15865753784,14.9140456432754
273.897872983636,11.8388899965231,526.127162864887,51.1692773187515,33.269706093699,-4.14313661942657,1172.88442978698,-113.666228563261,602.504072214882,-31.1262102223347,50.9983468592709,-5.03201585665417,299.146956670496,-27.6098839447722,992.910912764729,-156.862899602166,615.509466495566,-113.250667871855,819.495887699636,69.2908616436164,247.712319124373,-33.7445965949533,707.414588632393,-168.310337395624,1581.25066729738,64.3117155888524,1948.44016813003,-202.101586045015,347.782382311415,14.8314272364465
274.46118025387,7.33554552764004,527.205322332243,44.4894707837756,38.9069397866091,-1.03812880865265,1155.84110497633,-112.321719940938,596.230118162781,-28.7460123153496,58.7249090196655,-9.06765152945127,292.303052714897,-24.8644975950105,977.175050020361,-153.286545388092,602.255753765364,-103.473723905222,781.135650382504,75.8716768744543,248.073858825684,-39.7752137587055,708.826468492592,-175.319199603955,1542.29968783337,74.1827437148197,1924.56472506092,-181.602944165599,337.728262348762,15.9504196505052
270.998586508724,10.6908961474411,523.416540305622,38.3714198581766,41.4895527263826,-9.14643655853321,1146.48367876537,-99.4288196261168,597.255625615347,-29.6345026122592,55.0545064606318,-7.24499395279883,292.330240521636,-25.4012553875632,976.864557968638,-152.142817616103,621.984896966768,-117.284666222225,785.976455754294,74.0884315665291,245.157174135686,-36.9375714527824,706.056844235901,-174.358738904698,1548.21481370987,72.9915344253627,1945.1096558571,-195.752215484377,338.655093151883,16.5465393168948
274.374230293519,10.3191627490488,529.080513619975,46.5812043511976,34.1104718601328,-5.7411195341713,1185.04136336328,-119.893980599629,605.602862092055,-31.9210392806055,64.0853163197694,-13.7862078015082,294.743211717689,-25.3235512286434,990.279884288385,-154.807471879971,623.53991511266,-112.978916820448,809.343476863502,72.5204460997399,256.184629873033,-41.2632887701821,718.840039979994,-182.383771659918,1586.74453991227,68.1870414411236,1982.92162574502,-203.258523617025,343.833093713544,15.5785703423591
279.828055465193,7.67228032538846,529.132458796005,52.2266336980769,29.418111697255,1.423116361708,1174.15754006491,-104.659365582511,609.160148295246,-31.5123471208932,56.6228584104648,-5.75607434225662,297.022572567203,-26.7133495324572,988.083082669423,-154.142044505163,621.845239127906,-114.923270556643,795.463953049783,79.8866194259103,259.179136066381,-42.7432296453958,715.926990956632,-174.431164628356,1569.00175902364,71.971332182836,1960.28728029428,-188.92212634394,340.363520564918,15.3615124410924
262.148548299829,20.8551340811804,534.596092038643,41.0003619297833,39.1356807981521,-3.89493167962201,1164.69203410256,-108.838379396506,607.059358633282,-32.2144635364677,54.7116906555882,-5.34673518318687,295.815078654498,-25.9354615960889,985.02492787762,-154.628550979806,628.130725701517,-116.719531493936,769.039582231064,86.3483331055995,245.024984469213,-29.6758709051562,702.026589358507,-170.368885090277,1573.60013880327,70.15263753503,1970.37415581721,-196.11447052916,339.497722458186,15.6060106662898
269.809175842017,13.7002697754749,523.498868309749,47.416524636124,31.4577964272673,2.32241533317973,1184.14367071519,-118.041911376676,613.633179737266,-34.198498439289,61.8750524543626,-15.3217586027972,297.185483610923,-24.95532013507,988.623211274072,-153.683606545471,626.858481092401,-120.983386993165,815.583167548362,66.8190540173577,254.126664078432,-37.8362045801637,718.192582823716,-175.101506836605,1579.83526707076,71.290891946706,1990.87765628586,-210.625575562099,344.077657447552,15.56106736413
272.22473568527,9.38922997437811,543.977962170195,46.3834641062128,39.4700979997243,-4.54295691491306,1189.66518292164,-121.09398598611,622.798052070832,-34.4896674962319,61.4798417928524,-10.6267940559014,301.423556290554,-27.0892770956105,1001.41035273375,-157.880383678104,618.483063790111,-107.851137271896,815.646690058883,71.3486648092869,262.576837483125,-40.0137425613987,719.626699110637,-181.37137097082,1590.74158261699,65.6008651118688,1991.06813037959,-207.07214873085,342.142429783401,15.5262983048556
267.720879292565,16.3454238200213,536.485312313776,43.7034745401005,49.0903759899191,-8.76617185182807,1170.05583358585,-108.506683649933,619.503644494351,-35.6562248287482,59.4294835308741,-11.5950650184405,296.717989016677,-26.3573814749613,984.131353619066,-152.293095226886,628.204491143452,-117.280567357214,786.600595189412,79.4772862345622,236.165371554193,-30.0043240717015,708.756517626235,-173.02896102593,1569.51773914799,69.5692489350938,1961.26532909767,-199.092009395128,339.898218232742,15.8166759987113
259.217478367474,16.1017921618344,539.304838977109,44.4281674346515,43.1500919199222,-4.73569532042375,1190.1046157045,-118.481637369182,624.50760943709,-36.398766318894,56.8270269154579,-7.564575857546,298.757995295481,-27.0034282084935,993.433733149843,-155.812053251513,636.557230469647,-126.734025758499,798.757703638366,86.7685859204903,262.223062798567,-42.6878050970851,704.484047829318,-167.457731328377,1581.23232105864,70.5730205739722,1975.23885721543,-201.631248636701,343.242952582774,15.5904919589749
282.94586006621,6.39144851957013,553.129584294832,37.0534082862196,42.855892493643,-7.00785305104063,1187.48500603488,-103.691057255952,628.722982207637,-34.0625533797324,57.2748747990599,-9.46605817250112,300.967541779454,-26.5266075555424,1003.68618883087,-156.896533722284,629.115464527191,-116.530114797918,831.615141199157,72.2953774657225,266.459290635136,-41.5436021972905,724.465687703101,-178.692540224755,1626.74194571613,66.255107479374,2022.206713275,-223.374086124211,349.274004953649,14.1628035535945
285.331023995769,0.926514993918574,548.83077323399,41.9223994040741,39.2966608232398,-4.1487749832306,1175.62546907579,-102.655380104406,629.296533045682,-38.4841878322535,60.7771631077346,-10.8699099244899,297.420740225349,-25.8747116469143,985.161271969145,-153.008126889373,622.496589375571,-112.135088562751,787.699692850178,78.0756273458382,253.75249345873,-38.6369223601914,718.479551629395,-174.187276182509,1568.60168256238,73.271508578143,1965.9006668703,-204.498395875966,339.993516354588,15.471149234438
275.70063968545,10.5588638007415,534.186317398781,43.5362058056509,39.42029013378,-3.62003510038747,1166.60898069487,-106.178443825616,627.503528471454,-36.2987874694511,59.9754114237182,-9.80309259162592,298.137697485793,-27.1005983523303,987.922065594708,-153.23218121557,604.338778563951,-107.331144151519,808.997295589499,74.5877363154889,264.838788812193,-48.4473249491579,710.207628140452,-170.955955929379,1588.07390329263,63.758987479356,1941.74061730866,-186.511149919329,341.409029802717,16.4663351139596
273.66235967647,14.6197504680856,542.791831923556,41.3386404107919,38.9681307569445,-4.10602394394931,1188.23771072103,-113.66541330365,632.87119802824,-38.2506857195062,58.5903479401697,-8.3067817253622,301.295315040676,-26.4051624625352,1000.49057419803,-156.816387044694,620.184579271316,-112.457685980101,826.513728437636,79.3180540853062,259.635838253193,-40.6007752781254,724.906010926868,-178.576579552011,1623.7890966796,63.5117380022106,1987.28582351637,-196.350572686806,346.576540360621,15.227530064557
274.965505633933,9.07935292355811,552.072988499858,41.0660724109863,40.8830614858859,-1.7662729252005,1201.10632454661,-105.629654183015,638.638977419062,-39.5811751001748,65.229679462096,-11.2876090919475,306.136501830379,-29.8653495288903,1001.04324661661,-155.520605805246,631.227352818649,-117.686963911351,813.943335048613,71.5655903510874,259.298983667968,-39.6221729541381,724.042010326551,-178.467188960993,1611.39333711116,66.1403425725232,2006.02361768581,-213.335363049999,342.486219207236,15.8516620804781
273.182866587873,15.3557927355785,531.805599357771,48.6399382685511,42.4537917982761,-2.34939839722496,1171.7779723413,-104.407251138611,631.77903373947,-39.2561025316825,55.4726213899653,-2.94422579128243,300.058486102469,-27.3603944866694,994.033541876127,-156.992413622947,622.699000288273,-113.57513779767,792.77842581972,89.1676665853957,264.332119818344,-39.2631981119521,726.64193318689,-183.026993064492,1609.95512037547,60.8865311980828,2004.79981244828,-210.17235843075,340.598230719337,16.8342910385933
274.891042366279,12.1612942267606,542.068937747695,45.1587674833182,32.405333442315,0.122218860725034,1187.18082189448,-104.39915697407,635.501534528519,-38.7425126749267,51.790073199677,-6.46469949251047,302.486384981229,-27.4237295574681,994.746595016692,-154.8153474894,624.961221799304,-116.999686383856,827.86409780441,70.1948324046347,262.117437330234,-42.9686657924065,722.217595550835,-177.895299404204,1621.12640085218,63.5481469778673,1995.77143393696,-207.666730068181,344.461320290544,16.4546106451448
276.815594685111,9.50357039950926,548.000905550035,43.6719098025977,41.7588924455278,-1.03852130276898,1204.17820845096,-118.93266653275,641.709058044126,-38.6360103538184,64.4178989922011,-10.4197903618536,306.893879246547,-28.3497617862366,1008.50962865837,-157.866946280795,624.89172847752,-113.458637111487,839.289723237868,69.0547588674315,267.723517481542,-42.6591368729892,733.941744369025,-186.60306006806,1635.8853292728,70.2719755675816,1986.21904876974,-201.803098010971,346.798823861956,14.9230036464248
275.084204103435,9.11700017964761,550.277443501841,38.1523429057474,42.252145394343,-4.31206001386338,1192.78621040827,-109.309880201944,633.617098573236,-36.6625711504295,56.1494338358268,-8.83123867671825,301.827837378248,-27.8351832520197,992.349926152198,-155.33459756552,624.250090686238,-116.762842499259,821.494984239235,70.8135108228088,252.443387134794,-35.9298812639085,725.149560265734,-176.032793325654,1606.80540876625,62.7689480031537,1972.20379629957,-196.170237173144,342.148212601282,16.3082296593999
263.910625698604,15.7359901381539,544.523602540043,40.0813414725474,38.5577094537148,-3.44638160797704,1182.41904642517,-110.001976346057,640.361615920641,-41.4811097062152,59.9947675124975,-10.6513900254399,302.782504765576,-27.3905186109355,1000.88043271195,-159.06360783315,617.85314508386,-111.50185357944,820.564220406271,76.0807153549636,267.147853705995,-42.824034698876,722.226034057748,-178.111821839054,1633.15706741205,65.2140652085033,1983.39778381813,-211.359507838609,345.329856042354,15.7869980586623
267.414438355508,14.6957436288563,557.984724001629,36.8234088027113,38.419723700965,-6.08373471865461,1206.41870464345,-109.017849478819,647.434660536253,-42.7079608220504,62.9575155126709,-10.9581602777328,308.172793146806,-28.6026930743429,1012.22483654147,-159.812592086597,632.0206870704,-118.107394016308,857.957073789883,66.3574550709559,271.246915050469,-42.5876933708378,733.654059814639,-187.592913698088,1650.14108499686,60.5342224343339,2010.59127229562,-217.854665347997,351.279129024493,14.5280693131021
279.420559031744,6.58150314458442,557.027143935071,43.0111897454697,33.2866401209127,1.50698115967559,1207.20140231891,-117.954321887352,650.019561204985,-44.3922025974876,57.1363259136756,-7.12542964777779,304.92082796682,-27.4713008668932,1002.14783591442,-156.507749262184,630.014741724469,-117.976169828997,831.050592048539,71.0846516629193,263.054367634179,-37.7343455682953,717.565255626728,-177.153429018477,1621.94989948323,63.5946202547736,1979.76136879124,-205.886867049146,342.486506778029,15.69127263552
272.698522167755,12.9614934193483,546.308049339403,44.4658713831013,38.894670361613,-2.40389797286154,1197.84705379368,-115.508389738597,644.589100006448,-41.0987950030928,58.6975365464027,-9.38847179558515,302.949801310941,-27.1518871544487,996.957914516188,-157.868571899941,620.587431204133,-109.693293909057,832.331352490732,68.1233259948479,271.18911013886,-42.8849232533911,711.557998715856,-168.902672819561,1635.62511776744,56.8949525178329,1949.55211201513,-200.008309566261,342.990596909752,16.3734136214183
263.277288155147,15.8987804721031,565.370679680714,34.521744772266,43.0793127942125,-4.06264133359283,1201.07663138919,-108.707507969163,649.721011804399,-42.6913474415457,59.777912016478,-9.2945010765098,306.40418691284,-27.1470143869614,1005.71591017016,-157.136752079715,621.502994076613,-112.176507817115,851.716815419841,65.0388570861607,271.290814486385,-45.6378013159797,729.73168222226,-185.511002223761,1658.05207589495,57.2849424218122,1991.08985623988,-210.864841385714,348.183927163561,15.0195000705266
271.915731666455,13.3673581695491,571.829334958997,38.229988175527,37.0071309449849,-2.0750919188443,1217.75253799748,-116.693773875221,659.224711069507,-46.9065489849361,62.3513868746556,-12.5853444765019,310.119145101715,-29.4152438898089,1011.40036478433,-160.653741747311,623.658694075914,-112.035948668391,850.291286154435,69.2626216233924,262.441004252381,-42.3546253779556,730.829115098451,-182.747674071937,1658.78234698637,57.2726913308493,1978.62962815574,-193.935228404363,344.392565001823,15.7737391266043
270.460779359147,14.3099343762248,549.354995965878,41.4650907937764,46.7731591959876,-10.2196185816185,1205.00963968599,-115.914128587396,648.564732823846,-42.5458422581214,59.277201333166,-7.56269693491712,307.747791353608,-29.4192332279045,997.291163948985,-157.679386859029,620.91557844323,-115.576662693755,830.400342628713,72.2801914780774,265.971677794437,-40.2878485925233,707.077209848647,-168.576051204604,1658.87329871672,48.449255114144,1983.61602253495,-195.775781054933,343.460686698713,15.6499104329286
271.512810545078,14.2065289459491,567.493891306569,32.1605921105082,39.7116138698818,-5.62667667985966,1210.24895966109,-121.841033132269,654.436485844569,-45.7816090840064,59.030786599837,-10.8607513526043,312.064144706183,-31.1909745946368,1005.20305369613,-156.919982228711,632.105029769156,-119.550013620804,854.109410731423,68.0371700887509,275.938940512783,-45.3367738897527,729.25013437751,-180.221595473271,1689.65151938485,37.486555900665,2006.79555700449,-205.191200221819,347.32970466649,15.5788145497742
266.922900850723,14.7015530856498,566.652737958765,39.6197896168299,38.3733650288988,-0.281169460085774,1223.18755524933,-120.74118837138,660.305390541694,-44.8952024807423,59.1511584952236,-9.03918739102317,317.39336380578,-32.8670961815822,1018.18124917885,-161.242802649802,638.693274351203,-119.512255144006,880.337118541187,60.5794601170961,277.69868328257,-43.6717867228517,729.611539858108,-174.31305798195,1698.24372394125,42.7847781933265,2017.53963588837,-211.716628274823,347.91221991472,15.4787226340862
273.108026009189,9.08565027863829,544.363526109362,52.1231266126388,44.8917210369463,-6.14327938465609,1222.79158964372,-127.072219053547,657.221793376046,-46.1241642838988,56.3515005601786,-5.19356642819431,311.34852394353,-30.2436484455681,1005.21275322734,-160.37995743561,641.257746942135,-123.755597930906,873.411221824139,55.4119328686722,275.615218035868,-44.8370707503783,722.54696543745,-174.447277316212,1669.34444456202,50.365685198018,2011.55099894573,-220.859021375611,344.296867284457,16.045098568345
271.509590158047,13.5753746124901,568.641864058863,34.1715379023296,43.9267150197656,-6.74587591872668,1225.64733475789,-121.628046697807,659.47896785071,-47.470280548918,59.5712420300359,-11.0370085346392,313.038290500972,-30.9132830165216,1007.0341989165,-157.885995363385,632.02027397254,-116.710838376598,882.955251336943,60.1240631722201,275.04117816059,-43.3855129353065,723.28251176249,-181.174863242357,1691.44058202289,44.0082952573938,2000.51390893269,-205.093486742099,347.962635244846,15.1794714616309
264.89366976187,16.6169962097682,576.029698129482,36.6677178677318,44.9921008497309,-5.99492861918199,1218.16826504533,-118.908901297697,669.021377094024,-48.4601031963508,58.289817669463,-9.36920599686347,317.670763181444,-31.2176443463835,1018.23051112128,-161.316491022277,643.204389632848,-123.408562760078,881.434320984151,63.3320772273633,274.359889204386,-42.6210372335373,735.462365190134,-186.876122997175,1737.99717674957,19.2823132812854,1998.93476096834,-197.388297448863,352.199774773392,15.0085477448951
274.335289465654,12.6985300662525,565.456371863367,40.1185056245306,34.4059582048226,-4.03748363912444,1218.20762746555,-114.235926971573,662.611861543414,-46.5295599431959,60.2023172828662,-10.4306794753594,311.522160730761,-30.5232453954701,1002.88169647835,-159.164941274326,624.665576321202,-116.122349461046,858.46283139069,62.6818554719652,276.418032764123,-49.3096938518407,722.431627045187,-175.597381577254,1665.25733538637,40.7435956147941,1958.44121036426,-197.318716730879,343.559871506072,15.8310565943875
277.517330755091,8.63902959204323,565.668588909788,43.0833018232218,45.7783068248604,-9.30325948626676,1213.53797944316,-118.865924316857,660.333044510129,-46.4655320347168,56.5996676860487,-5.88096176251336,312.594705661455,-30.7417275725785,1003.52133469511,-159.489403622146,626.979409219869,-114.743394289112,860.127450672423,63.594522013897,267.873435811589,-44.7602312795391,724.015242168142,-182.251424693819,1674.20499104433,35.8507787465416,1985.27593227799,-208.623167237483,346.423194021993,15.6643392304425
261.054608812965,17.5849587636626,576.402864318347,32.8395589576784,30.9097363705318,4.33146490484603,1226.33292593721,-123.46920924968,664.568443637945,-48.3808974801285,62.7504077295593,-12.8294829767397,315.931256375449,-31.2277437984415,1013.89950265123,-160.738063992094,622.374087152234,-112.571962020181,884.059578223503,61.6237690902509,283.052736179661,-50.7246623233424,730.628470301944,-181.724811658838,1702.88543908469,29.452730910176,2004.71474026891,-209.471037908974,351.225871951595,14.9378269679854
272.858960514704,11.4753232857547,561.853802461073,41.933081252708,37.0763994578313,-4.54958467208425,1218.24068102292,-124.307119166417,667.459379418946,-50.064126583726,65.6552675261007,-14.1613483451552,313.931142883195,-32.2459048975829,1008.76661705233,-162.377570702714,624.615387911715,-113.814733145092,852.997661216582,59.2191045517306,273.819434167906,-46.427961865233,722.643382791675,-178.277803440322,1651.7241525279,43.23515139335,1964.58077521013,-196.1609736337,343.468031315534,15.5928248365451
269.213480473981,12.9247999783487,567.419408387086,34.0686462961616,42.3291798066526,-6.88171264835069,1204.37096650255,-117.793951139604,658.993402828229,-44.9564505859349,59.5450763818504,-6.80862208304342,313.110302348046,-31.4845921688443,997.486385970083,-156.456471093938,624.188026775903,-114.694306045697,853.728446889999,65.4537722424799,272.842643427277,-46.0899567336377,724.617347285311,-184.994646391305,1675.08320848743,39.6600728190023,1980.62634915045,-205.358924488046,345.024806695962,16.0032260202293
267.03529893306,21.8597513252118,564.036245313235,37.2077394349456,38.4439699026305,-4.80966573149324,1221.60687316298,-127.174545542898,664.241077637672,-48.873598321722,56.6376056568306,-5.58508318939212,315.350199577737,-32.0951043184131,1009.51667169501,-161.142369543148,624.802468616008,-115.109272992822,891.171133860297,41.1035169877236,275.979632637331,-45.472359874901,720.518518754767,-177.761944302877,1707.92027657025,35.6315872106664,2018.91798515995,-215.330959362278,348.745956671858,16.1400899985736
280.920457000573,8.18804614752228,575.513918370822,39.0491198531241,41.4260605168141,-5.54970047089231,1228.70489681577,-122.278217629453,667.482204715017,-49.0995182108507,63.6375636394751,-6.61220903004014,316.470383013023,-32.2704876837234,1012.8461124711,-160.530413368252,639.655428774893,-123.189423466529,878.187458050616,58.9005513649527,281.294074073952,-48.0046863362226,726.74167876905,-178.910693643278,1709.96930307079,27.4432245902431,2020.97776600168,-217.096727329212,346.076807346072,15.9994557684257
275.044342663851,8.28098000700013,561.912604098431,35.2177814305847,46.7145301743434,-9.83883447738759,1198.01556487805,-112.355099396252,659.347222183673,-46.1292775404982,66.0348470180443,-11.4296105724943,315.732852285308,-32.2519615695204,1003.69389770663,-159.068408617501,627.5053367382,-119.70458151891,850.959713551844,70.2679209176465,269.9663934654,-43.4581696970673,732.653155722745,-183.483387514779,1693.66151877524,38.4876322949656,1966.40336843403,-181.636042239088,346.29972172037,15.7347152842565
267.046176807784,13.677918459261,567.339490780085,35.3618475425875,41.2090494412124,-6.15887490722325,1202.21770363388,-108.611600049342,665.924421696156,-47.4132110102154,60.5081341935924,-9.855956212349,317.046353804115,-32.109856771264,1011.80428009954,-163.22233724333,631.779370084218,-121.047678303418,873.795495095676,56.1913365408393,274.184688685664,-42.4844610513762,734.099190631063,-180.784240331713,1721.49937488475,28.6122783071579,1998.33171305359,-202.747527394067,349.881423400377,15.0456266088221
267.307513793978,11.0350017671456,578.559026517311,31.7400856546665,43.8282650815155,-7.95044602709545,1226.07348520872,-126.170390279033,668.918599523908,-47.3353735188967,56.8172450407091,-8.84216969609972,316.968610196256,-31.6431055773976,1011.1398981598,-161.141575820012,638.072461218733,-125.642084570347,875.758286902654,57.0426303704083,279.061796161644,-45.2730346089519,734.67679646205,-187.67343262869,1682.89574648699,36.4048662364883,1978.41619295754,-194.576211541205,346.631000679319,15.1303282031327
258.298271582276,18.1345280282593,563.794997868157,38.5726284345817,39.7173919543396,-3.83136462876777,1199.57714333928,-113.412490278033,666.948381516759,-49.8494715099947,67.0250797510543,-11.601205939668,313.865553496906,-30.6960714508222,1002.9032188524,-160.645875135774,635.762108808292,-122.636835485696,869.391448010017,55.5801942661705,283.69322532939,-50.57120461775,722.68192149138,-178.477555387271,1694.03967064905,35.5815008676485,1996.13389914463,-208.657647537551,347.723519913051,15.0417272857467
263.297686242067,17.0505923009034,563.669014642842,44.7861863280901,40.1891978734429,-6.01052776756084,1219.62459298427,-124.438167836209,670.495916197287,-48.9428660026146,63.9300421366139,-13.4579928587651,318.095251320437,-31.8166983622095,1011.17744408345,-161.06284590141,630.253846986952,-118.016763794178,876.506010725943,62.532485012289,276.02743739474,-45.0288849484637,738.160369324793,-187.531892026348,1679.20680165353,47.4782782432414,1994.12409514325,-202.831661630852,352.06959852362,14.8540478334896
266.495442665066,15.6083919325481,565.576004956439,37.9452942324167,42.7271347217302,-5.28254522624678,1242.35157568338,-130.598263063392,675.977155204932,-51.9635371307259,48.7983669352121,-2.6880686431455,316.805721707252,-32.1187908599825,1011.47853751529,-161.455059376333,621.559525184118,-114.291307715986,868.272728171837,65.5802054395894,268.43725538792,-41.8207311033168,718.563036771268,-181.225783628476,1693.94976123518,33.6633492976146,1969.49439403838,-193.661628913568,347.500878470808,14.9370459154577
264.148479494414,18.5734123657564,560.470560531828,34.3865210272269,42.9309065492872,-7.6283681199108,1206.3103280207,-120.65003344292,667.449046108949,-47.8617267490551,51.8311005571344,-4.3203270875622,312.903881114362,-32.0232787822355,999.16853059321,-157.341343965619,621.941660288785,-115.648082706591,843.046330427297,73.371556699509,271.090829900369,-44.2217001796451,710.761889688204,-171.18168619956,1670.60333382415,37.4516583624589,1945.71634418857,-193.004545649602,346.09088898527,15.7888185347059
268.609230873438,14.4635983155162,574.568305603056,31.8466089224227,43.389267473661,-4.00379576940942,1208.38351806584,-115.606736759359,668.179303606109,-46.3591106946361,52.1406441188977,-5.41916863403562,313.919465789841,-30.325502813985,1008.25859775231,-161.087435504135,631.30276349809,-121.337949400005,874.675683992003,60.5535870877823,276.716655676017,-45.9366401259826,726.338707326861,-180.985215311622,1709.69155300507,21.5723458168016,1966.63527971455,-196.903548785685,350.179873851214,15.636391759214
273.444071014391,15.1899009729479,558.079059939536,46.359890304134,46.9003840744242,-6.89474676156625,1217.2922171337,-111.345424852639,676.788802779284,-50.4298347229286,58.9657610858139,-4.7980493663153,316.37747527967,-32.0794185387697,1007.507121759,-159.209969724953,635.242840646736,-123.805400284651,861.760537572547,61.4726786698949,277.417082900719,-47.4394808767732,733.607960073415,-183.593651622751,1683.87704406925,35.3437606608698,1978.23350069568,-204.396651493689,346.940229641331,15.0205851829883
261.928915340869,20.9782233633262,566.482376396464,31.247954050875,36.5481145373078,-2.6302234051994,1200.90915205621,-118.983790823041,663.365252424465,-46.9359382813595,62.1140565184318,-8.45046970359866,311.655727860152,-30.7984276523842,996.609457495352,-157.505772533809,623.45439220761,-116.945982721371,851.239827291581,67.5274010641141,273.292465582776,-47.5389638267758,726.371842061302,-183.308493255369,1691.98028709872,32.9078568311838,2002.16181668931,-213.352039059355,346.188474816594,15.2427575048427
273.654532926822,12.9563264110651,557.345088043894,42.0796265330183,39.1338031307737,-3.39503626190471,1212.48628168898,-118.06197984067,669.302592781048,-51.0739013749045,65.6852303041644,-11.8726550977259,314.665316333825,-31.0649517559331,1007.55154518592,-163.398688291021,634.725494686315,-120.998334348639,866.060632803204,60.9233216473019,284.364471637627,-50.9657731269619,725.749584697737,-178.935278817557,1698.91115736769,42.9847692223583,2012.73025485135,-209.89685162019,350.115188556625,15.3233895847549
276.868530733695,9.12503089933283,555.286639907033,45.9803716513285,38.791062910174,-2.52810740420892,1200.73009503506,-109.021213746384,670.204583106047,-48.3795439790483,59.831167166363,-7.50943221509849,318.236779032076,-31.4802628194983,1016.8172449683,-163.663955143667,628.858572538144,-117.345812667554,874.634086873839,60.4080979914983,283.700968884644,-50.7374147914416,713.979073089301,-174.706084907369,1702.14403142076,34.3559538654581,1986.82852124195,-198.956667240698,349.040554365793,15.1718966913142
267.361480996215,15.8035775343419,561.561406957964,40.0387751822149,41.7762884283455,-7.60606461908863,1205.32702152723,-117.002919485282,663.576630989461,-46.9454656856201,56.4339996056588,-7.39788048454718,314.122852814387,-31.8216240263949,998.826879512408,-157.411393917785,637.766099890816,-125.18943697162,861.098325744393,65.9927912325466,272.496690253442,-43.3748360680934,729.591480976174,-184.529497384257,1665.92455124801,51.7963217050277,1988.94702248743,-202.699085840993,347.740652915904,14.9704765170662
263.710744738645,15.5240485274363,572.105005675503,32.0069835656088,39.2180644112505,-5.74977479992152,1215.89395771616,-123.987882701379,670.913868752906,-48.3261463982523,65.2650892471236,-10.9554423823689,314.305614232968,-30.9011451329413,1005.01169774746,-159.153218929756,628.290585486429,-117.800210264201,875.890441581139,61.0934120708371,274.169540059517,-41.7279685704388,722.809752803527,-177.530937979368,1701.23809659841,38.2907570645579,2000.96196279516,-212.60615087792,352.1000439877,14.8062313819761
273.738598209515,9.47100653142074,579.49416288743,32.6494966218159,39.5582336684848,-2.4294177952733,1230.42774161944,-116.97248887685,680.597147863799,-49.8015059293041,61.0453549947717,-11.2883616872654,320.558683501642,-32.9205782880297,1018.33029857738,-162.775904652809,638.759120249712,-125.506988579453,879.518684135052,62.2072499364147,280.949693397815,-45.0068757250764,724.717565118206,-172.842151547443,1682.65065089953,48.1874876181734,1984.49734648649,-209.170321164276,350.610607397039,14.9965516552978
266.74119680997,18.6677824998932,557.291351583897,39.908426021865,43.0894330238568,-6.3489875452247,1207.42285331846,-124.927723720469,671.43327901877,-48.8138967632916,57.7370227548495,-10.4408839836925,312.957999606261,-29.0388994243285,1000.49926206625,-158.200828603499,622.009280734359,-111.369285197025,855.297549240577,60.36702615936,288.60375375138,-48.2250203544245,727.378821604241,-176.667749768934,1668.14103354305,47.8258661622517,1979.29480565335,-204.64822874554,348.272892167017,14.6928346168397
270.769844953309,9.92887969800807,565.177831076874,43.3672929179432,35.8695120206899,-1.53630445855882,1209.04640683597,-120.374392776939,671.250562616916,-48.6271678742195,57.4031895512227,-4.63062363376933,313.272901764774,-31.0673182015166,1006.6472176394,-159.883320425283,629.610079397958,-121.681565179662,862.518435039603,59.8905978690307,276.434369211154,-46.4381147522423,721.770262909185,-183.566145532292,1683.7942384251,43.3096225649932,1971.21487946528,-194.471451491141,352.210798360072,14.5234433073444
272.704450378946,12.4913770197221,584.0360896957,29.2781986248877,36.3784591911989,-6.49471095689695,1232.93353534322,-122.525741020931,680.42212161664,-49.4171533399861,65.6251961989907,-13.6240840174547,318.790982090238,-30.7369360587822,1015.8357323267,-159.892569985546,628.981034360796,-121.398907055088,891.873304732205,59.667567939199,279.353956418143,-43.8419832557414,743.900004315049,-190.215168725227,1710.24989199961,34.0294237861706,1975.52315616118,-199.767225986358,353.527699588417,14.2218514901981
268.38538119065,17.6005372902374,575.888617698515,34.9361902041745,33.5099477493837,-1.17333963253225,1220.68013528575,-125.30904735249,672.348512730168,-47.57953431632,59.7263938651389,-8.73013540656192,313.391331391525,-30.1675521826738,1001.32993415622,-158.222790003784,625.100129163798,-114.363404850802,852.356578625493,72.5441792667494,281.521011247304,-46.8696940723255,729.520490911354,-180.178206610953,1671.4190511688,44.2370958367726,1989.46715357879,-209.79866765916,349.319837065715,14.4895807167538
265.246915137348,17.5864525980822,571.091952590325,36.4719459321306,42.7436312086494,-9.40625089416914,1207.5079420977,-115.256228549437,675.155651307016,-47.5534949623368,56.3655644799286,-8.72530340253224,313.14528917852,-28.6949181948934,1004.98151223031,-158.217407628416,631.997052477238,-119.213134638269,866.402162794194,62.2946617300974,289.917791900284,-50.0684356804769,742.349358692843,-189.221277639217,1689.50007863546,49.4251987237634,2022.18679643856,-218.697882268486,351.5961546726,14.9538896021995
274.354239290075,11.9121721832096,579.344172459123,36.3413477419676,36.7749655129222,-4.84319995743754,1238.98971134201,-123.250684058278,682.013189070272,-49.8518352289442,55.3845458184328,-8.26764762405354,321.98386646818,-32.9666584013613,1019.41861391153,-162.869198886522,631.469781495019,-119.628964076734,897.462665316141,60.5347940361181,281.974582050791,-44.1162100648737,764.071769143381,-195.795638206058,1733.82450530988,34.8061469258818,2032.6800667382,-206.021309745981,357.171415404489,13.6487446604509
265.79287672837,20.4016655959667,582.400449289445,35.8934218515913,40.2756975669007,-8.43054179358147,1228.81804796053,-119.056335572704,672.306411119289,-47.0262754805804,60.9326324525395,-7.90522658269548,318.657973157344,-31.9363828676913,1012.3564618767,-161.533771299152,628.899484072893,-113.312570974807,850.573956446125,73.8026737872737,289.774236689941,-52.9829667730231,725.348353921713,-176.995588409545,1702.22525560817,36.1821152882479,2025.66414710268,-219.081655757659,349.698720781017,14.0228201624788
270.355257583373,12.513656726155,576.775819474617,39.4279225799974,47.3363402698455,-10.4280485937064,1245.10294653187,-125.667905712908,672.99697569762,-48.0658523805585,63.7994210903083,-13.1074367391602,319.224515848183,-32.1536001593219,1011.24785121921,-161.328675531298,643.426101087664,-126.156792632865,883.922687201932,54.9011759845643,276.473408279759,-45.0935564345684,735.695589345611,-181.418042279937,1715.90869171022,39.2256697136635,2033.25983637363,-215.316437791426,352.17276917978,14.7356837661708
277.71462549155,8.61399789453136,594.917287852552,31.4586444026354,42.7101447709033,-7.1585263755207,1257.02199023606,-127.318303915266,680.647398521864,-48.2798748752192,61.0158564611163,-8.85508183713336,322.056431418398,-32.7554759685968,1022.77677908345,-163.269370587882,638.871811802977,-121.512659057917,907.64319831102,56.4304369783613,279.02191018121,-42.1349870319459,735.783081142369,-177.892839685315,1740.40083277812,34.6086849289715,2032.37532113889,-213.76208522977,356.554910070664,13.683287330999
280.302558303828,6.59116955857198,585.522042182265,31.8311139813774,43.5615209314004,-5.33887039807344,1257.86834952567,-133.517288695406,673.604667526122,-46.3406407490919,53.0872450656588,-7.44204949129367,319.378106073787,-32.3191011126346,1015.05221094106,-163.227389150667,630.485638712008,-117.473111813716,873.040228988502,57.5899107886041,275.618524115791,-41.6749118646965,733.683950133992,-182.34362974668,1692.62990051323,36.0479914247664,2007.45298146162,-210.849868720766,349.505347750526,14.5846623826503
267.713718903655,14.1229168217343,595.324397033112,31.1353989749738,26.0204671533179,3.91180734033189,1246.02392148081,-134.987984480375,675.667582906817,-48.2571892809637,61.5655622413447,-13.2265916066717,319.484534372238,-31.5077317476483,1013.22210990697,-160.613854092287,629.137527726986,-120.642951783947,886.296594480883,57.2152783765652,276.681602907249,-42.0512981466769,730.658156766086,-180.868377026032,1704.72954128829,35.5120772578125,2002.85347650131,-205.326130875765,352.54036078076,14.1443897662318
286.229682141281,6.25523765150152,585.191313595143,34.6688774290407,45.7096729604969,-6.00244628651187,1259.07965177817,-125.350465601472,678.962470850756,-50.2748179497206,65.9148436591774,-13.2040635638135,323.423490653212,-31.8670066667684,1027.56274034062,-163.380361493758,639.675525336219,-121.099024118982,896.435402413028,58.2539503067435,285.343070865679,-48.38288132024,745.200070296924,-188.412717961273,1746.33559303991,31.7357001012183,2028.19491111086,-214.723966930037,357.47328883459,13.5127672760989
282.873827841848,6.29734012371527,588.638229291719,32.4663667751098,36.8604562426942,-2.39857709419434,1252.44191211606,-134.740119403299,676.095122590887,-47.4790671267412,57.165938752021,-8.3647215159823,317.822880844772,-31.087595905353,1013.45761703362,-159.971087226703,639.821535507174,-122.444938646016,857.949622864595,75.0305681132486,284.642704166969,-48.8959691286654,722.5245944143,-180.92338511106,1667.23424740242,44.5211319206236,1978.25421082423,-196.468146594363,348.622512171959,14.5565269014099
274.559001974921,9.98403713185468,583.492853223159,33.5525179569771,41.6061866949616,-7.44983360511482,1237.10817676688,-118.650071674456,666.845267071022,-45.7348467668668,63.9414820900269,-12.8835680682159,317.285611682933,-31.4558062765085,1012.44616498084,-161.163500956066,638.333254559281,-124.221354799327,884.347326396444,63.2440072242509,279.271549788918,-42.3649175363916,730.462735584583,-179.777034051188,1681.80118010633,47.4889959786274,1972.62817041443,-199.05866010701,350.928294881508,14.420504056557
277.379653137416,9.89794495243821,585.473505136438,31.2365607282385,41.2714687640349,-8.930719797998,1256.73916721081,-133.369070880787,672.451155271919,-45.9963001493055,59.1944800924704,-7.913993890538,321.376921922784,-33.0886420045686,1022.73225626527,-163.034399364776,628.98897884677,-115.4547439627,897.943346473734,60.6729643016208,288.588377487227,-49.4404363877318,721.442570115049,-174.97682246281,1717.54079156899,37.0781563688951,2013.65919369054,-208.50087076796,356.05856560876,13.5600160424615
275.663747105807,9.33325469338033,569.067163907327,41.9574035354544,39.3389100728433,-2.11478458595811,1247.85000999932,-129.191279956209,666.865647656209,-45.9593790719912,60.5167447007661,-10.5474534049561,319.981040684095,-32.6192508837361,1013.8414142785,-162.431314020692,630.287368544535,-116.428808840159,882.723989502974,59.8245168052062,276.569902606499,-42.8753381828381,730.296906481517,-182.038392777016,1676.99769003619,50.0773396909214,1993.23737518339,-205.123248303032,349.185245066145,14.3453025647372
270.165067883277,13.9511689199845,582.133303895735,33.5214493313815,45.9369864401193,-7.70152408302756,1260.32658704719,-141.522952493559,659.008690541132,-42.8136898697776,53.9270039036369,-4.68838746247277,317.600005984065,-30.7949032053729,1005.93914933643,-158.642340165112,624.158925300419,-116.892400072791,881.009581743987,63.4940038362639,281.853747421186,-42.3893192602392,730.496467707412,-181.594397953145,1695.50438971897,41.1883897384507,2011.44274308027,-209.017541983999,350.6956062482,14.3208073502498
275.353962069024,13.2014102068372,577.119130005066,33.8722366216422,37.1825964549206,-3.74191608078487,1255.1972693225,-135.072729186672,665.169218901422,-45.0633463603185,62.7090483920444,-11.0611384082137,322.68375395868,-33.280697373013,1020.38634135184,-162.307115027421,625.48452137024,-113.362769082511,898.515983851241,59.4142909139109,280.061746388923,-43.8833649062743,729.050248899064,-180.503133073283,1706.20032983439,48.9608278320976,2042.9390354119,-227.46266182664,355.016799437841,13.8195278836785
270.150885470964,19.8095956997091,584.777071616418,30.7239864201193,40.9544732250917,-6.07083838628358,1267.88880242754,-136.790542402787,660.622452259715,-43.2417596714677,61.4708002794714,-11.6829741381245,318.591743306559,-32.4165087462862,1011.38939096621,-159.930945994723,635.345708308197,-122.491007528329,872.791414350483,67.1808178079245,277.848707002274,-44.9138837368151,729.703618386174,-178.095296831535,1687.14442544938,50.3416398720347,2010.99998007641,-209.454421426563,350.78533153399,13.7319654760295
270.603513234687,17.3347682387267,568.280076540221,36.9193445470924,40.5693172258893,-7.21500723063715,1252.96481482856,-131.44372957417,657.653962104702,-44.5999448362289,56.5877447674188,-9.83995244395832,318.291499259363,-32.8120947947116,1010.72924176028,-160.370348232332,633.676070998626,-121.321029475098,876.479261863639,67.5582338405374,283.19847180063,-51.4419320891752,725.695764393704,-176.031381062544,1688.95007153804,41.3342482470469,1998.59116824876,-198.762884644841,351.899808162304,13.9630756978972
274.768025582238,9.88607789736301,581.097100854438,30.4604107616566,39.4634800639705,-1.77364012134491,1270.14429144463,-140.911438223302,663.93920743691,-45.3658132249294,55.9845633097729,-8.6002782915412,319.642060144904,-32.761969447289,1015.35726790068,-160.947824485266,632.515518269559,-117.552861688366,900.079254351755,63.278099964195,281.404276818731,-51.4022627922498,731.242090076464,-177.877890776533,1711.07776189955,35.7932265417952,2024.6230551635,-208.399063582026,357.127603968289,12.5924808844657
262.51469521525,16.2415971157489,580.679820851115,35.7858242775685,41.8110981604581,-3.83212808874349,1247.91938910426,-129.664262419474,661.420415092889,-44.8029560924472,61.4702521377895,-7.75238195682279,320.227680951531,-33.4782409102215,1012.23762459637,-161.312260922406,628.175730204521,-117.214430264182,881.313104263095,57.0074431596069,288.08227958842,-56.1580338368254,726.282779850903,-177.68865571158,1672.3899454723,50.6223409759997,1994.76690894663,-204.087960322876,350.679675677884,13.5191561898285
266.204528138073,18.4342204006321,579.859452138094,27.2448173337424,46.9330897752019,-10.1773617857943,1247.57190575235,-137.966300632834,656.643222565002,-42.6863620640773,63.138386749697,-11.8823928686786,315.713957470212,-31.8667609970518,1008.53805462412,-160.676817250218,630.874494723773,-119.488742954486,878.64623345307,65.9467004853427,270.473512497741,-42.0176421789932,731.803491974072,-185.301232547362,1682.24981114866,50.0696144647,1982.74645175266,-195.039735025767,353.145931922895,12.8643054396741
270.525879652462,13.4092888689336,580.015077885694,32.9043039266449,40.4348556850617,-1.16704726294314,1267.36714278839,-141.975469436357,661.18172682971,-44.9267357294208,55.5102110117417,-4.82045831951664,320.352085418482,-33.2926473915159,1017.04085033786,-163.002244170899,627.322420421748,-115.079738330316,910.338328298599,57.1524711820942,283.676285124742,-50.035771051375,731.643715996716,-177.194174392944,1710.01108332985,34.2378911938732,2006.86123668696,-205.221817823906,356.747820011707,12.4505703336181
280.882410175502,9.30115606225529,589.149862328358,26.8972844040344,40.090240987798,-5.11890713219988,1230.4232555936,-118.258124625377,661.991429665135,-43.4170519672049,57.8711439338298,-6.2131333896182,317.414335961464,-31.067187868415,1011.51163985999,-159.600026432442,630.617973208323,-124.506889890547,875.68749670755,70.7607676341549,292.639334403279,-55.7787226265698,736.214446227224,-179.273425176678,1691.34412082449,36.9706735311523,1977.00997862618,-204.528829436032,353.200346867902,11.5982183785378
278.566974362148,7.47833157861024,570.842626501245,38.3922078652954,49.8363529225457,-9.36754286154465,1248.84635554356,-132.53919447105,656.572422106848,-43.4559503994416,59.9062594210149,-9.33779262553337,313.965056085201,-31.1384849829379,1007.15779464201,-160.52754713067,631.684965750508,-121.507529436648,880.260433690734,68.0180263919639,273.076274446591,-42.7434924345961,722.147950347148,-179.075634069133,1662.08954072486,48.0648184870706,1989.67972345728,-206.008958997194,351.455436520997,12.9103939352592
279.834961004863,4.93425677952183,576.481182118875,30.0277346779508,46.3348054507099,-7.71590314576994,1249.82163564755,-126.788252444438,657.418292666994,-42.4914170089992,65.1270963543587,-11.0631075567586,318.900673198815,-32.576302036804,1017.73279711236,-162.880724368123,631.960634958528,-119.702421442065,898.654847276167,56.0479927601275,279.175133394816,-46.2186907929043,735.999435077737,-179.834547456021,1712.53133025064,40.8559477012553,2014.47654204675,-199.4232618241,355.459735628419,12.6485636084899
280.922886394121,10.1040977281663,579.447864883956,33.7294354141429,41.6377832916667,-8.45564850007285,1252.43876378378,-126.836103731722,662.235582299017,-43.5672063341345,60.840623360332,-9.69487066774534,320.777841022348,-32.8340311099645,1024.87190286556,-163.124259675723,637.769141564659,-117.158950733313,885.992429294159,62.144171987195,278.740382448815,-44.6807465648471,747.400223478288,-187.558142862841,1686.40643321856,53.25902968185,2017.85079733455,-209.726640602196,353.866590216076,12.0980127259274
277.120411544061,5.43543732087296,565.329613857611,39.879181296186,44.6168459315815,-6.69987637877698,1234.50602833875,-126.407451914147,656.117382400096,-43.9130392206681,59.8072105906887,-8.05306880156454,316.622745980698,-31.6050513110242,1011.05406624871,-160.394686166746,643.513645891348,-130.498565479905,883.669528305333,57.9815339472828,280.884198173733,-49.8612114414935,731.280691732739,-180.946518701678,1702.9641571079,41.0615378982693,2007.65008636548,-200.408269469322,351.912609309401,12.8973956586368
284.174794074624,8.45714346755868,589.239420416442,27.8484764524295,39.9641090921687,-3.40812838810744,1257.14672462834,-139.942573127295,655.961089431332,-43.5758391298043,54.6067930564056,-5.70070770068507,318.095284230908,-31.4018543710357,1017.94176904119,-162.087422770176,633.76125717286,-120.662473294033,903.578890466801,51.1637881342006,279.873746999602,-47.4861986777745,746.407664337702,-189.927649759511,1700.68115306247,49.6947318575008,2035.81162283021,-211.03281249762,356.869714980149,11.981817969753
269.246929194221,17.5176007000645,577.615114731685,32.7138634550103,42.5112117068965,-4.26265198430409,1258.91701228257,-133.216671869516,668.54861418496,-47.2137102951756,65.5073099463425,-9.83715330250892,324.569567049506,-33.4059821119132,1030.43494717857,-165.592092415046,646.233180993727,-124.95240557961,912.910066011179,59.9736593182862,277.831981887504,-44.246616751144,726.685998100542,-175.865612174533,1703.27161880555,54.0681195011351,2020.53426948933,-214.552158514674,357.79918054598,11.477080763767
274.277554727804,10.8881389441472,572.26796869283,33.3280424833914,38.8097835153116,-1.92330229758763,1236.84640193064,-119.909251831211,656.114822167186,-42.0605794012119,62.0474074253981,-10.0920389494085,318.936914809861,-31.586261803984,1014.89948812315,-161.616678966254,629.337416957897,-116.343460255,884.213034282359,64.8554514185163,280.063114006936,-47.5939525240149,733.608171350379,-178.645518853514,1669.69094949272,57.9349838151339,1989.47894579554,-194.153017015555,354.036838979154,12.0497779921155
273.959074409906,9.17542809564606,581.117953225329,37.098479343455,37.0951116465535,-4.7518460454072,1262.49531229104,-136.405234850246,658.519109056001,-42.9640179232882,67.5695653719416,-14.1221840972727,320.327842021919,-32.2158772961577,1019.85770162101,-160.313225251605,625.621347629084,-112.730991397406,914.758331040674,48.9084626990661,287.123772761429,-52.3270686737364,738.732039254462,-186.680493973795,1702.82747475068,46.0650223536611,2006.94570914602,-210.159266052689,358.992182934412,10.7935656828251
