259.653849301366,-23.180322933696,1956.80822400658,-69.7336694111897,347.021841099503,-39.2011334977026,997.582353514367,-102.936891196083,1382.77509092537,33.481548317172,367.30985358715,-48.63747367016,1495.60286610928,-130.035796811004,763.479066282066,-118.360799148343,683.551166237205,-118.069932729138,509.343998467476,100.502129756566,2150.0024712924,-392.182502681336,485.288584892632,-87.7300751990185,821.581091307791,21.7952757630725,1043.54433137451,-98.8392625818115,332.078374965094,-24.0106500931322
261.608584657954,-24.2371341903505,1977.27183975984,-74.7932762954075,347.048613263679,-39.0215889677355,1004.58755048347,-104.65261367475,1397.83621046655,30.6092655151971,374.042464154569,-51.0623312945072,1512.68878693153,-132.579469236969,770.586856251999,-120.442888987709,690.143968835825,-119.740193174804,513.073782166631,100.85281877812,2171.20220179516,-397.870381996436,490.73056982985,-89.45392090556,830.9328166128,20.1923342450977,1051.06522240715,-100.659381925965,335.220987884093,-24.3144411476824
259.978207427141,-24.0508531288611,1963.82689832448,-73.1888854467333,345.265535589581,-39.2767069707692,996.46928170329,-102.936920690117,1380.96161572159,32.7638600952521,364.395565810979,-48.3995276182723,1487.16259631591,-128.414782404325,760.694199118328,-118.349666029364,680.940490729299,-117.285545604197,504.651683239786,101.912693013699,2144.35857457424,-391.736688679871,481.608515977444,-87.1992393007353,816.60691422732,22.4027594614036,1040.27538412325,-98.5805647605252,331.264691168487,-24.2051317156332
259.862049205847,-23.7491821963672,1960.149494406,-73.8683617615995,343.556447525225,-39.0936660252587,995.928440235328,-103.243130530839,1375.86225714063,34.139759655297,367.963724930779,-49.5542540708203,1490.05381410175,-129.148758173996,759.800966621523,-117.596244451867,680.770124102265,-117.447025192315,504.958171774918,101.863156346541,2142.48866497343,-390.367856037458,482.748573903335,-87.634907178833,817.796935832881,22.4393547411329,1040.09468947097,-97.8091343316873,331.75773799875,-23.9195132108121
258.876130095985,-23.9280577640761,1966.83074869736,-73.2949999717012,345.702021584075,-38.8754739683998,1000.11507563041,-103.420912218843,1391.03126621611,31.2358773474391,371.117057518068,-50.6281109493779,1507.84761448937,-132.007756815489,767.514527762662,-119.144524535281,687.866515231723,-119.206800223075,510.92808817587,100.605134897003,2161.33723336441,-394.485965320352,488.249439065956,-88.6512361001627,825.98748224754,21.8551311975778,1047.14062277768,-99.7540713026138,334.422100301796,-24.1440209231288
261.790210204417,-24.3982675283536,1979.94668748636,-73.6736908438426,347.863157681121,-39.5540697817983,1006.96690448107,-105.546928983292,1405.20719257156,29.0188641182476,376.311009210923,-51.2161374036596,1522.91291433664,-134.858712704893,772.863887449128,-120.74130107501,693.265460026026,-119.876658162238,511.179077915211,101.435302221594,2165.58384853887,-396.342823307165,486.180319429615,-88.0475242033048,822.880034557355,21.3173590128026,1044.59504632488,-99.6270050318524,334.01961681138,-24.7636411556566
257.263065812369,-22.4870113102937,1953.1187746802,-73.1906634361257,343.329756239422,-38.3946371766479,991.266154914315,-101.695628108333,1371.9128420427,33.830927191125,364.315907060229,-47.8912593770541,1482.71462693138,-127.748556671105,757.210030772182,-117.389673847723,678.084067732231,-116.319960466199,501.973305156622,101.98167766999,2130.79451935924,-387.244363694429,479.760280238735,-86.3212837660064,812.504267666453,23.5073784536393,1037.69231996538,-97.5924109251342,330.893873429927,-23.8550390265659
256.906779291861,-23.3598472950856,1940.13769224074,-66.4369751813733,341.63558573883,-38.2433195907517,991.172722144935,-101.492083103614,1374.64172729474,34.7274755092728,366.033729661326,-49.2724751144132,1481.50339725754,-126.429431355309,757.776624598314,-116.979034326062,678.302652593941,-116.676986553677,503.557791034019,101.88562762737,2131.6647033068,-385.893136330239,480.836817464369,-86.7023605207485,815.645843614277,24.2725187769221,1038.09368632631,-97.3201409604572,332.535255910788,-24.1155037107467
258.18421117405,-23.5676801813094,1957.358965236,-69.6816038160288,346.449521561567,-39.493122379896,997.364405938574,-102.805110183869,1392.35258245315,33.2126185045112,367.272531431763,-48.8362749304647,1486.65179480771,-126.938477821955,764.474728315978,-118.352910178408,680.565431795207,-117.186777517581,506.24616233413,102.211866104529,2147.69358974372,-391.391402164109,484.673998558905,-87.7298567515151,824.685569242566,23.5252234613671,1045.95515709219,-98.4836759201311,335.801560420075,-24.7084340602778
257.838508375227,-23.8307368990565,1974.30688420432,-76.8117600388138,348.203997405326,-38.8144418131491,1001.40567830221,-103.553101973845,1398.96767531698,31.9781859830476,368.567794651877,-49.2876140396048,1474.09258488224,-125.839872296799,761.84204912455,-117.782350032424,677.067991739779,-116.370836123494,502.461710300985,102.139399536715,2123.82273051495,-384.218950856386,475.176021221204,-85.0671788330358,814.710615764253,25.2629153359298,1036.28918809213,-96.6518420555439,333.298492883878,-24.6979678650292
254.280509145414,-24.2152025618406,1944.75960611168,-73.9089488909698,343.069590820972,-37.4113308674862,991.871062125906,-100.712659021041,1372.74619428294,35.4634687153844,365.486769267571,-48.5879638023223,1458.69393410595,-122.643885151236,754.827559086994,-116.446175892685,671.933047278547,-114.980257630008,498.519636883028,102.656415954324,2110.73275841927,-381.58074021065,472.348478874757,-84.4206687012973,808.202925264292,26.1409794434647,1030.24864031693,-95.3463648231812,330.680624629775,-23.775431749707
254.545338164451,-22.6881971772216,1944.53664261356,-73.4324683240059,344.342853758467,-37.377107510706,990.930221114385,-101.272345596127,1374.80724747628,35.5517691190635,364.405563958532,-47.7183927224485,1465.03953605403,-122.02397129523,756.691167534523,-116.190436171636,674.090808277231,-115.442985302274,499.908657948935,103.238650728785,2118.94084750851,-381.301291864584,476.254479692631,-85.4295198915236,809.339584556938,25.6701091424463,1035.26519655119,-96.8650727595759,331.556023564847,-23.9755335694252
257.468940950631,-23.968538818621,1949.16279548389,-71.9331585961361,347.705191149717,-40.334657865363,990.929557621054,-101.557725414644,1379.9774495035,34.3235369631452,364.356843473384,-47.0702052523315,1487.51467126367,-126.530626556145,764.070742195542,-117.834358393235,682.178893478829,-116.708379613486,503.999557301414,103.066599582794,2141.13093144637,-386.950019470175,481.416615940328,-86.7808566274688,813.431795126232,24.1102376556612,1038.36511431239,-96.8750724671068,333.730970280816,-24.1311782173667
258.678431910926,-22.7232197988681,1957.30855474584,-70.4651300735013,345.541371394545,-37.7517914133678,994.731823685499,-103.284558796662,1382.06362683979,33.5854284344348,364.857259032429,-48.8253952244004,1478.66177440157,-124.367378730666,760.375220729349,-117.367323084114,679.171199934653,-116.472035392314,499.963878399029,103.059780544011,2119.70735472376,-382.425485113377,474.69227984677,-84.8984710069245,799.143213460228,26.1896255829418,1029.62222150111,-96.0460243247526,329.22252562098,-23.5491227507039
254.696920235182,-22.2545863562264,1922.41917579142,-64.7947434874132,343.3472715613,-38.2928921415168,980.90709522946,-99.5245105143687,1357.29571900277,36.8607998907427,359.018616512825,-46.8409161846544,1460.99269964565,-122.08910594442,752.536877329769,-115.417223594459,671.485098705389,-114.64617458184,495.188623509915,103.351619262246,2105.08250661805,-378.957245075188,472.057812446415,-84.5255243221431,794.7133510704,27.2830656458866,1026.08591373445,-95.2052357213242,328.334086864328,-23.5745920535147
254.212181961268,-21.8078405791278,1922.67013094728,-64.3769496479386,344.307981657861,-39.0389595517421,982.826529287357,-99.5866547216999,1358.94051151138,39.2943648402239,359.427418887561,-47.5098385110015,1463.28426736804,-120.927721309122,756.23100245401,-116.176876893791,674.056062884205,-115.453504532286,497.944419215493,103.450397302108,2110.48858327439,-378.457297411718,475.097362387477,-84.8710547530009,801.102352725309,27.0967627149652,1033.00456918761,-96.925429258667,330.273648243775,-23.5541981072431
256.920811078891,-23.2834938192775,1939.57247142186,-68.0085511350582,343.912705578579,-37.6002671562048,989.224218227589,-100.595505658333,1375.5193835626,36.3145880403822,365.197175908726,-47.6182460180457,1480.30154620099,-123.612945571984,763.350538844691,-117.874938613277,679.622440676164,-116.333072087753,500.459307794097,104.445841996031,2129.23582749231,-383.561743834002,479.165550957831,-85.5370222769333,810.051116371953,26.794543947255,1039.84561102373,-97.508071347696,334.250661985895,-24.1534627722137
258.058512503999,-24.0245310956111,1951.39361803956,-73.8447637521531,345.133955331745,-39.2453217180958,987.842226305578,-99.923393391551,1361.66726975993,38.7685465756414,359.574828090451,-46.1724578162165,1457.95805301902,-120.722920290396,753.237541103854,-115.351117445602,671.341175605257,-114.450895553146,493.236013384821,104.358820656326,2100.90465897998,-379.076676944717,471.157926857588,-84.0173220427542,793.408939330548,29.0412890968302,1028.05285562689,-95.8571565246644,331.448038239566,-23.6476740351411
256.445775155291,-23.5475079779261,1925.84932661733,-66.4578725390134,343.776475239902,-38.1525725489544,981.401677386781,-98.8951100603685,1348.98370113678,40.7522856386819,359.687760089368,-47.3855576569143,1448.13680046197,-118.088666086147,749.577965768842,-114.555572373263,667.767109890769,-113.421382360418,489.967230446757,105.333066589472,2082.00312082059,-369.399373090206,469.02425115082,-82.7646329226655,788.800793272249,30.8394966894492,1026.53690553016,-95.4334210683845,331.424852378885,-23.057359606199
253.697017325908,-21.7984139219388,1931.6864368603,-67.1140972602068,342.356194136038,-36.4412229661327,984.927958378405,-98.9279199469371,1357.21900053837,41.7256620482696,361.803835654406,-47.181305853303,1459.56866067109,-119.568543104286,754.818665330645,-114.766664281781,672.33150188672,-114.428501566328,493.671455590196,105.273685410528,2104.68849978366,-376.555499503577,473.14155097422,-83.89519760064,799.551571192305,29.5674275511964,1033.85087511963,-97.0447594841523,334.856288164935,-23.3551048710023
257.05676775943,-23.5904011037034,1945.63841967886,-68.9608884423481,346.642198106198,-38.9138112617781,993.2998164433,-100.733151531331,1374.36669741304,39.0098673111685,364.278877347989,-46.7903161226333,1476.13515009607,-123.524045854168,763.52190446038,-117.156869753261,679.247625262247,-116.145429122063,498.065992323963,105.473787348348,2119.86979750947,-378.655245945367,478.933233496024,-85.717780213455,810.782104008018,27.7012434016965,1042.38257599742,-98.3672226482664,338.41853540503,-23.5154191576445
258.86077627909,-23.7082982234973,1973.69327243525,-77.1086021848768,347.400628641458,-38.1165467105337,998.19578698366,-100.896835349454,1384.9677069104,38.5354711811034,368.636635289648,-48.4158217345157,1467.69513594645,-121.503363355415,761.286055960325,-116.908351249499,676.976644409766,-115.561871630093,494.808671936789,105.242229598253,2102.01166539954,-373.005224257076,472.510568669915,-84.2705270015656,799.46822335308,28.9276666723062,1034.35939175044,-97.1118291480847,336.542955847474,-23.8772210097297
255.261958871292,-22.5958246387173,1942.98367918707,-69.0944685906206,344.98693979409,-37.4752958511744,988.26545276799,-99.0450666317508,1357.78173822793,42.8477179884968,363.882144429888,-47.9763052136422,1454.80123601477,-119.290633395456,754.103923563877,-115.128840884724,670.981010053581,-114.100312494049,491.341480017002,105.4293824789,2096.14177402398,-374.854354962843,470.911979380185,-83.4102804598246,793.779268643384,31.3554352241604,1030.18391396667,-95.4104859919355,336.503086183949,-23.4025772847543
253.884756774975,-21.4070005241012,1952.63599202844,-72.1763346783396,344.939772656661,-38.3500598613369,992.461074939498,-99.0437688942663,1364.61066989309,41.8575386973467,365.563263077063,-47.4254338770719,1466.86810733197,-121.569421788178,761.323197775015,-117.342148891075,676.044555707206,-115.44607842627,494.000807043494,106.009706428306,2103.85693860186,-371.071590955606,475.024443513119,-84.5641319147289,803.998977585495,29.7323123631957,1039.29449667647,-97.5801486475862,341.198505379573,-24.2675195141714
258.256856391734,-22.8125552668487,1973.68412817737,-75.9941948839521,346.506133109066,-37.6088542113725,1002.31554917595,-101.60661205381,1382.24025727475,39.4998592419577,373.031263491691,-48.8580136034611,1490.12124879208,-125.671611989955,770.082979177891,-119.478410947936,684.614996450834,-117.108891599176,499.191008630628,105.483863078691,2129.28057357064,-380.216803757985,481.799911624737,-86.4093273939254,815.633750612366,28.5495531963205,1047.3114564639,-99.2512551194826,344.403181385774,-24.8378557662481
261.168689217543,-23.5469373658101,1996.09541519802,-76.2735654322184,350.418777286738,-39.7024722150891,1011.11272116297,-103.208276095592,1401.80521987025,36.0976371408861,381.84061245894,-51.1839451389366,1509.30190474204,-129.149130904854,775.872209941217,-119.761691034943,693.015004488704,-119.599007362194,502.590277410884,105.030027677064,2135.06672198252,-384.642983491651,479.958849046699,-85.7179495102702,811.619028669447,28.9349603854187,1043.9380717604,-97.476150160132,343.044499745641,-24.3739082803633
257.328488286247,-22.4504987066525,1966.42539711079,-74.999313267732,347.697930149065,-39.198727998254,997.613361487987,-99.6307421807347,1369.03859287959,42.3939592052829,369.960931452034,-48.505592886195,1471.8099081623,-121.785638405158,763.466389659248,-117.694251126992,677.22583366698,-115.21380506159,494.477249539586,106.214190066843,2108.91189209156,-375.996464909901,474.994803540066,-84.1970407152781,804.544920103405,29.8080894898568,1038.90705615274,-96.8754178872215,341.83036761788,-24.6291625971702
257.784443792753,-21.9042250782763,1964.04245480227,-71.9133230237104,344.311071923575,-37.8715744084713,999.4870178116,-99.9630773356995,1373.96927916477,41.3160810058975,373.16741797369,-48.9063879503518,1478.60167268234,-122.758821223737,766.307273428373,-118.101918345012,680.572872529794,-116.485519249223,496.379019917355,105.561066082296,2120.34815012908,-380.897720028418,478.107475653656,-85.0049466890679,809.029211214312,29.5544531620697,1043.88347330267,-98.2111651170813,344.410842384838,-24.9208951967122
260.421219837369,-23.3493485307001,1984.14993433861,-73.4810539014314,350.178912824244,-39.6935452400747,1007.33930361916,-101.283620942628,1392.24021805997,38.7298120141038,377.928086204237,-51.0262710747001,1500.81046289011,-126.598369230684,774.730723429594,-119.964222130927,688.112234725195,-118.460772368355,501.635903371193,105.350255562398,2139.1587494761,-382.377801544941,484.597778653326,-86.9885027210743,819.139570807585,27.7561560704353,1051.57510035911,-100.284542666626,348.17986489086,-25.5313241840226
261.666372831205,-23.1944901130673,2009.82017999296,-82.6922159324803,353.530139695094,-40.5061351909148,1016.33016713837,-103.919290992875,1410.71037909547,35.5232256244836,386.30571085149,-52.0808681410898,1523.51199381923,-131.937896091717,782.362882218234,-121.679516994809,696.538928629935,-120.448042852552,506.000402387723,105.534798509053,2161.88943055753,-390.343287644526,487.088748025179,-87.981600842647,819.805920711459,27.076246207296,1052.5888158728,-100.088951871559,348.386836738045,-25.8649868997518
259.134578248434,-23.9854355543614,1977.0661141666,-76.5273746700754,347.550454994454,-38.9938499219511,1001.94905691373,-100.544662674344,1378.50251831028,40.2900230295828,372.161397864824,-49.0687659491307,1479.32475356449,-123.322125796847,766.275758453595,-117.959813546756,679.921682033315,-116.270421948426,496.111901963844,105.321014867524,2119.33383887612,-380.842983617943,477.708567340493,-85.4758187476474,807.402473652509,29.142553579526,1043.26046449607,-98.2226554557641,344.863636815277,-24.7458489664009
259.435212343815,-23.3445606463525,1977.78627135178,-75.4132945859776,347.551984293845,-39.3133222302041,1003.55718101146,-100.326683679058,1380.52655916587,39.8352431219639,374.095765730178,-49.521620083959,1487.50349645992,-124.836680145243,769.266206224325,-118.896479647831,681.779697675447,-116.438038181661,498.532942862035,104.923808107894,2125.66473551917,-381.162941227458,479.249184032354,-85.6547856877,812.775748988269,28.1356663703371,1047.11963974813,-99.2117207633632,349.004161224408,-25.3408586198534
260.759109397224,-23.5820687618075,1999.18405514151,-76.8201588822892,348.983917646102,-39.5095994279323,1013.15440076189,-102.662101126906,1397.67404427378,36.9685038394219,380.59541928987,-50.885132085492,1509.78851833522,-128.583257569924,777.066524707019,-120.366195319322,690.262948019367,-118.758819356736,502.679667170255,105.239294649496,2149.34902069437,-388.194239574298,486.132605486947,-87.6045495292752,822.894578786607,26.7532730289221,1054.93114493462,-100.223043960151,354.927432814844,-26.8633890526098
262.343308040974,-23.5060647236018,2022.14542701577,-79.7292430772144,352.41421068004,-40.9887241561698,1020.7260710335,-103.845540605022,1417.75868831525,33.4560447467551,390.025658231282,-53.2422941886054,1534.95735811367,-133.626674440679,785.604006830702,-122.334189707426,698.951053346389,-120.627832956472,508.66523440631,104.603009538079,2171.75868546142,-393.102571964431,491.653858338683,-88.670346160826,829.595113184521,25.8521430616674,1059.30159438954,-101.173557925396,357.111301937705,-27.1592217781439
260.796337495885,-24.1922550262155,1999.67935727046,-75.8459027777566,348.066721581974,-39.2626705472323,1009.3318645666,-101.484233795201,1389.77531935871,37.4606296339203,377.278797212522,-49.4147278164085,1490.27492289985,-125.882962383369,769.981239920881,-118.797159553145,682.831705198183,-116.986409918271,498.949303417905,104.681559771505,2132.57382560461,-385.353951567894,479.537845254605,-86.0739042559939,813.51550094782,28.2074676402356,1047.47021900868,-98.8597775329815,351.383397645415,-26.5665146191126
261.078084434467,-24.2840766679549,1996.62316133726,-76.7087187365122,345.860192371049,-37.2127270317139,1009.30903049158,-101.198382350389,1390.3819660957,37.3994551478438,378.775999463798,-49.4960331259834,1491.82879611653,-124.987341666082,771.776207873305,-119.669138445659,684.333744961118,-117.278214000207,499.449321525192,104.931191014572,2134.09326263725,-383.747214789384,480.260972538707,-85.9306818809348,816.726269223588,26.6030493885097,1049.80682495343,-99.0060562616735,352.320994408958,-26.3687120955894
261.93417967047,-24.6177907113322,2021.12578647155,-85.6411140122497,350.787587401642,-40.520162096696,1014.38893149698,-102.338199317871,1407.17429520314,34.1637728476105,385.599642763559,-51.8092466558085,1513.64964118211,-130.152001858934,777.956969700523,-120.859507472241,691.271406306153,-118.998354197205,504.287801967126,104.558642568842,2150.22429839618,-388.320276562476,485.821437683947,-87.273249041853,824.522231083141,26.2807880926089,1056.54404423425,-100.611270501681,355.025746110132,-26.9993815143138
263.087224089425,-23.5351018099741,2036.64534563022,-87.6315083057136,351.401894972111,-40.1121377224025,1022.75248051382,-104.540701624433,1423.08715435673,32.1013663058846,393.941987658006,-53.4809244180549,1533.79523410251,-133.211759829686,784.73510849465,-122.306014035763,697.665381354947,-119.831321563721,509.922306938163,103.385423251657,2171.87130063389,-395.770938755391,488.429360375845,-87.9874585124526,825.792175131205,25.2943683036191,1057.27323841172,-101.198729085103,355.674048254553,-27.3647898233322
261.986058328121,-24.4669673688931,2003.46673480788,-80.7146924457958,347.583806370715,-38.6432715485255,1011.27803698058,-101.624524949131,1394.57490977189,37.1084439630052,379.859172364879,-50.8831238105429,1495.95090652226,-126.650290339209,773.336772064224,-120.029413494102,684.150688773116,-117.193531205337,499.444642190568,104.978236628977,2134.5942652795,-383.436694531385,481.582550236789,-86.6906667528281,814.869137004487,27.397203831317,1049.99902348267,-99.2531927488384,352.914444776363,-26.7993251550965
259.545082904543,-23.3698058135282,2002.24173758514,-79.3899080976574,346.558039504176,-38.0432210141068,1010.57078861053,-101.720736434903,1399.01728294752,35.4317865924937,381.131586722723,-50.2624687145371,1500.50866469975,-127.312353865743,773.90266011207,-119.944550830476,685.707211378429,-117.321378334965,501.101288991022,105.125116581226,2138.79312944163,-383.598682269394,481.643245127446,-86.2881731317861,817.685450521551,27.4138485933228,1052.8518430724,-100.157826184929,353.863328834043,-26.8557663089002
260.995405997555,-24.3887744734878,2023.30248638458,-84.0574680426258,347.286057795993,-38.0638958456367,1017.02547544988,-102.196625173473,1414.363547397,33.0013013760307,389.414791351496,-53.3093574870111,1521.10512882715,-131.239661584862,780.435680389515,-121.384613540043,692.524759028137,-119.336352665275,505.429419248112,104.818124867616,2157.43941220407,-389.215946176547,488.405016121857,-88.4850385089257,828.333363762182,25.1582071959724,1058.03583694792,-100.708697542112,358.188880817642,-28.1278057258894
264.36765139969,-24.8129121815816,2043.83162463075,-87.4463661868188,349.700582252458,-38.6595328607657,1024.83998865467,-104.508898152205,1430.96370470327,30.3496108931587,390.969830168103,-51.8685246549782,1534.5741756593,-135.201786237894,786.118815263785,-123.242438011746,697.920332002991,-120.487144455427,507.48663689096,103.888921563593,2161.71246481685,-393.847746929592,484.553157031672,-87.4772132027875,821.832070633564,25.7872033068308,1053.41601027511,-99.7978773996637,354.779818844365,-27.4861282410196
260.746291015272,-24.3084894847326,2006.92644956839,-79.5628366258832,346.67109810063,-38.9067005918114,1009.82461084832,-101.559573800174,1393.42522169266,35.9150331036158,380.746545800498,-50.7683895853021,1492.16553296865,-125.910284073287,771.002007802026,-119.459762135206,682.718781683068,-117.330960027911,499.201519537199,104.72335061701,2129.55287815554,-383.974463976394,478.328263996888,-85.7719781313045,810.605332261023,28.2587051415053,1047.80192710276,-99.1345913188365,353.597924434665,-27.0916286380157
258.931060599342,-23.9369337511134,2001.29590903234,-79.48879213243,346.68054433267,-39.0486971222843,1008.26197611669,-100.396084253425,1394.68439301281,35.8428550136715,378.943834792069,-49.577254623807,1494.85922662546,-125.918075157064,771.538276136523,-119.734249373133,682.812114068755,-116.494743031783,500.3830441486,104.258316657189,2131.71661845717,-383.021838741573,479.437385611246,-85.7723251897757,815.042266739744,27.567424565471,1048.2917168189,-98.0365952522142,354.893093263642,-27.2896648604965
259.763875423013,-22.8486538481165,2017.90955872714,-82.9657193939972,346.791594202249,-38.8305712364888,1015.69884753542,-101.976791114763,1408.45336858967,34.2204306645904,386.280450836314,-52.0603265650209,1512.56589086573,-129.132789642415,777.804679326749,-121.023582396011,690.293097650599,-118.36310880089,503.637489512977,104.972156780651,2147.5908049924,-387.068228947542,484.831395539185,-87.3915752280005,823.095272693414,26.7593288245333,1055.75947193807,-100.115391392082,356.766013733694,-27.097598355668
263.473510521537,-23.8790796198162,2042.1813581276,-84.3864659198488,348.771988662273,-38.6061781351729,1023.72350647629,-103.856713278896,1422.43964714536,31.7603241151571,390.269115239355,-52.4432218337191,1522.14125058569,-131.687671805772,781.831893590432,-122.230009115105,694.401967116604,-119.584448705097,503.508239326748,104.858426425671,2143.83361107755,-387.521491002259,480.181857630283,-86.3193548745508,816.056491375009,26.9678791101502,1050.0644820635,-99.7294126753624,354.085650590732,-26.8712199094674
259.360732039379,-23.2338095481894,2004.56965651993,-77.6495411278382,343.79053248013,-37.791263812421,1007.31925637974,-99.3968313988089,1386.9897353411,36.5864061763597,378.099528948501,-49.866980088788,1486.30003746917,-124.665177870661,768.27606425534,-119.319685407263,679.841033042446,-116.194099161944,496.799070754111,104.789323433467,2119.19185830506,-381.895393405316,475.173268252925,-84.8469365102611,807.92373015021,28.9583881225344,1044.1082201058,-97.6079515535907,353.639638921873,-27.1204224969644
259.120230517237,-23.3267885037003,2004.32247441894,-78.5848484131004,346.159782287048,-38.9611736536999,1008.69265269412,-100.188563119064,1387.68871538602,36.5852915284111,377.191683543328,-49.0634385577852,1487.74334574563,-123.246739276763,769.145610336,-119.315534379776,680.945617733589,-116.053270404499,496.853927176763,105.992613432894,2127.58102118999,-384.904698703758,475.835625418511,-84.7536752637216,810.123703374711,30.025398350019,1046.62307676131,-97.9128010519955,354.92002067433,-26.7483330934084
260.779041195695,-23.6719968233875,2018.20301608224,-79.2102284964077,344.537456044207,-38.1092914613254,1014.59175176094,-100.563669074878,1402.73266356288,35.346577919022,383.285918482356,-50.2855338367812,1506.67223489285,-128.079514951588,776.096996575847,-120.808059162038,686.297092415723,-117.07593134514,502.157986589013,104.855739327938,2138.74249351073,-384.977217335661,482.262105987309,-86.5138851069884,817.794408773391,28.3382033267123,1051.98444995504,-98.8393742630976,356.775730872383,-27.1795056140562
262.0313759526,-23.6977110799516,2046.03468357321,-89.5581979905138,348.160128686927,-39.6512014247698,1018.75966289096,-101.819164146889,1410.28510174865,33.8101960480668,383.727868913592,-51.465726447204,1497.96340274437,-126.488894060607,773.840449897737,-121.021067894206,685.668729101636,-117.168469781251,497.993114612473,105.621556183257,2121.87568183165,-380.869569391739,474.728784368783,-84.7668039586804,807.201900395853,30.1738607776677,1045.49125544223,-98.3380244088334,354.726368319901,-27.4976480233574
258.475270887608,-23.1035635935909,2008.91615272204,-79.9759818160969,342.527423673619,-38.1100535616218,1007.92848244721,-98.5353774522716,1385.14981535469,36.570442280056,379.023747039159,-50.1936562734337,1482.74277663458,-123.562438495812,767.164783737893,-118.709471551446,678.416911097695,-115.273425149541,495.161487907309,105.743648306495,2109.4163235187,-378.931110221176,472.335197168244,-83.6804074544927,804.25505037785,31.0367413316084,1043.05685294218,-97.5966236852387,353.291484353316,-26.6733865459058
258.127818874852,-23.3221037283729,2004.5405851357,-75.808751425071,340.472835661008,-36.1766227856683,1008.16835428499,-98.8600405412719,1389.21375919328,36.6393088730982,380.536655659668,-49.7398665257898,1490.67561612994,-124.668315680982,770.366474412675,-119.475491540992,681.405660393775,-115.85378603566,496.58194182178,106.14450602895,2119.3254238819,-377.814395163057,476.278715760493,-84.9948538682886,810.321371735346,30.2556087672011,1047.10504866728,-97.5882904590999,354.74819685338,-26.7494421925666
261.720468205885,-24.9429782052746,2024.46620823302,-82.3915164676461,346.165273841737,-39.8312306804384,1015.43916324743,-100.517175069638,1402.81038204753,35.0012205574452,387.71813711436,-52.4998373131462,1507.40861646434,-127.946472939171,775.858366973471,-120.668789245074,687.712254589208,-116.996783974356,500.570290072903,106.718179990876,2131.71430361537,-379.912373314355,480.191679210258,-85.3182937953577,816.730897637762,30.2390920892451,1051.9676551594,-98.5486886277587,357.301283779299,-27.4636227801199
260.330836600453,-23.434978419125,2018.32506661205,-79.9648422534487,342.739679497178,-39.2134710018457,1008.85845610376,-99.4898096706937,1382.69594189041,37.9337766929844,378.023740196815,-50.3864047003721,1477.15340804525,-122.214126199829,765.450818669737,-118.407969915244,677.259996688065,-114.915391182992,492.717062235031,106.530251928204,2097.65533041424,-372.645821326488,470.614466959997,-83.4493730058683,799.953544635421,32.2540699497383,1038.37784051236,-95.5762106443274,350.536477749611,-26.0179685674899
258.239569292041,-23.9533625305315,2003.19400891483,-81.108847095475,341.235296367552,-38.1590654712531,1002.80271196439,-97.3211425857403,1372.05860163743,40.2775380455038,376.069491713678,-48.8786851732666,1470.44382174139,-120.125187874033,762.425561479695,-117.530874766834,674.851055578089,-114.158647824822,491.284189697297,106.898662979617,2091.73279473162,-367.880380278621,469.462112099861,-82.7942003383794,798.450305746435,32.5721962541478,1036.98130397337,-94.8123237539033,350.464804285081,-25.9453628931231
257.116866698734,-21.8677115681821,2005.94417250017,-80.501607234145,341.618304839276,-37.2545625535414,1007.01115198141,-97.6732582205016,1381.7418435025,38.9629888394238,376.609358451847,-47.3142860250875,1484.53435412679,-121.260855988804,769.009085697684,-119.310881924309,679.870833944099,-115.229378439534,494.783224954932,107.464354720727,2108.95963190739,-375.465325241432,473.927587573168,-83.9999838644034,805.804160306696,32.6286125976679,1044.46604708316,-97.2135191915458,352.813752000781,-26.454303939008
260.439810339319,-24.183666158142,2021.02415336467,-83.0857111400844,344.593076553127,-37.8489842419118,1015.90533054101,-100.407399945539,1396.78066229745,36.7445015919323,385.339509906648,-50.5693884168661,1503.38085546147,-126.369063407547,775.264661015598,-120.556162631507,687.393677446247,-116.908748068018,499.009548056374,107.4751385579,2132.09022451617,-380.561198936615,479.364365568388,-85.1364545436938,814.990416741005,31.6373126008969,1051.11011642191,-98.5512349064712,354.937350619383,-26.41440858002
258.998869691254,-22.948433466694,2010.96546607807,-76.3216676970341,343.536624337944,-38.0415939311072,1008.34933384412,-98.518805978995,1377.654139705,39.5618244518724,377.006650257492,-48.4303282230737,1473.69630745761,-119.443612282469,764.632182798074,-118.161474846518,677.883866576217,-115.099546767366,491.552932424698,107.505400922506,2098.69575747527,-370.748719148566,469.06453912352,-82.2955936386401,799.246923010357,33.0420418827675,1038.42763066202,-96.1918738041004,349.458407937384,-25.748539026818
258.121621324771,-23.616814915312,1995.75840738676,-72.8328031426798,342.982342837028,-38.8141472159486,1006.2466418742,-97.8208146453271,1369.77452045017,40.4126103095409,374.597190280082,-48.0280647428251,1469.76841323408,-118.602226222593,762.965298447007,-117.824046263731,675.900078979144,-114.206823546414,490.464173865299,108.251385060646,2093.58694762439,-369.925825247753,469.291674442582,-82.3636069957874,798.52180722203,34.2552124497109,1037.30232559374,-95.1562690750641,348.126058161669,-24.964443615358
256.843003702447,-22.4292936001617,2004.48820218473,-74.2191771546658,342.80251223505,-38.3323631808906,1011.4013186637,-98.654658559093,1379.75278177738,40.5704944109845,379.202222671214,-48.9106850130504,1487.56348843758,-122.770117395425,770.159827239198,-119.478069028041,682.111284946496,-115.54614516742,494.628426617821,108.080889731973,2112.83171548431,-375.467285543842,474.548796421483,-83.4813460747143,806.976625895023,33.8255379517806,1045.37589234355,-97.1923852147628,350.779792425514,-25.5052177488632
262.57145564311,-23.8724035940268,2022.16943840914,-80.20799190232,346.943457595177,-40.3393940818939,1017.38035283918,-99.6794718893815,1392.63900047046,38.6416574853399,383.055898725871,-50.4615583984451,1503.86560931036,-125.195998963169,776.748833425584,-121.288596762356,688.998509551246,-117.393717711399,498.826888363052,108.385049018261,2133.08041901289,-379.397301915511,480.510386062575,-85.088788752317,817.573736448911,31.3890220127583,1052.8388324647,-98.8334589777629,353.562807833287,-26.1366682201153
259.695939858256,-23.477787018167,2002.42821215544,-75.9499182179082,343.463613275859,-38.2247556614699,1008.88014945528,-97.9999525023913,1368.82430253677,42.109053499129,376.473728114001,-50.033197606521,1472.87931581164,-118.859643914159,766.257945037874,-118.827517349938,678.344495114754,-114.928038419026,491.137413040848,108.637193127153,2104.2920255162,-373.440698382518,470.527441745262,-82.1408151175878,802.569635316438,33.6065388844509,1039.71107964267,-95.5800392098852,349.711035943935,-25.9532072282197
258.22337766337,-23.0649088150757,1999.96254521481,-73.6848621264891,344.26087852054,-38.1559529385233,1008.89969058265,-96.9850369246321,1369.02315793391,42.4543037039928,376.913605269143,-48.5819909322085,1476.27019990355,-119.833735519825,768.154621005537,-119.78000283572,679.553112258276,-115.053976265646,491.385689823059,109.768699307901,2106.42062187422,-374.129391021467,472.97934063973,-82.9603815460537,805.249162525005,33.2602927657275,1042.58501151734,-96.5213669114907,350.129251349132,-25.7727164746876
261.025621463665,-23.6004482279192,2012.89770088607,-75.5355303828393,348.808286948717,-40.7706864229213,1017.0201918998,-99.1352285016594,1381.61769846386,40.8210704327063,382.425076956552,-50.6022047798087,1496.13431030308,-124.522834219273,772.997034175194,-119.825389838708,687.298345192443,-117.095813117473,497.327855225582,108.388503663444,2128.63920597895,-378.031736672095,479.312329237736,-84.7100021465895,814.950371379263,32.2490381415843,1048.32144118369,-97.5533377663065,352.696376368114,-26.2708002279481
263.440681520501,-23.5804280820141,2034.7402850556,-80.906241447906,349.633857994341,-39.229478507267,1023.64555749031,-100.461246869039,1397.78172255393,37.6748446289361,386.068329968753,-49.9389209317923,1508.86878728111,-125.9833003305,779.186534853234,-121.947688530575,692.603081558729,-118.551156072757,498.553146445055,108.893724935357,2123.34952042656,-374.953663481091,476.508903107928,-83.8583105552034,810.545437652434,31.9395295420966,1045.07363057973,-96.86521611575,350.04710388568,-25.8281376227772
259.562136588075,-22.9126274431075,1995.32297458476,-72.4170722160932,343.11040738547,-37.7668759230988,1010.3522186661,-98.4597430634526,1359.9897256608,43.9750450574279,375.400270936251,-49.1772006094718,1469.99859989085,-119.361617219741,764.307691875131,-118.773607979955,677.656811053228,-114.954964440773,490.993506003006,109.241680779064,2103.37097088548,-371.982644811115,471.784747551272,-83.0338107629309,802.886449419164,33.7967526026979,1037.29580423126,-95.2712300774207,349.129584156175,-25.9604927875097
257.720663562299,-21.8118706688304,1997.14928481493,-77.1815932404836,344.523988637429,-38.205710405685,1010.64205186668,-97.6750818421725,1360.45554369147,44.2315384200936,376.203295536897,-48.898671068872,1473.20017120451,-119.092893813268,766.187675946139,-118.857383534635,679.08364426965,-115.186212180526,491.799615571179,109.501966344193,2106.62106324312,-372.133789697768,473.572411778474,-83.3407344203811,807.528213243679,33.2540600269102,1040.06173513594,-95.6293400808255,349.759169330528,-25.7189938131564
260.747279751461,-23.3323310101075,2011.59550715918,-76.3356197662202,346.525613879223,-38.0095644170177,1016.85955669631,-99.1688377878403,1374.02313406207,42.2760042036996,379.308091896608,-49.3719160469,1488.22390520265,-122.508658559718,771.105252962593,-119.677109214611,685.359127786734,-116.709147388993,497.789863216152,108.401064447946,2123.9818332522,-375.231221388774,478.299720215253,-84.5553560593362,815.499659799592,31.5672435479077,1046.01663435804,-96.6600455784776,351.928958134602,-26.1744180262107
263.359105384732,-24.4170852644543,2027.75074440999,-77.4626043248151,350.504818197177,-40.2347585949996,1023.74600020129,-99.7654581275514,1389.01695310694,41.1171700617758,385.956964954534,-51.7481431853818,1506.5044248896,-125.905574358508,778.221746080805,-121.508649480605,691.702348529951,-118.038065448756,501.148051542652,109.07141121568,2144.56982880775,-382.612506091244,484.059852375052,-86.1898559177787,825.462071849398,29.983758704876,1052.46082624083,-97.9361487211669,354.933304346952,-26.7073316050436
260.626051512347,-23.1540790820108,2002.9991577607,-73.6532467482871,346.186666389095,-38.740162981472,1012.67231439749,-98.4764027405848,1358.51002197478,44.63619298029,375.814162116787,-48.338418588903,1468.36854077591,-119.279481462703,763.427456604214,-118.146597786496,677.22283893627,-114.772519086498,491.195125356232,109.006323737258,2100.59354084573,-369.080149509605,470.385676469662,-82.5724313406149,802.877950268473,32.9477501039611,1034.11026537581,-94.1214097981335,348.788892803804,-25.9609188369289
258.742648806947,-21.65665964101,1987.69678439702,-70.6722079626199,344.154876202345,-38.2247536219508,1009.51113757312,-97.4869869809567,1353.67045754317,45.8389730991723,374.927726851097,-49.0795122405704,1466.2998270773,-118.992478429734,763.120057002529,-118.339593570981,676.99492577105,-114.752676868181,491.443337948027,109.229100362798,2099.41106913051,-370.453387010438,470.860817440277,-82.1799887622671,804.444860345948,33.1744627535078,1035.79286106685,-94.5295961611161,349.552873606638,-25.7017818735117
259.663978853879,-22.1215385556381,2002.97612145678,-72.1425848781298,346.5971129597,-38.9539594214865,1014.94158524754,-98.5832949620082,1364.31216248267,45.54330482359,378.281202670218,-49.8555320877364,1481.81244679449,-120.693335766983,768.953651043229,-119.530284067704,682.772306719621,-116.018667910509,495.378873388626,109.130174539377,2115.09982482509,-373.311829618101,476.019817136801,-83.932767294525,812.433655021103,32.2952075328037,1041.24742467006,-95.8552470204245,350.968926732595,-25.7579936688077
263.81749457684,-24.1372967853991,2021.48721878742,-77.3241896592202,347.129061518203,-37.883658559022,1021.84426938065,-100.787389111656,1379.75198007066,42.5192442168464,382.084756235897,-50.1448791170036,1498.66152955464,-124.419095068984,774.724280388176,-120.858811907927,688.641129342014,-117.22169708511,500.850706523538,109.040075375298,2131.6257585044,-378.035331016473,480.431660766196,-85.1480472796438,821.840359804039,30.2352596135578,1048.58704895825,-96.6229774946724,353.829638353711,-26.59331758225
262.706613756752,-22.98293215855,2013.36468029509,-71.9016564638935,347.422995761679,-39.4635699750361,1014.98487790358,-99.4365167341856,1363.82982617648,44.6834264597718,376.386862356546,-49.3760236779363,1474.27519389289,-121.003442659852,765.383807322043,-118.650025751277,680.423317677653,-115.552194152287,494.503841844023,108.595007192393,2102.83353199321,-369.590078139781,471.571020862184,-82.7213352621799,806.732582761195,31.9268037867136,1037.59908770136,-95.3474010835259,348.771219040296,-25.7044402848205
259.939088363438,-21.9923873695592,1996.35177009375,-71.8683999931351,342.713362580855,-36.8566573664713,1009.12732316995,-97.9635262577427,1356.16881521103,45.3815644437864,373.621186747016,-48.5096532662184,1466.89481859944,-117.828341802817,762.865519148995,-118.404826106329,679.753602616145,-116.107207328772,493.200246622526,108.858472830668,2101.5418465156,-370.672157307325,471.615663667784,-82.7105029966014,806.180083097934,31.8881459199856,1035.14566611857,-94.4677828902361,349.609069808297,-26.1965216528326
260.495266653356,-22.3429056904786,2002.27889199296,-68.9442045578489,343.705876666018,-37.1190043315785,1014.5621836471,-99.4462970670712,1365.31593621433,45.4162082364467,377.54901655286,-49.526776430914,1482.17593882925,-120.735020819091,769.000868146547,-119.892436403605,685.337014800194,-116.917875851913,497.671647777403,108.631351041305,2120.06652181988,-375.50746078418,476.207286277597,-84.0489423188821,813.098399700777,31.0827910863889,1041.36748655269,-96.197298128671,351.347357757253,-26.0217305952833
262.537023480366,-22.8632597507033,2020.20402303578,-74.4634712276955,346.447490658322,-38.5515546020989,1018.25105347136,-100.159760247399,1379.76514072553,42.8767882687511,383.275289172451,-52.3259653451359,1499.65021668992,-125.107992217964,774.655615811441,-120.819147291558,691.35519518883,-118.671384457624,502.892159085322,108.093169127854,2140.46611643234,-381.409934079876,481.03613945748,-85.2760045431602,820.630315291576,30.0564168365197,1047.96087494017,-97.4766919099407,353.868090385196,-26.9400736076089
260.641681548109,-22.9425254331449,1993.18420722676,-69.014094566229,344.924632304897,-38.1502329939561,1007.92935573216,-98.9089780993828,1355.07440191826,45.7611925945026,372.222528911883,-49.4785017173807,1467.03676982277,-119.016427818814,761.430143850341,-118.787225607766,678.680543946168,-115.510600005033,493.781456209896,108.349833177803,2094.601662696,-368.439011213473,470.103601051897,-82.6000775105358,800.584969320323,31.7247462893484,1032.77622082956,-94.7878169476667,346.854788393246,-25.4800675833385
259.744735424768,-22.8676694175681,1976.53020239822,-64.9795517115864,343.217127609849,-38.3257569519764,1003.31037509853,-98.7979297234129,1350.1631414983,45.9296972077472,370.839379329541,-48.4763628965088,1463.07034717123,-118.870961626255,759.10705146272,-117.874775560568,676.848330350333,-115.128840471088,493.713853842486,108.066851929873,2093.64141755155,-368.023081892106,469.879366682914,-82.2393723507897,799.564015514382,32.2842909360854,1030.89748608937,-93.993241459717,347.919939724595,-25.7327829654298
261.446810457734,-23.6073384032121,1988.02120062652,-67.7575157276005,343.826506247362,-37.5900255978366,1006.31443432255,-98.9579699153862,1362.18747915311,45.2289321119457,373.076519237524,-48.635311669065,1479.56420913518,-122.017582246617,765.315441071779,-119.183303813615,683.159190384311,-116.856378337972,498.899963101109,107.823543478215,2111.69650611681,-373.056516097034,474.42358147693,-83.5167053529235,809.524770604078,30.8399845960704,1037.03411146194,-94.3719428709182,350.069156450336,-26.1410342557716
261.106694128286,-21.2917631638012,2005.82672034621,-71.2264514972531,347.923719015658,-39.4385659243384,1012.67379901028,-99.9520963730443,1377.0532277281,42.8716052103231,377.8730449062,-50.6287155912981,1496.71455014673,-124.805275593685,772.543011671947,-120.799126981964,690.3815699767,-118.372836095374,503.508514051476,107.805312385803,2133.84817404077,-376.129049481646,480.113745125275,-84.9337966988301,819.674482192869,28.9887940430712,1045.00948098004,-96.5210553507389,352.57966409782,-26.0913680872892
263.851394524814,-23.4960957809506,2022.25442325252,-76.687382585559,345.759883887045,-38.5405779104088,1013.29884346818,-100.743382622091,1372.03669734377,43.4597341493387,376.168409147704,-50.3855640171931,1475.1484781723,-121.293201229065,763.798390479119,-118.380124166286,683.767141017106,-116.856745869606,498.397309958437,106.839111931379,2109.30274599894,-372.611220824555,471.251682013933,-83.0602014058256,802.359697097445,30.7714039208368,1032.81504171975,-93.8430705426318,347.990353380412,-25.6726485456961
259.792697371848,-21.6402034413909,1982.60699118731,-67.0337535645859,343.966538104573,-38.1499624177581,1002.18117924423,-97.8068851140348,1353.26792760339,44.663130487488,371.235569074799,-49.1892951583192,1465.43832107663,-119.863042471904,758.915038618858,-117.138299194925,679.409027576785,-116.196972707703,495.101059717297,107.279259903366,2093.25948987412,-367.696997253071,469.363199201357,-82.4377540857729,800.195024512888,30.7887190122015,1029.05585877539,-93.7435302956643,347.50586288807,-25.6543156277674
259.672419983722,-22.4463335554641,1983.35593138855,-66.6491855888538,343.871879877035,-37.2574419012563,1004.8122299723,-99.1722674431219,1360.54968547752,44.7076160653002,371.991749329179,-48.2158674212141,1478.19117049032,-122.335844774219,764.519496553023,-118.971778915629,684.003950196796,-116.935207779996,499.75420527266,107.20104968119,2108.81410880092,-372.043018517979,474.113903584205,-83.3036150014126,809.871005508027,29.6169129722549,1036.17867921373,-95.1000832849331,352.327556063454,-27.0546164799495
263.244182622516,-22.6450371010582,2000.63630549134,-68.1882123720987,348.325441321317,-38.9679604933594,1013.30397243056,-100.413712503496,1378.94593965537,42.5616332858339,379.033500490606,-50.8340787558362,1498.54665941215,-126.086731643818,773.015891204597,-121.120089967804,692.051944380691,-119.306330098645,504.952222363306,107.009801396387,2127.49208784965,-374.460319566387,479.645280740467,-84.5003487934864,819.589273865467,28.561019116076,1044.03648788743,-96.4445733300007,354.383979901898,-27.2980362175824
262.128481553179,-21.1156327887743,2016.39047889803,-70.5652091731312,349.904883380539,-40.3880719636224,1017.41151341938,-102.652163863501,1381.32425257489,42.0145881761458,376.835753730661,-49.8444674399249,1484.66881414699,-123.701859468296,768.721216200439,-120.349449969735,688.102445995842,-118.546290501266,501.463220551375,106.351174519252,2113.44271988212,-373.554866933686,473.131303356079,-83.4598773271322,807.791081527308,30.312369636267,1035.50497600496,-95.3162654877963,351.739645206588,-27.6742913107675
263.125330355147,-23.8844777735953,1988.23050701248,-69.3425448561085,346.695780052345,-39.7707550872834,1009.36278933922,-101.044887886187,1364.36024783893,43.844184897478,374.899506031867,-48.972629166656,1477.73799648829,-122.409834985069,765.614788476316,-119.729464130594,685.386446748759,-117.806671252244,498.911193986274,106.883179243547,2105.08034340402,-371.415371970077,471.808757465895,-82.9828775430209,807.02312201701,29.9175919916012,1033.22314432449,-93.9897872585684,350.855902259264,-26.434483845895
262.497902698935,-23.1516479752671,1995.73871255653,-71.4319854015303,348.261066938165,-39.2348809666974,1012.76619027299,-101.324694167064,1372.9472011742,42.9882544269196,376.412696409524,-50.4268419461303,1489.5594796956,-124.588379226868,771.161075082635,-121.245069596368,689.759829364574,-118.662586575597,503.792635217797,105.608528326364,2116.69906645834,-372.677424752981,476.824970065855,-84.497649874581,815.015409158353,29.2861168493469,1042.52928144693,-96.3888285307672,354.03488938158,-27.7189995433014
264.089739418689,-24.1129082162372,2016.56366172048,-73.4504925175668,351.639669983565,-40.2902783834027,1020.83578931202,-102.983523211142,1391.03223767215,39.8812657033194,382.457995018213,-50.8549153834785,1508.89939342518,-128.303790407796,778.699358052001,-122.440713568943,697.47479776844,-120.975621791645,508.68749827755,105.736769554429,2140.04249261122,-378.643147139718,482.222429842377,-85.5298651175414,826.851238873551,26.8965872083715,1049.65257829197,-97.4141514819336,358.848381043966,-29.322323794838
264.28383782991,-23.9610410932555,1999.77653535362,-72.4248594757368,348.168859732142,-38.5379267622177,1013.2415563105,-101.800298260384,1371.49659187188,42.2454040091501,375.793422856164,-48.7927732106464,1481.99271110719,-124.087244088554,767.621616991722,-119.671021459047,688.092742839998,-118.767717941148,502.247997115677,105.49135368741,2107.22668095091,-372.294331752705,472.225437084196,-82.7398882817094,809.103074582618,29.366676237163,1036.87098899444,-95.3395640062793,352.543955600719,-27.8312086242929
263.234035534672,-23.0056598793409,1990.60259789837,-67.441953217482,348.368595383165,-39.6355234149865,1013.43269621367,-102.409988908971,1369.96600613754,42.5700141405288,378.169598775403,-50.5455523120321,1484.87273454476,-124.555540465866,767.467984699609,-119.476515664694,688.209296545665,-118.573274036689,502.443645516882,105.781685395074,2110.62004047362,-373.624286890501,473.683577528517,-83.4268382344692,813.055482954916,28.5771042809229,1039.68901678887,-95.5825630977284,353.172949943901,-27.4270222794549
263.099591234579,-23.1093567342318,2008.01275869916,-72.3378954825241,349.711660480472,-39.0872021094536,1021.08373856952,-103.43123457416,1385.74682499493,40.9630942499353,383.918712012924,-52.5840965593439,1503.6639943143,-127.913062130372,776.647704672816,-122.059193952272,694.981610497162,-120.446747191295,508.173242538617,104.706133832417,2126.50998630138,-375.283082415071,479.392213605646,-84.65324811989,823.33081732953,27.9304291464798,1047.70806608129,-97.3389438293186,356.54712454181,-28.1204466073967
268.039565932746,-24.5983364186652,2026.24213264786,-76.4545074337611,352.758919630279,-40.0870529973945,1028.95336832136,-104.829693905592,1403.36612448686,37.8750305470814,390.272949246404,-53.0158495891412,1522.24938253955,-131.044040597234,785.337780164742,-124.479595531154,702.599416296926,-122.20393987937,511.996811429189,105.092772976945,2142.09068323662,-382.118807148559,480.783902870991,-85.0619268089335,822.225767518259,27.6990349221704,1047.833655778,-97.3518939434434,357.669946991658,-28.8636387617252
264.520136107179,-24.0896248398036,2002.69596216014,-73.0490150001523,347.842175208533,-38.9566185011408,1015.77967688648,-102.524129428308,1372.19011508796,41.421635821717,379.678504696334,-51.3724798873166,1485.63729972241,-124.986559122146,770.272071954964,-121.021237763499,688.246974182609,-118.840896717928,502.166581108196,105.255291810734,2105.4329045002,-370.661206235221,472.100975663384,-83.0667127797854,811.356868880114,29.2072668470588,1040.19250636374,-96.0959171884274,353.3757555075,-27.9010140231744
265.729781477198,-24.5579435166672,2005.21353774871,-74.2385007551847,350.357480515217,-39.859296502502,1018.19781395801,-102.736992878215,1375.17757514957,41.8611741183589,380.138350368971,-50.7949175012305,1492.41315660206,-125.462864713948,773.120344629362,-121.613126185371,690.656228235402,-119.005042246676,503.845191173953,105.391905986256,2110.73033579052,-370.644803485858,474.912151076387,-83.6662553329801,816.812030992808,28.8173287703153,1042.99639201425,-96.1638363400888,356.062343504324,-28.7162005337755
266.824855086235,-24.7773479543127,2020.84197034879,-73.5749940683598,352.896181870433,-39.8916600444942,1026.4171482797,-104.670642041995,1394.55252490355,38.733454524364,386.006310641138,-52.4676557386976,1513.15711291463,-129.813614591659,781.014880322258,-122.608095627,698.441078009461,-120.885724922339,509.4178076571,105.27257076258,2131.28714172467,-375.335714457119,481.194682156689,-85.3910187920956,826.147184413581,27.492670284698,1050.47535466451,-97.0785653275525,358.73977919205,-28.6579327359206
270.76035475377,-26.0721844578156,2045.72059342751,-80.9445333293114,356.168479452587,-41.0531913147782,1036.02631976942,-106.40142845927,1409.13825051389,36.1782004481395,389.769398661764,-52.9029369866586,1519.15688883639,-132.286138777314,783.188814060579,-123.453025765652,701.198495086964,-121.786940711081,508.680573903445,104.966460569718,2126.05905839925,-378.992426179151,475.714898619907,-83.8402116334218,816.444699833054,29.1371624054283,1046.46091275407,-96.844590302472,356.968357002833,-28.5872231528026
264.5593546133,-22.6151230214813,2014.59259159515,-74.2504079974471,351.634479910587,-40.6691999534869,1022.37189968625,-104.185836088394,1378.79563540538,42.0601226900287,383.57670683856,-51.5780284212128,1495.42653550043,-126.544793055366,774.870945236275,-121.745980878037,692.122664274628,-119.398732126855,505.050187729927,104.514967619296,2109.01915005846,-370.384354273852,473.541843174162,-83.5272732970228,813.966912441444,29.2852414941827,1041.251026995,-95.1561688622719,355.942917685301,-28.3630896329517
