-2.99284978889753,5.74976097651442,40.0044329859903,-2.84627887604538,10.5074930966486,-2.19766769540838,510.314446110663,9.13764425651878,867.579335005286,-27.4360389463224,-1.04802445477741,4.35703727605296,106.5312877219,-18.9062544155915,94.8948645782713,-11.3750761108193,23.6328832478591,-3.75672876551089,594.555171471487,227.0067387718,250.918052112484,-23.5460518457068,1806.6557830492,-291.356864170826,175.400580400676,4.71306152089864,797.636426227775,-31.6578895112835,557.363909829433,-56.9600054671514
2.13396154935286,0.421917578268315,44.2321854458812,-2.84650369849123,5.253295599325,-0.881871507544021,506.431115789093,17.3909861507041,877.106669191329,-29.5470332866006,0.521683351110241,4.03051631419149,101.235743298374,-18.6314129879179,111.019626781251,-25.7141911631288,24.1803635951802,-5.42909861612208,612.540869911684,224.589972886593,255.946546346206,-25.8625274588845,1831.67168659926,-301.608453687857,178.920896413485,3.28615155196622,805.807576082379,-31.8114067710625,580.325304428796,-63.4632068963063
3.94569002490945,1.22096353612277,43.3539818542789,-4.16890014287917,12.4136913889701,-0.448093445984228,506.796528575238,20.7303549083919,874.251332353758,-28.4314310162103,5.75798694780208,-0.872645602791826,93.7986615502527,-11.9545537130544,107.001665431592,-21.3027243285139,17.2217769701952,-3.31384160111847,590.119921272532,224.394900225048,251.559163166211,-24.3127784933714,1780.11885780502,-285.37405589362,176.054467484488,2.82508801421468,797.061526224095,-32.2203645267917,554.02014483435,-56.8726372375219
-0.861920646368125,4.3258782088587,35.5476763660614,0.28249858531602,7.80871426245729,-2.22492088242514,505.979944403069,16.8961722593159,859.570637227647,-26.0659607497074,3.4582067269922,0.493567403471644,94.793526992611,-10.428624938577,109.84256442624,-24.6414270383332,24.5798112742558,-4.72592101589796,592.725667761092,223.690456082091,248.623377189988,-23.1416167550088,1801.33377605616,-297.06980649813,174.038484362837,4.15273992225152,793.491347418371,-28.6844874949123,556.464154683923,-55.9332736550336
-3.84964929350038,8.02453473027159,30.6041353383137,5.02685542922571,4.43674442654324,-0.122770890556092,502.720184010221,20.86939117466,871.132181250499,-28.8987635284295,7.74331411971017,-2.599176659633,97.9537508387045,-13.6356282305243,109.979856721072,-27.8681575267275,23.1557000326069,-2.46121033006195,605.416204526273,226.203225929805,251.3948274672,-24.0038516374825,1838.67931017748,-302.740485786937,178.504767815255,2.77568729758122,806.527713033145,-34.0333529252541,575.853955487539,-61.4792256501058
3.09719871429653,0.350309383520248,32.2993236867132,5.1242477893296,-1.96682411191974,6.42491612122448,501.505699407133,18.1529186017964,881.740383400933,-31.5568907760081,1.86668190122516,0.307312676816062,102.401815459102,-17.8220354290138,102.89049699144,-20.46320628554,21.6408250216438,-2.31243014651688,588.427866016747,225.449856976343,251.855160309421,-24.9459958983429,1782.58188079454,-287.939367117792,174.590294559474,3.94910272160508,791.07003812102,-29.4280800661449,553.02436704083,-58.1964029375576
0.944235622851131,3.82935071698262,29.7014039628937,6.46424020729816,10.0161458291394,0.433031370963184,513.924971973751,6.16357385369075,848.478399685457,-23.9560079835885,9.69005164598488,-1.40405337056401,100.095957590101,-16.1222234832116,99.7789049354108,-19.6769955717792,24.1856161075676,-4.26242556812446,581.627118933888,225.645909590121,247.051739710601,-23.2769910932513,1779.52956522373,-290.275517080681,171.592808665367,4.50194909765731,789.89125219974,-30.5970786709401,552.238869714327,-57.3335290467147
0.0941199757909757,1.80988668105275,30.4637246890279,6.81914803666853,14.6680966288342,-4.24408125662528,492.582812952224,21.3317994703383,856.613334724291,-25.1722380422958,1.11887361978812,0.74788924529925,97.8997742899142,-16.1909818288871,108.408664083849,-24.521692908114,20.5472594933332,-3.54853075400691,599.084530807783,222.174502970492,247.651647075281,-22.9809888540775,1818.60037470313,-304.031135621942,175.725698582769,2.96677614267849,796.474468251551,-31.4303076254514,566.107017549026,-57.7018593922588
3.58701570797846,2.03526894912259,20.5635287513959,6.20904669757452,7.29691568111255,0.0116069030858317,510.523669507094,13.8134808951435,876.104228052914,-28.7782332211041,6.08123323059986,-0.890593718290728,98.6561755002442,-11.2119885011935,110.77513465418,-27.3814160162405,17.0900146815077,-2.23706991234236,605.566473771743,231.691061499264,251.866439194499,-24.0348607631167,1833.81531515657,-303.099223280795,178.204507929843,3.01059139015824,802.819646154716,-33.1233257472432,565.161096707319,-58.7449439633963
0.550951410419313,3.7886842928146,29.4496616947455,5.04005595704259,2.16068931999643,2.14595614235453,499.134242487152,14.7987819588195,840.628925686309,-22.0893145897173,7.1191063333646,0.351598421359019,101.05578659906,-22.1085384495415,108.934699077655,-24.8814458061611,27.2903087758935,-7.1606427702413,576.57872595622,225.135397012413,244.629103644161,-22.5820307834715,1772.86074380589,-280.463336355244,171.392352962928,4.27233891749304,786.968193141741,-30.7980746764212,550.932999995125,-56.2168795617943
2.8694707001549,0.728942021734706,36.5318718764898,-1.14405520448022,3.28881615479806,1.23826704261303,504.426345714041,10.6288417338827,847.606079794652,-22.5363721247339,0.271671742399302,3.70983416640288,89.5555877441155,-13.1800077016664,110.386392767742,-27.3638333173755,21.6330136295861,-2.67138689755224,586.470785531707,224.049195217645,243.848046012347,-22.3091866427987,1803.95299902649,-294.893562292259,173.821177712752,4.26333924355994,792.223928350356,-29.1109139513756,562.924381675519,-57.7604280518214
-1.06774846778731,2.75425698467941,24.3045232980141,6.54004933435479,9.75514385888173,-0.709934610359488,503.795171383119,14.1075775918585,871.155575507818,-27.5549087335874,-2.24954423532593,4.49042047118241,102.613394120856,-15.4701814270052,102.621234458548,-24.7458034029702,27.9755780113351,-4.28134564337199,608.187894473564,224.078933795874,251.446843340492,-23.8728928884092,1853.89184315921,-316.140506471083,177.678667635053,2.90466062972518,808.287024221611,-34.3175867135778,580.975722839496,-61.6895515136603
0.547806163803538,4.98279280136773,22.609757103841,5.93250535058233,4.66528307247077,2.42572196008662,488.753674689997,17.8761474239375,842.287306925869,-23.2369523547552,4.91466336513077,0.229570008088332,98.8277582159799,-13.525461313421,103.169651904904,-25.1514839955125,15.9153287426083,0.826923512980219,576.116456814106,225.903898784158,245.565332294092,-22.6610392355468,1774.73432976026,-287.699001957116,172.170554110381,4.29140654569652,789.6818501268,-28.9119959277713,556.445363309406,-57.3846070036209
-1.97079358258303,3.68008941954579,24.5338268670139,4.56232745855672,8.23739514886714,0.779683216932809,500.42557314405,16.8608439718101,847.740716271696,-24.3939724671288,0.791921014579077,0.594158609484125,88.4815725306098,-10.94900765843,106.386784456471,-23.5726391637904,17.9994841531683,-0.662017691916289,586.38793327526,223.627583175743,245.405888729976,-22.3188712581748,1799.09852785799,-301.963048597872,172.429976120272,4.37151501372926,792.34639676537,-30.6315349417818,561.839123950417,-57.8341279764391
-0.0227704011268204,4.34129244084094,36.9588320999308,1.12156989919354,7.62611389385855,-1.28432210280436,500.631204445417,15.7063167158794,866.983175829431,-26.2726941338965,6.53548416523377,-1.79917510609565,90.5268576108654,-12.5588979440215,102.719894942315,-26.398050037942,18.4784254909487,-0.775408149664723,603.123106818699,225.745320209054,249.419180588223,-22.8515618623845,1840.29523184578,-308.172881719776,176.028529642466,3.8758578234586,807.741807918713,-33.8896701720814,583.321861416056,-64.8933641038706
4.62241748020114,0.500608796168937,30.6326438316967,2.31309908992198,8.65095413889518,-1.77077595671651,505.619286294453,16.3653330751907,848.560098722993,-25.1960996337632,4.45941641763084,1.84583751244364,93.6292285672362,-13.3409677188406,107.110504516147,-20.5816226335833,16.3092873591805,0.509866223435814,577.187025769555,224.617157154162,245.172584249645,-22.3668614520634,1787.71840571627,-295.348060618215,171.992379722035,4.28937478106285,787.928702532946,-29.104811620366,556.871813498292,-56.7766034139959
8.93238137606365,-3.07181781032773,27.5163632651107,4.34340075875214,9.228398983748,1.12844369901821,495.485548561952,19.913462551394,849.969193540519,-22.0255956088618,2.22972915747714,1.5553429891222,96.3889606542259,-13.8231320289579,115.274393991466,-33.0477171379989,19.1341249826791,-0.608759600067786,585.988388039857,223.779650003708,246.797077139616,-22.8591516985142,1799.49748135702,-289.59067050432,173.633171067618,3.76664299712027,794.768998278006,-32.1354542552506,565.706891836655,-58.5502396072847
10.8451471464369,-3.77192579114523,29.1760693894078,3.5674130093558,5.19230204990435,3.70326515469462,501.334499051207,15.7557175529166,873.052507926309,-27.7813567717076,0.294297921976495,2.11203967001961,104.001271674667,-15.0099839704409,105.109640092549,-23.9398935770918,28.6335537917461,-8.56263313165123,607.11523461525,224.568999891106,252.338275742411,-23.9466770637851,1833.61289260697,-294.410084720491,177.280204407242,3.12490697542247,805.506723507023,-32.4476875523321,586.314552181881,-63.0957967261297
4.23381976535726,2.31594507220417,36.1127063863692,-0.645511430806682,4.58987894747183,-0.371479591573479,481.992688342498,29.9284168582859,859.208702662544,-24.5879048503672,-1.24138073927042,5.78761535546306,101.465688080904,-16.4375338842625,98.5989192198374,-17.7889381831159,25.3002297684616,-6.65418417867385,574.881620150963,226.871496093142,246.419887188443,-22.2067547915703,1797.63789554477,-297.973882620027,172.870944311716,3.51215665700226,788.840334644765,-28.4064196604336,554.334433481593,-56.6673723384886
5.6001084086727,-0.357550809321372,25.8617273711149,7.55020746882294,4.827707756907,4.58848034046413,491.969837831345,21.1297789732687,854.181675124784,-23.3577215152123,0.9337949302195,-0.143767513878006,97.8363741888963,-12.4002754701112,117.758266841964,-30.527139846705,18.1708090008102,-1.52568175376658,581.226907407313,225.933727341307,245.897515583241,-22.5955558655184,1793.31975037367,-299.275397487736,172.801996845773,3.49915555515925,789.42204707037,-29.0275524726341,565.70399650075,-59.3632821641063
2.09254714742508,1.05245711003126,35.4720805198231,0.194438304434138,4.10964251762097,2.22523700788258,495.858831803176,20.2949358795485,873.543084125669,-28.1539657487108,2.55412418722939,1.30717831773913,89.122462386853,-11.2761151138206,114.052032638304,-25.5462645962764,20.8432484114668,-1.29929595081161,598.401465361629,228.468551294859,250.249643397921,-23.1397384172584,1832.38658231177,-295.72408577444,175.624855713495,3.13230685445861,805.612159460968,-34.0523267292871,584.158178049774,-60.0693154988526
0.0882000722408399,4.4592865510978,32.1180367107087,4.39335085260634,0.776858682426274,1.90984736360184,512.589855865594,14.1109527110023,884.770066174138,-27.8555195784856,2.63134822798478,3.18218980283115,91.1132679852377,-10.2495458936448,106.390879255313,-20.8682303046332,20.3274905939353,-3.11341263963336,594.394623017891,220.55041564738,249.804441076562,-23.7596601955663,1811.85588226728,-298.30707022082,171.885099558465,3.73185550617278,796.767540988368,-32.3101554616791,559.713178784111,-57.5772256593588
-0.915163125895333,3.76319302366996,27.2567087327,3.05516536157262,8.6004938670552,-0.357716690206568,497.008756431668,22.7955240900123,856.190991235572,-25.1027448687775,1.94469335766024,0.409326116934976,94.6566547193752,-10.9329385140568,99.0847560440947,-18.3106697687716,23.8331951038023,-7.33417222185979,581.405580985421,226.736431736343,246.550524366641,-22.6109339424823,1817.27036196053,-303.58849599177,171.62993915834,4.25797889182717,791.084800142501,-31.8345428192148,564.194581536761,-59.8871191769755
0.561571657625814,4.29855862416521,32.9601434114157,0.884650725826485,-2.83497552080395,6.75019856611071,504.930433358809,12.5870722270641,869.076362381761,-25.7846288426389,-1.69220528701855,3.09892924206812,99.3017333646735,-16.336737589969,107.864862136163,-22.7132619552876,20.4425782824089,-3.07157347129002,596.238112135388,226.823487431635,249.193288763369,-23.7044829111166,1834.9475518372,-299.383539651272,175.342200215882,3.07553662452633,802.117950061609,-32.8404976686045,583.231458353031,-61.6112420313055
2.41679077459843,0.568360260336208,35.2569236861969,-1.24602832191831,11.012740733643,-0.963410347307166,501.45114799916,21.9193378736229,891.109020452376,-29.5409122661025,1.76107786305344,0.666876207826479,97.4440563493326,-11.9129567312222,108.838221896924,-28.0082031710438,26.3323304950708,-6.3116523928406,612.397938648872,229.79279831982,253.072951103205,-23.6883103020788,1874.91633944912,-318.726850093948,178.081828931017,3.09692711747676,807.124347520333,-32.9232728888584,590.357592888188,-63.9615602143469
1.48313043888874,2.01037729858756,24.6483995128999,8.43548174304195,4.77531565712644,2.44408964231032,505.730083960006,13.9492775478757,856.810906651213,-23.0985669578358,3.28851597759094,-0.0463416981159401,96.4616597602869,-13.7191616601123,105.089846011772,-23.4555515044587,23.1834020913056,-5.50712949464769,584.544300327823,227.068026140521,247.64591583689,-22.8887251868839,1818.07345119417,-293.972494504363,172.910984970193,3.28144942896018,793.626833928373,-29.6962836305448,570.205193664757,-60.9216530619151
-0.764457622336439,3.40278915376852,35.1176315452738,0.22043451271801,0.192803203298005,7.04565621703318,505.419331548376,9.58020891064917,869.4662006477,-27.4158002333511,6.61020258526596,-0.695142789983623,105.960541963038,-20.5309031526285,107.854973125711,-25.7842997379239,22.6624950593702,-6.04387641306718,593.948450510073,226.645593381807,248.447386504552,-23.874597479347,1821.16716598013,-297.086792429881,173.084868844244,3.92540534587465,802.265010734062,-32.8919087424284,579.941733246968,-62.9819373604176
2.16149215628719,5.60285940265347,39.8482032450987,-2.35106625871061,11.1801048296299,-2.06644299826456,498.307213075278,16.4017437380857,890.83309023615,-30.5899699449011,0.207441931156625,3.15555669460263,92.6586659184339,-10.7821409341843,94.6523386705495,-15.5215435755762,17.8904506493118,-4.00746337886018,607.987575353899,230.72784207371,252.112654364403,-23.0666252561828,1885.71816197604,-314.651711370517,178.319260055686,2.48960004242228,811.059155622144,-32.915305562288,599.201195664451,-67.1001707954051
1.27110457337178,2.44623295025046,32.8477722892465,1.25069783959931,2.86844317684547,0.87361802705262,501.991126677596,13.5119158082441,863.49293155586,-25.5461140860839,1.60292091484609,-0.408815977040517,86.6929293491297,-5.09387050490238,104.726984603812,-21.2725077713577,11.6435932112082,0.547652067336906,585.006168185769,226.929289553152,246.248811656501,-22.4921214883312,1825.88158535886,-308.176652396745,173.02047320689,4.06896130965348,799.095178494402,-33.4536863642818,571.751960771963,-59.330648149267
9.84853835054226,-0.487022426509085,29.6538595025996,4.9345293650303,7.38714931250569,-1.15590242423561,499.421199028889,14.2340449478247,871.716372112137,-27.3649752316634,5.61213686584394,0.450902732138995,98.0535699455722,-12.9744110511605,103.799183673056,-20.1993951827465,21.167356941865,-2.84873983271333,591.916728830334,228.460656326329,247.702757213973,-23.3200713985627,1844.80467198718,-306.691394507379,172.736544983051,4.19395330550321,803.162183499799,-32.9298039230936,578.883558407466,-61.9362807300788
3.69337360499417,3.09292026102484,37.3098557709597,3.59076671916412,4.6220065125742,-0.840862670783748,504.144428739941,19.7730077890505,892.493311800918,-29.5759694164657,4.26714499501247,-0.162038689469336,100.837762850914,-13.7428010309148,113.39139758983,-27.2874872948137,24.5003205361339,-4.91072272045684,614.242017510021,225.934832991364,255.424298847827,-26.1466436808843,1880.72746047287,-312.286535468663,177.919781520909,3.11379357219631,812.378806673318,-33.4322012331369,602.446245804102,-66.1118154132738
5.55489468182783,3.40525040007195,29.8639643365764,3.43340269338401,4.19334981032838,1.96878244001155,508.11495861745,12.672511990873,865.397222892104,-25.4168397364248,2.80694070158569,3.08032452991545,94.0746121398873,-15.7308020954432,109.396750934312,-25.5333667998213,20.5859325915246,-2.92081515936961,590.344105702794,222.022326804507,248.01336011244,-23.0301393387705,1815.8614895108,-297.604468777496,173.890661816617,3.35791560671295,796.144297137722,-32.0913745527026,571.168378714262,-63.0948075604542
1.67094921618382,2.04957005691347,37.2123156735713,-1.48952438656329,3.00380733176952,1.95115329030814,495.344830718392,22.7972074759001,867.938655999066,-27.2171995801699,3.19551474239666,1.55007482189692,92.1014161413379,-10.2126474473921,104.4185069347,-24.9427890708777,25.3109107081159,-5.82687389156577,590.42008437142,226.704328621174,246.296412926939,-23.8141007113372,1822.86880238021,-305.269994284467,172.614719357335,4.07513902484153,798.749695417502,-33.0501420107481,577.210219826068,-62.6566987725065
7.60978183749981,0.0324442163025146,42.8692587510886,-1.40071924220673,3.54507948376333,2.90107040599345,509.795426037288,14.7440902816736,886.889963246845,-29.4380557272153,0.519606081130104,1.84007417170807,90.1468682684065,-8.1063909062219,103.516823841358,-20.2354246507673,21.6512360361456,-5.88262837629261,609.299800600805,225.853283460619,251.367052265192,-23.7092375463,1857.73044099503,-306.601790345107,175.606097875174,3.94462206299889,810.357046018835,-34.5485859375422,597.788793391376,-65.8027564232781
1.21896690586262,1.78928436575676,28.3002122763507,5.0520199614073,4.79960068217077,2.13991848603723,515.001016384993,7.83688947675435,882.476608839909,-26.2308640248638,4.7301372216371,-1.65361846789373,97.4593112444702,-17.1339126440688,105.193372484615,-23.969300051309,16.1647935266791,-3.29696336828171,586.31835280583,224.937895465367,245.396423099512,-22.3764736919603,1788.48147709848,-289.595873104675,171.813833118243,3.96819729083863,797.264465844394,-32.6668455563114,562.680196584081,-58.3372528195294
-1.43236947848462,4.02334569285999,32.5206989366794,-0.601456804752827,15.3358181706586,-5.20755233627839,496.975339607969,18.5869706100006,865.474523432857,-26.7005417149218,6.4590383593504,-1.27637258160604,93.7731883436311,-13.5780651710813,106.080299220566,-22.5865552767955,24.51074262576,-4.00235022061373,586.677704676012,225.48743571776,244.763407647241,-22.621399847731,1809.19700812603,-294.121497273423,170.986403544326,3.81247950679826,794.267211386744,-31.9890572918473,567.28956224949,-59.1509823096505
3.20731773377082,1.19078341261259,25.604166191661,7.912365822072,4.10594987314858,1.85675754887619,500.617977317321,11.2837108425067,876.989348901044,-27.3888335511701,0.437407222831243,2.8192539178579,94.6499403451621,-12.3803865842725,111.367633683905,-26.7348795792553,25.5650668848991,-8.80992697328151,598.186577542425,229.734941874566,248.102153574042,-23.7863178882133,1847.0599028564,-310.397809682389,176.0472183291,2.59018460657909,803.143937311633,-33.8390616197734,589.586016124505,-64.5344724091852
4.79428006184265,1.55846677933799,44.0777969952561,-5.07933088015733,9.3236596217702,-3.14652584746457,510.973225577234,20.2550810926007,896.236481756636,-28.2909747408249,1.00204786374118,1.13111035356116,94.3238949900311,-10.1902118854675,102.235339057956,-16.7000179343248,20.836171539611,-2.72996618038705,600.263611624449,229.978750936213,249.3034581515,-23.8018126335364,1842.67132437217,-310.362577922911,170.970633379483,4.40029077363173,796.512995815894,-31.6392974442628,570.550607074755,-61.0814752786115
-0.142835022089446,4.46036047120018,25.7419063231393,7.27247105697317,8.80765232964179,-1.1703601217692,497.461492832336,15.4927312186374,860.843481657149,-23.9413493269446,0.0244819727283784,2.15787015921365,103.981215569823,-19.5501806459202,104.391114521351,-23.9903373953569,17.1532383882654,-2.20548677945476,586.60708731678,226.623989715893,244.430884613437,-23.0498613143658,1816.69259383397,-306.584033566728,169.292383846675,5.44403787826077,790.231979729102,-32.3467544294706,570.211239011321,-60.0048287501464
8.08159083854303,0.893416771830982,33.7439152039365,-0.0716254261954927,4.61140261777846,5.45069564295218,502.520185546196,12.2872906944689,868.627911547715,-25.1065858779876,1.49643536947551,0.552992073206164,99.88909746106,-10.7357123570371,95.3339613020023,-16.9314439880017,16.1196706524044,-3.36902501138676,597.164926613617,226.603804172283,243.36061211945,-22.076999712926,1822.47938155887,-292.570787596948,171.250892641422,4.47315027805959,798.099197007775,-31.8870529570406,584.277875722592,-63.0362313622154
7.56172766789958,0.693559764890442,40.292708918284,-1.91256232088561,7.5651420222596,3.6169026256934,511.06556649418,17.5932854498662,889.937507255477,-28.6490673914751,3.84463303608639,-0.0980122842157575,96.3534438097428,-13.3976579827642,102.162827849692,-16.5924511353323,22.264816808857,-4.82331133994902,608.50820808427,229.458773939488,251.276395100755,-24.4215083811681,1869.90803889759,-318.261710917038,172.733341927453,4.45381301124141,804.986191815707,-32.2823454561305,584.320912319961,-62.0839204462793
2.86922016109882,2.09042547651626,29.1385312029925,2.77436212670532,1.36506341809089,3.86545926923269,490.918162353507,23.4646877881574,859.749347658939,-24.6740460326409,2.35791415108922,-0.0726070609050388,97.3203723844901,-14.6794883997352,99.1082177637904,-19.5061397821012,21.070299906361,-5.83416572773533,587.126071267976,228.344878814598,243.452046751786,-22.6339872449425,1814.72327481763,-298.492638917487,168.164795827174,4.73742443139779,790.760681176828,-30.3153542983126,575.410192409283,-62.3292853907777
5.28451218830271,-1.23667123223934,25.4964977874379,11.9273463414695,-0.59348073584752,4.41288658556867,509.223368312179,11.5311173708324,869.422705808684,-24.9303965196891,5.40950623806964,-0.641588149923207,100.186265936081,-18.5934222521149,115.041893769448,-29.2355794365729,22.2537198037229,-5.54319292153714,594.68632039833,227.91233160734,242.821827924561,-21.6462818208642,1807.44307015634,-290.040255945924,171.217551696573,3.72346154878907,795.442062566057,-30.9608977998483,581.312611382121,-61.2291309859429
-0.197858989807421,3.68412948023058,33.2109847703912,1.59720376479282,6.73861787311119,1.34667881239108,506.75528221526,16.3771846683325,886.637963611377,-27.3646057727666,4.67177751276239,0.976009224567703,103.787835657151,-18.5151547706262,111.551942363626,-25.8933757287939,24.0509258254154,-2.97025874750602,612.109160402713,227.120120117637,249.696101966124,-22.8688977303064,1862.20763780433,-302.451817241233,174.780321343502,2.92151384224353,802.446841133141,-31.4370786788809,604.256833188128,-69.7130587808028
1.90995438849864,5.11747017770122,23.7384371575722,5.14252824708942,5.20571657875103,0.591457813920296,489.581785447752,18.3083120922281,853.81739282426,-21.7391526265011,3.30039777287328,-0.112391344702829,96.4571797207904,-13.2820896038555,98.7375883830026,-18.3170713599006,19.4056260698139,-6.5385453424132,577.250657367246,229.523799795984,242.445191264519,-23.025636990352,1798.06835235221,-294.123321310077,167.856397093102,4.71394258390811,788.623247129913,-31.5323591995307,572.344648028889,-62.117970818437
3.82882597138458,0.0461914813564772,38.8482608255384,0.246904851506498,8.02615135280444,-1.45934841816905,490.226850772951,22.8762745807023,859.841458468089,-23.8791902533576,-1.48155918557209,6.55107883392752,97.0286457472694,-14.9579990586815,108.846708915837,-27.5143688677278,21.2798929986744,-6.50619742729489,586.643017229943,226.642204721165,241.395021285894,-22.2501182060114,1819.38091792625,-300.095051568263,168.664061731895,3.69863424799157,788.956610668326,-30.7992160646269,577.923017473198,-61.317357025529
0.582489400410494,1.97870945921494,32.1133528411195,2.62804528603362,9.57262865606752,-0.40453838295885,498.44112187056,15.3748496871905,878.402623124863,-25.9808524163644,2.34538098455924,0.616883994807766,108.560142062497,-22.0734829351587,102.680483962887,-20.8606919798209,23.6195014531382,-6.49491427027462,605.17903870096,228.117540530502,245.843880901078,-22.1414221086593,1858.13552868018,-317.804488823772,173.969955414381,2.82643255426723,801.812221426688,-33.5562635776663,598.105514161717,-66.9804456543923
0.352632957753491,4.83701726865231,38.8570838655626,-3.01249333791164,4.69123659634882,1.58518901155418,484.119501512638,22.4962297654649,851.671736461047,-23.8108728043878,9.79701498675569,-1.73995269635281,87.6479359515307,-7.20426798501441,105.247215897324,-22.0871556409753,17.584181172233,1.16372253226268,574.114497897839,226.626205651284,239.331936490093,-21.3246600319573,1761.90650159775,-281.28640449719,166.093255557115,3.30870735862499,777.466515128574,-28.2761069867111,563.053185036436,-59.8001251398117
3.52104989262088,-0.519882251477514,25.5008515965299,2.46542158365213,0.649027459499353,4.43636983487216,487.807290781242,17.2849873759064,849.976696931697,-23.7392157741868,9.29154450580343,-2.13193576732003,93.5567311012071,-14.2650643101858,104.778903569204,-24.7839631900766,16.0424734741705,-0.527687124669338,577.068743850018,225.511716938188,234.298224632736,-18.8712949900653,1787.9883215432,-297.183475383503,162.750489389346,6.39786655519693,779.79276888982,-30.0556221280974,571.86173730038,-62.4315308549237
3.0060580181231,5.99927551418175,28.3649868617791,0.645543985542018,6.9345266294514,2.28769546681009,493.793121689847,14.8138253072539,865.995537581142,-25.4433750651189,4.85921620441243,1.38635091757086,97.0657191125417,-13.5356112082066,105.635903949101,-23.8809680186765,25.6294815822995,-3.46154570164224,592.744451264084,229.980458354377,242.610105318952,-22.602750947063,1831.86907887081,-302.71815690231,166.911601570036,5.23757575078965,791.40702351904,-31.8710183641668,593.835271726388,-66.5518438222773
7.94637746753072,-1.57010835424818,38.2956231074845,-1.48787049470916,8.90866994536545,-1.56366596670006,498.06706411601,18.0384416835271,864.434851471514,-25.9345898912232,5.62879686741906,-0.246620354342962,91.2304596056677,-11.1044983206142,108.869723762046,-24.5908542502836,21.0628841228739,-5.30888028011313,577.302001061959,224.842473639203,235.645779870597,-19.9345414643208,1771.93068560346,-284.513764297082,163.207853179363,5.69567440534836,774.698837976399,-27.8183914751471,563.179940340101,-59.4767728200261
6.30275795205501,-0.0907891918583374,38.6280263881024,-1.2155721148912,7.67875132512314,-1.61591617940434,482.995011192132,18.421251147059,843.095487105298,-21.0135866138453,-1.77326817965503,6.47365922529222,94.1989812751155,-12.735984092218,106.659692100832,-21.1020890610978,24.2342755940094,-5.3927997893903,574.120990869377,226.014112599365,235.180186952071,-20.4701072243942,1774.64528847713,-289.316051682862,161.728579925707,5.84699737677675,777.362449337444,-28.8543145914196,570.688824099246,-61.8123803047582
5.66538195686726,-0.543954695181972,34.9026309521176,-1.33443223611779,4.77892276870087,2.40238918196861,490.423670186378,15.1161280232424,854.103757050527,-22.8398751102363,6.00234893036431,-0.0938375182563132,92.4598312546227,-11.0359807367143,109.522405093936,-18.1289188952563,30.2822477077666,-6.59653666015591,587.76898503369,228.589835243801,239.552586485481,-21.6098048076907,1800.67357904148,-287.679113131103,165.997414723874,5.52497969171581,786.564487120671,-31.1203450901684,586.041419762325,-63.3681224890731
-0.992245290145029,4.39495807978692,31.8418726814466,4.31914525495,10.8539565499747,-0.381849186417278,484.815280270674,26.7758786138015,877.827858176718,-27.3962805337459,6.98057811869487,-0.172689623661476,91.0700138425583,-12.6705268822355,109.242478352207,-25.3670647614613,22.6050991086656,-3.84804038573151,595.748597758172,225.978485582512,239.55655245169,-20.7499955311804,1797.08395312698,-289.060712491942,165.378775671936,4.77359139441142,780.194929039826,-28.1834669502596,571.671521924309,-60.9115649426925
1.73807998671099,2.96189724965674,33.0137515222814,0.885747569986809,10.5122160472409,-3.02006002817472,482.46723188045,14.3103652120509,843.741200300609,-20.6931457784011,4.03716344984465,-1.18730848467568,91.6376546688507,-6.18010147465326,102.445812440475,-22.3542253439726,20.0921693593304,-2.65563734388684,573.995298831354,228.852214318457,235.879862389612,-20.8774341378645,1788.2519963468,-290.945143054178,161.733575678543,6.21303191041552,772.861081841618,-26.9087381154265,568.728514707041,-60.4531679783826
-0.790472689835799,5.55600666388852,34.683032600821,-0.436983325613898,8.08298538010936,-1.09518775412174,491.549036340563,13.4722850090052,853.3766912856,-22.4511675412134,-0.889969906570498,2.37196171899541,88.3887078508059,-10.1038040383959,110.707049067252,-25.803929048213,18.8618310321007,-4.10577392173175,589.015660048771,225.194522978422,237.43981678171,-20.1157025398296,1802.60451342367,-290.777433533157,165.126423792006,4.73153644644012,779.420479748408,-27.2064809704244,582.982328447509,-65.1624847872692
4.364954474387,1.40438723138063,31.6382391055877,-0.362019786939615,5.70910106521066,3.90013086698409,495.511803260399,17.7322669017508,875.630628269006,-25.8884923274345,-1.84325443854434,5.53725661216174,91.887978629626,-12.7316514709113,100.434571457014,-19.586044061935,21.9271712438491,-2.06909448588666,595.886227435779,230.702083563021,242.660208666782,-22.1856015166729,1854.58840574145,-312.990186006123,168.433000197344,4.3324612508473,791.780180688913,-29.9476574531583,590.569207810521,-62.4640319149309
2.35872363139625,4.54365828286344,28.8589525047569,5.61226914909877,9.03919623412769,0.74290796855672,493.848479058464,13.9374242852602,839.86101326558,-20.9452263567228,2.84294433135624,-0.297531075738289,88.9838384803577,-10.5661397212842,104.122061399398,-23.6218660853347,20.7548417279271,-4.1850660388313,574.042190876283,226.886674173549,236.632223614272,-21.4938887425881,1787.55022983168,-292.006848710107,161.705206591207,5.91657235867172,774.827349725213,-28.5615935714671,567.072948613825,-60.2445529374019
5.68036198430184,0.0415116915201762,26.6185210989686,7.28941092742592,8.78288723353182,-1.59168419998516,481.401749104612,20.7657777994023,848.319534290277,-21.3580013780745,6.05208608198801,0.844949453676769,84.7333701193618,-5.48560491024535,102.79574275978,-22.3172745463485,24.5201068443163,-7.26906845075199,579.068962999337,227.621428397205,237.655686803648,-20.9745179663062,1811.23054616468,-302.811181952486,162.022771216235,6.44978968285106,778.889689298128,-29.1769626462885,578.897695024172,-63.280910515638
4.22309894719878,-0.15336322353372,26.9092018189558,3.54132748423391,8.88630203199846,-2.00078612019273,495.581166110228,18.0472684687371,869.674640173988,-25.8500192500902,-0.239729121240229,3.77259270511239,100.046381893904,-18.9309140928087,98.8010001267473,-20.296463077811,23.9655723612149,-3.40067249972626,595.213977761135,230.41155362907,241.422612206691,-21.1096002911801,1827.37211568079,-302.896991135504,166.298344404391,5.56783419466489,790.12381666014,-29.3959792055094,597.107379878579,-65.8412564418628
0.559917412764334,1.86570355940196,19.7242760826003,12.3504983564884,7.62881297981259,-0.44317208644353,486.251313576471,17.2232179654001,845.448479237026,-21.9837120578043,1.49037924778073,1.51442510862682,85.5896033280847,-9.05942499074914,106.76487950273,-24.4637862927964,23.3381071627369,-4.32737197839307,569.133280700249,226.793063377638,234.900096368378,-20.915683094551,1764.50255530498,-287.336417056602,163.261181322833,4.79909199264736,770.043004552437,-26.828598464302,564.655722771047,-61.1933245591551
4.40489679223302,2.42057783973971,29.0386002691452,5.98879749642696,-0.103113579627552,5.09629045189228,489.529941452953,17.6418852178173,839.003128343824,-20.4526184933463,3.96571553966912,-0.911673870383911,102.225484081349,-17.7659472058608,106.452699528275,-19.3463088640353,12.8939685720399,-1.76735272486693,571.98864360444,226.789561834351,235.829851376454,-20.7208663414934,1768.87482749133,-284.590677751639,161.372366411249,5.55987038050738,774.127346365427,-28.3463840061132,567.348919226123,-59.7575318485768
2.93675629737386,-0.0925814759034348,28.6134202721911,-1.26640285607351,8.08879199970525,4.02521525201691,484.406349277039,17.8801842111212,855.267775597835,-23.5383386543416,3.3518717434463,1.32165508733424,91.0385683424127,-12.6068378943533,100.998466875335,-19.579359718868,22.370375199557,-5.69273660448,590.080160978578,227.494498134731,240.883711119695,-22.0514431778056,1824.01604983941,-303.025677194504,163.147086165424,6.83171851098796,786.940969159849,-30.9700046032087,586.988204531738,-63.1713408850428
3.54610598731322,-0.535590400820542,27.9669966020507,7.98268488516938,5.98920298662265,1.99131051454578,502.029313287561,22.4074207256699,876.403523885896,-24.4486979186463,3.47764602459132,0.913678510639761,82.398418990035,-4.9947066463397,101.009684438167,-24.2598327118937,21.5485654776875,-2.85184364698319,584.346877313287,228.92322050114,239.789646298828,-20.7438365377251,1770.12866586374,-285.218255038252,161.66012027506,6.67021160187155,777.395705850907,-27.3813159759488,566.181236952388,-60.3876751590909
2.52932887671836,1.09082998168689,25.382721914526,2.99762528420616,1.64849233446229,0.00186344059967601,476.436511681331,28.6435549107766,841.566217778908,-21.8211283301278,-3.00664750082607,6.13118495313525,88.1474675128067,-10.4153173290429,104.023339702699,-21.5607113412438,18.3632653095863,-1.3154352718817,573.458135670136,226.817697969823,234.07593893782,-19.1715566517591,1767.32229268597,-286.633890977667,162.620366145544,5.4539745520879,773.210613892146,-28.1336420783703,568.035546258831,-60.5838093507598
8.50111104371325,-1.90446915178716,31.215567192224,6.7505719040177,-1.37020709880813,6.11296555933954,476.398320012861,22.9770771188957,847.929469593751,-22.4563715947226,4.22764913481804,1.12041109932872,88.9032618889437,-9.82753603585284,107.673256662316,-25.8255177176405,23.7368600637746,-3.76253272928919,582.470595743938,228.250580088948,237.73748217743,-20.3643527222258,1807.57870769549,-292.150938867874,165.911104462678,4.19167336375336,782.458154607096,-28.5274835399184,580.861517028215,-61.2908412174157
0.977600586840833,3.06560112955782,30.3186509050151,5.84099009406911,8.57059378764379,-1.39837155654675,492.221926320495,18.6382070332696,868.135332199476,-25.0332053424826,1.55952491328938,1.06973043263852,90.105395921011,-10.2798488850964,108.432457460388,-22.240680672763,15.2191636416836,0.0875544163793145,593.038780658797,233.106715654598,241.380724384432,-20.7007318028355,1837.02645047263,-296.922036046048,168.969185756363,5.16014494717134,795.008429635678,-31.6475067014433,601.906272026704,-68.3112298618301
4.35521576624643,0.536213587206181,29.4722449480487,3.48591209027897,-1.52292642350689,3.7010928402609,476.893293661744,24.9557083013189,834.768092916255,-17.8933371788146,3.19044901475968,-0.646472963908429,89.2236849685477,-14.1402430990528,95.5692967761344,-20.2116710340033,22.4860371439148,-6.54844731598074,570.445726586373,227.304497830276,236.923277722305,-20.1519681344111,1787.38781034463,-292.8289283771,161.375490520496,6.52563918499136,777.097021771151,-26.9906974342551,570.530147829842,-61.757609081922
1.06892807576842,1.57544554906803,37.0236850671451,-0.743950829108261,4.33770009538465,0.907033960890269,476.053622455915,25.650831201083,846.838504102306,-21.9993329435602,-0.349105068794722,3.2708162399275,96.1354633878093,-15.1730653088087,107.55785406275,-22.8803484462278,26.8916910512375,-7.39997342646958,578.007752816747,226.981588027812,237.565501235093,-20.3703646815847,1793.08045957058,-285.530477412958,163.158792915157,5.97643327270853,779.613123173301,-26.3269037360416,577.587387935163,-62.3308673705244
6.42262831109138,-0.968938123854398,20.0699139872511,7.73059715284745,11.8447703016772,-3.72862702768427,474.704197762483,26.3999203917104,863.904686952455,-23.1236560798961,2.42064085416156,2.70028527492653,104.221084656355,-22.3922951521594,101.977745067694,-20.1128030152215,21.2614201275379,-4.76677603757985,594.136082487568,228.848536089292,241.216439859679,-20.5771959924936,1842.77670658257,-301.675427507948,167.018158056442,5.98701356317825,796.819524935308,-32.7594214238087,595.829122077281,-65.0592558685658
-0.144409109318806,3.00202252142879,29.291122136949,5.61325636449218,0.908558632838446,3.21471988727226,486.707807144188,19.4974992897304,838.996798997588,-19.7315803289862,-0.353869031365886,5.07469100445572,85.269826766104,-8.67534152019957,109.170167202528,-28.195923464211,27.7681658974918,-7.4493434655181,572.272614871335,224.183949556167,235.409969340213,-19.9988567808751,1764.98631163761,-283.105897716187,163.108601223579,4.79210216522178,775.553646808198,-26.5174407481157,563.553669547333,-58.7241050067929
0.931331386210603,1.94893587984142,31.0415366055155,2.24522719688804,3.15015368055286,1.48483787440783,468.499698082181,24.8011047501492,841.166934649371,-20.3034241742216,2.22781891662036,2.01537414657301,89.055972333393,-11.3866694856047,100.938541269395,-18.8327192799429,15.9849185077722,-2.37387399528044,571.95972345265,227.422844921817,235.926399005337,-20.0153702624377,1776.96280540863,-291.607534046359,162.591408337338,5.84631312027522,781.096801960276,-28.3992840727326,571.160010331527,-60.1081652663172
2.51336038956313,-0.0285489614724257,36.0052062094367,3.23345929972813,0.724773299121803,1.9079012091728,475.345190690626,31.6367455165893,855.49614143574,-21.9225547495213,1.03752201704893,3.93159834992841,106.53530667124,-18.1901094684731,100.801422050378,-20.7065845390268,28.2780137336557,-9.17873096367948,590.445171361253,227.496210460836,239.688196379652,-20.0721450586463,1833.22761678878,-306.952691580897,167.459229797332,5.00470159633578,793.271963905573,-31.7808533379297,592.01074184428,-65.1978946340079
1.65254773686282,1.61870918747816,33.1470475094508,1.4056803612779,8.31135032699522,-1.51764535171987,487.934241728063,21.4119433856176,860.264742738218,-21.8571684320208,4.24673300217384,-0.288318197258699,95.7053854365933,-15.8945291007245,110.895117420693,-21.9114339003949,25.1093873190986,-3.84773934760435,566.743412807863,228.092004513141,236.045976712598,-19.8782500084571,1779.29078389484,-291.894289538051,162.862122958535,5.25402827256384,779.14585609926,-27.3836244199418,562.551502611638,-60.2222891710252
0.983693314705565,5.25214710080825,31.1038518003336,2.92962901538843,6.37485409494464,1.91692721416916,480.236269890347,16.6406086829426,835.52540364441,-20.4548477892434,4.18083149713351,0.233984663805357,93.5255934107653,-13.0410663440897,96.502769661688,-20.6567738451592,22.0633818155807,-3.97668821691188,571.313540894575,222.808746923753,233.628539123396,-19.3101714479683,1764.54652224493,-283.844215872449,160.98412497099,6.36663779167334,776.349773846847,-27.3076765033496,567.049687864394,-60.0047899145425
0.69182790952956,3.29213436622864,29.0748565112963,3.09516873167155,19.5646210816595,-5.5921829734947,494.245233423575,17.6517198085952,847.682903119935,-21.5196714107227,4.87499551552566,-1.18459529303247,85.6944144163282,-7.88491924767824,102.152908628137,-18.9299600435983,23.4698160727462,-7.25880942201942,580.554348461489,228.208671180195,237.411828672503,-20.2117521066925,1828.22025924782,-312.121341097586,164.101337962653,6.05413234505871,786.488156860875,-28.8727067789745,585.602696727621,-65.7070060996605
4.12397179343648,0.33487724909275,33.1925334531374,1.46114917838828,3.82916140428932,3.2266986626704,490.0172879781,22.9043910204681,868.422600124931,-26.9962288042783,0.988321068208684,1.36055293357862,97.8711846443285,-18.0560825958827,106.605053585311,-25.0105513771804,18.7823381687523,-5.90713561655357,597.838246442997,229.841461918795,244.816863660146,-21.6064022469158,1841.35890244792,-296.274186011935,168.066366225785,5.59143545027947,801.380951038826,-33.4719979993199,591.715769564955,-61.9947274001563
6.03006086724513,2.67057483697613,28.8656828039646,4.77554261090341,-0.144934058868745,3.38888189977337,493.739030945291,12.6600429707419,833.564961557843,-19.1671706511471,2.95628609276672,1.2668584511938,86.1123042539138,-6.78633008232596,114.550991366512,-33.8830334380944,21.219326385276,-3.79519600750236,564.021975383653,228.175329627897,237.20306268056,-21.1112466620952,1777.46625974246,-294.255796614084,164.478333335661,5.19370913270167,778.998429756608,-26.6260883445624,566.018110616219,-58.3529095074606
-0.482215796715052,6.20401309028138,23.4988030250101,8.67673737410527,5.42365421693539,1.39365709488608,477.227402693631,23.1027459099862,835.625545235725,-19.3446957874056,6.08190391703529,-0.874075747701317,96.1035806064747,-8.53143987018661,109.41339285722,-28.5482152011859,20.4135650957636,-0.521755946625656,573.527968734933,229.161522852912,235.948220445178,-19.8361653796899,1785.98699941057,-285.074449954477,165.252100998709,4.82816501713607,787.1029874626,-29.1843128586617,574.83300018366,-62.7371560922013
7.01364348591955,0.0750400255204712,32.9213080940914,5.16010029154832,9.03825028251694,1.48978733398919,493.748419385942,16.6790330092542,858.617979680358,-22.8808220625408,0.904307501621217,1.03468985120385,96.0095572544909,-16.2107122972948,109.402127900038,-22.3012367582654,16.9717974793446,-2.1822022927799,589.167699223214,229.312152199472,240.806567977784,-20.3331769275072,1826.09226321983,-298.502063561965,166.178593269956,5.88061727087777,797.420513288766,-30.9626167086412,594.244044697681,-66.1323619606243
4.24314747414504,0.932889170884117,36.6720940700299,-0.141348208969285,-0.751506907322203,3.63764498796623,477.792611191797,22.4742594927862,829.986806434782,-17.0601522884583,7.8465706505932,-1.07694401599946,92.0803945408743,-14.0015896740186,104.436426509186,-23.0078553917768,17.3293501996728,1.1768942331588,564.265786833831,227.568973141093,237.443206387959,-20.0844383876649,1785.8566895439,-295.992122499559,163.922393896475,4.95443511371842,784.208505876303,-27.8428005261259,564.807724808392,-59.5450672854716
6.71519747725349,-1.53290865929017,30.8017594658442,3.0144769508033,-0.966201809878748,4.05393689277146,483.06380572532,24.6533927860327,836.377866174718,-19.6018160032106,3.23698752082735,1.1608891819352,99.1024897657595,-15.5899248277798,101.342959833972,-21.1260561732981,21.1665317424795,-3.97298788533039,571.452162068984,226.617135776196,236.210704517754,-19.1490074662009,1787.92823484316,-284.975862411684,164.141511002046,5.37399188496685,787.529240296988,-29.6264686276126,575.263617853182,-63.8841741055858
5.31440580923703,-1.24987870457672,30.2222426439539,3.33205674153125,1.36343086918016,3.266640151112,490.558973993806,18.6354226295374,857.382820412795,-24.0010650638713,4.87030956630097,0.276663018689239,102.456995135112,-21.1412481595377,101.038148320489,-19.4049167695984,19.1258175362324,-4.4342631769161,583.435360941891,231.512794718578,241.077462998857,-20.0301275541405,1820.55724998849,-299.479540775623,169.06202526296,3.83022862272402,796.923656566515,-29.3334802825279,594.977845251628,-66.1269674667991
3.11476179717854,-0.344385487044981,29.1510607582366,-2.81214787936189,-2.81614062554933,6.97867682414441,495.005269074404,13.7149407719343,853.094926776246,-21.5583653454149,4.91054216172219,-1.18178610272513,88.1505167620577,-5.82015280429031,96.0068503886619,-16.5701494511334,18.3136391443915,-2.04576638289223,571.56766903319,223.729687708994,238.520312812132,-20.1277547694603,1780.64964507688,-292.766132092455,165.088629768859,4.85311606402092,787.81463296024,-29.9041967762234,566.248473047112,-60.6268871732644
4.70254485038959,0.94231038935559,37.5044247172685,0.491089017523495,5.90366974420852,3.12636089570469,488.937245121918,13.8393129385226,833.129829485265,-17.7551131986236,1.68085821070958,1.28203201287443,82.6828397261724,-4.53526337671898,95.844912616922,-19.4564007987058,17.2147645136568,-3.28156060711791,567.871618561842,225.718244461516,238.213826649184,-20.1335959500861,1784.69822382784,-284.056574424823,163.319561311277,5.83404536240383,783.814367724817,-28.2250140270641,573.768011116602,-63.9197504885317
0.493609388766406,3.44510917468418,28.5054933722395,0.173897935900565,7.3679544557302,-0.793831134179429,487.270510869887,17.9543464024637,848.741178751857,-23.9080085926371,5.4363746606183,2.33225803986661,108.474886665427,-25.3339056209733,107.187239569383,-23.5094447873022,17.220602288635,-0.966625515503173,585.52053873235,226.049435869199,241.513542251799,-20.7716307765398,1832.70459303743,-300.547672337927,166.889789838099,4.89381459962133,796.839104259437,-32.0550814114161,587.149880604822,-64.5681648084529
6.29609652468994,1.14164663909097,37.6762371244786,2.31059209705426,7.52221023173289,-0.718836884531648,500.676628279121,11.6860843107573,869.726057815012,-26.0751137871299,4.41542406125468,-0.438738482702519,101.147147442096,-16.3907107631865,101.097198726019,-20.488018654257,13.7706671400808,-1.62789082590705,587.314449143447,229.659739947599,244.936000137263,-21.3502916823227,1811.45116641255,-298.174791519566,165.831483832773,5.88623972686937,794.78510460904,-29.4320959504369,578.99952980866,-65.0912669146297
2.1795114478616,0.563224751292081,26.0212746454407,5.49484616640289,3.18862336138084,3.26326678655322,482.532971883511,16.0668581839392,830.955276910107,-19.6230731139529,1.29924527035872,0.540690133035389,89.3761241892672,-11.3233581365211,104.16426292505,-22.6224639549335,24.6733730176414,-6.41015450542945,567.875387696982,224.472900223748,238.879196484046,-21.0465996055687,1779.02886860396,-279.842003936637,165.097739983209,5.15440901921402,787.836376214416,-31.6118814633986,567.594982864255,-61.1351677854385
-0.163665156198967,2.837049222224,36.1134801762566,0.0742559601101657,7.87136554658317,1.37704770472281,485.111862045633,17.0729608887685,836.463176382584,-18.9984061896896,-0.173555082620398,1.9327083926777,90.3133791832849,-13.2772075658129,100.014178580392,-17.4015320364654,23.6379476242454,-5.93693283219958,576.750647085399,226.701860199482,241.332367052797,-20.6774319214559,1797.52423327836,-281.732429244487,167.309599850464,4.29674680581363,791.007244867333,-30.5969814618011,581.868688360948,-63.2281219646027
4.66515154615142,0.599939040708993,32.0305574233371,6.91691741956218,7.57788640592688,0.336337091527764,493.173152810131,17.5901980366741,859.418033607262,-22.3753676634268,2.294087149386,3.34744818914486,98.5969685586611,-17.7086161829648,97.7546542489851,-19.1015119429173,25.7930414849879,-4.78626205595422,590.825488968623,228.329334547256,245.132017277597,-20.8000789061187,1855.18751576859,-310.181477569927,168.306867545677,5.50296909844567,801.627535574684,-33.1170164372241,598.784341470015,-67.429449885234
3.95446849574117,1.40217389995207,31.3530640758328,2.05088822613355,4.18962770160368,2.57296662637952,481.051944499906,17.9447869965855,827.411425306699,-16.8722795764547,-0.926668391348851,2.46264197160986,83.1028335217468,-6.56230247714105,104.218356664567,-22.0931220613299,19.3459130577221,-4.22340841841775,563.750560974907,226.782776060502,237.323796760761,-19.6471427746123,1786.59149545205,-290.984806294324,165.724276898575,4.07418375984237,786.114185072955,-29.5561238894844,567.517936795473,-60.1415079167051
-0.0381962266419641,4.71032936839594,27.0710419928538,4.65241058496005,-1.26928665483798,5.41803795698593,478.129638764056,15.8377031758309,833.50013482197,-19.6830050729499,2.15249423829851,1.7839589971229,91.7085094033791,-10.7828215020119,102.379580217519,-17.6024470565221,14.828437122674,0.637086689178033,568.924474883413,228.363870365212,238.570414538935,-19.9380691410659,1798.13274387706,-295.214334156132,164.809077809418,6.14723004261609,791.474255484006,-31.2001510627315,575.375170402298,-60.90725464755
3.77011881803049,3.1513164511709,28.2463788143725,2.54791556128,1.25651834987802,3.57861835981114,504.510311933665,7.39540803274994,853.354215625796,-21.3591062101408,-3.04515930843347,5.56615349289762,97.5441134313561,-14.9297312267914,100.278552711278,-20.4808140694371,24.8883764364491,-8.55027410541514,586.92877489468,227.167697152993,243.735060414413,-21.42393886941,1829.77466426418,-296.055655771469,171.041064076988,4.12653634578126,804.270787906926,-33.6626895630027,593.402778644434,-65.1334037732965
-0.0783831961323269,3.70704483677683,29.2235248333691,2.13924901226483,6.99782011734528,-1.70004770114497,474.104988731431,22.3966136665154,830.698786344968,-18.9603464700483,5.52467060146734,0.698800146662011,88.6231561764176,-15.8824970105405,103.886064405702,-22.0819183225323,19.2114068107818,-5.11751645751538,560.811675525851,225.963200072729,239.002122376864,-20.5535490741162,1784.94135618319,-292.228122105098,165.198393918235,5.73143656796921,787.028331575612,-27.9443693312226,568.39610810836,-61.3766599064499
7.06303378979191,-0.654619000477566,32.9798991830027,0.0729098078910756,4.00421032205768,2.61741613182821,472.631138459385,22.2917993832425,833.929787036565,-18.7911381125877,4.85178752845441,1.82012013312038,96.9659392364829,-12.0781547555059,102.200036783203,-21.0108937901808,24.2884373817903,-4.42512341991342,571.831152912646,225.246735291451,240.1593583744,-20.9492025305737,1793.38646301246,-295.757118859796,166.626269220806,5.48710448474336,794.687770883922,-32.9719495460576,576.297128072723,-63.8512924566604
2.18624634776848,1.23690373741449,33.5909433461869,3.4334447084698,8.48514656761221,-0.788165576787662,490.389129912675,13.524325562062,852.993458939283,-21.4249661439542,0.616851744387949,1.55680541866038,94.4779728195807,-14.9871762229855,106.954658028235,-23.6133865264915,15.5370271703428,-3.52466813729239,583.876688755643,231.470426372009,246.082187330683,-22.0277763961263,1847.71090575426,-304.538409226381,169.332910676588,5.67016650107037,802.869841442576,-31.9660752491848,594.041012795614,-65.8634110116592
1.98450808389603,0.0820684348843224,35.7226962717001,-1.58360701523971,11.8005706373159,-2.34374439710798,474.602901627723,22.6905943348147,849.120215342984,-21.8309161279282,2.52974594437158,-0.147167876359775,94.3092526768309,-15.2936697805768,104.070008654439,-20.0214389656645,27.6518663509598,-6.63766214578017,569.829116870811,222.215168806839,240.883167303587,-20.3259807043934,1791.73822261491,-295.165022635876,167.702494285162,4.55726496859232,790.215825143014,-30.3317378610732,565.987954107308,-60.5230240919939
3.45455401985113,1.05273652414525,25.3591980575325,6.5103254697503,5.50269055772251,4.90667885574487,485.044388711598,15.7948742216508,834.752660599048,-20.5188661545037,4.84835274328907,0.952352502538166,88.5517219122082,-9.68473267398485,99.2533816053668,-18.536146852551,25.1035675721992,-6.17681382375407,564.082058141866,225.658459740751,241.371599891336,-21.6870490789227,1773.0083528908,-285.138172456537,165.677609317481,6.0412922044548,788.914184455004,-28.8204680621719,566.876770839471,-60.6002155658461
