263.29999022332,-17.6328892749548,2007.81812478807,-31.4021811357467,337.350743927433,-32.2658682904083,1045.18013636703,-90.6367925783408,1368.38841603731,70.0417000081323,366.894627580466,-40.2256480256914,1496.16868933413,-99.762041691627,749.731667475602,-100.936828823319,690.166319321778,-112.702291859136,516.271650853201,118.696744442274,2150.74466966643,-359.517121970381,489.348686585558,-83.8127134616844,810.441876529116,44.8239134818862,1043.67892748702,-87.6171359283065,344.110968421794,-19.433648014261
264.091801159463,-17.5882811402443,2013.87908005574,-31.2566394873202,338.261555331467,-32.0906939966037,1049.85855758453,-91.5121109466998,1381.43942770229,68.919300239367,371.985968777101,-41.5542633368833,1516.79170439201,-104.237049185238,756.911275619801,-101.877093808512,697.819011767301,-114.561313045583,521.264334288089,119.155595214343,2171.91102942027,-364.356882132892,494.383588221385,-84.2903112458365,820.540470627511,43.6681873555688,1053.02871424348,-89.8094717964616,347.337046085085,-19.8447982682109
267.781412663029,-19.3947378034305,2034.94169305063,-38.0841991667616,343.149622700877,-34.4669913843651,1057.17904496738,-93.4495225475006,1399.61593561373,65.8046224080986,377.158482270641,-43.3930818289601,1533.00660202876,-106.451863929496,763.796971151642,-103.486989820035,706.197342002597,-116.718091300169,526.752388659014,118.717461952162,2194.08483661516,-369.80353260613,501.344086851478,-86.4457125562229,831.071040869097,42.0505227929632,1060.10491895668,-90.7037854994287,349.15237436886,-20.0794866198654
266.28122620196,-18.5593888591737,2010.40748161481,-34.8204489378936,337.22196247897,-32.2785846918738,1045.62355565809,-91.4298131322207,1370.18133714382,68.9785390880203,366.610181075611,-40.4188764459504,1492.26935300726,-98.9886805129007,748.171132350601,-100.523581276308,689.773256657103,-113.114507343436,515.302118762957,118.812294552735,2141.04775030819,-354.660778233967,485.746621117898,-82.6365063623339,806.834471074858,45.3516489913836,1039.61566124888,-87.1016656274176,342.504940353274,-18.9481426562114
262.787772806337,-18.7865452822301,1998.23182793601,-32.8560052204349,336.03815810123,-31.7521875366142,1044.12747945018,-91.2638527085885,1367.15013564642,69.4551874177073,364.443936638632,-38.8327200236975,1495.3305673659,-100.072316545145,748.565156839418,-100.592780791352,689.769709559915,-113.123381340217,516.356472317389,118.869956861653,2144.4910193266,-356.581917975203,486.398817629293,-82.6633527413328,809.521885219755,45.0806943758382,1041.11999669938,-87.6213639797362,342.455264512442,-18.5155434982324
265.767480296862,-19.5847826840759,2008.83415844569,-30.2306619774358,339.753278989403,-34.2844997493269,1051.02683625561,-92.7384286284674,1383.52928190442,66.6572847352344,371.522525506419,-41.985392696072,1514.96052412895,-103.582517984922,755.60803440264,-101.596173350503,698.572786662903,-115.636707399405,520.79242125446,118.676662783416,2166.22986975059,-360.918564903209,492.969964243551,-84.0565426536467,819.302991963649,44.3896740775522,1049.81568026364,-88.8645328845642,345.473045088695,-19.2693103590557
268.877495058994,-20.0656131306572,2029.94781364842,-37.2462789549367,341.933655379178,-33.4268919470544,1056.89320173081,-93.5178493720926,1400.50555628036,64.701660539921,379.674348557108,-44.641849342589,1532.65824499904,-106.550319408566,764.330727318332,-104.056278536619,705.840943840456,-116.576750692386,527.136128906339,118.654760005761,2192.15199416534,-368.045959621243,500.304221527796,-85.994356051485,829.999985592066,42.7140308199952,1059.81709368933,-91.8268893759815,349.433386738046,-20.2456840436076
264.833880389837,-18.4901063960168,2003.38065546317,-29.6862547030542,336.276239869951,-31.6124530594145,1046.10430405626,-91.1783086026791,1373.34896526795,68.6797861714787,367.393738648087,-40.5058753956718,1496.69747671764,-100.324455746096,750.186877220699,-101.412661344135,690.172240711806,-113.007701667108,516.592608576638,118.437072642442,2146.96422751936,-357.396020424282,486.169789042102,-82.50622509044,808.455983875936,44.869214139042,1041.23691329294,-87.5752532615247,342.102040056313,-18.6544968320659
263.640130809448,-18.542328055454,2002.48866012193,-33.2365160970547,336.091852003378,-31.0497173394753,1043.14189481528,-90.3796713830913,1370.35152597702,68.4461867179003,366.890735405496,-40.4157309396103,1494.82604381779,-99.9327466984488,749.579677669592,-101.051508319568,689.985901805654,-113.137681292674,515.20830054655,119.280785884372,2141.68484079674,-354.252659756503,487.113347387622,-83.0135574026463,809.946530484911,45.4380201073433,1041.88723905814,-87.506687505253,343.446239072785,-19.0677540317493
262.997606274955,-17.5907383075096,2019.17180797183,-39.4142367918524,337.508365045886,-31.903753717225,1050.1414014782,-92.4405845199941,1386.50404500252,66.9219400038911,373.302370116252,-42.1142323107752,1515.01454740679,-103.657899597065,757.170571438628,-102.381171530157,697.572496023707,-114.968964851741,521.440779437369,118.701219121208,2171.5613561742,-362.944864845754,493.641228677086,-84.2099908294028,820.915044033877,44.0711900053957,1052.28037484077,-89.9233643174666,346.400233942377,-19.6472902099431
267.296452725118,-18.9862583897689,2035.85167001385,-40.5345595942608,340.792198011989,-33.6310978885138,1057.37672236781,-93.5686470020483,1404.76251007103,64.3087967628062,380.133035848716,-44.6567351220827,1535.06285082223,-107.929210086026,764.755847676479,-103.687645809869,705.453370931015,-117.291999109048,526.682369834101,118.616928778042,2194.66690729643,-370.502914897866,501.356369133357,-86.5039645866775,830.622409068765,42.873143173827,1060.46058832258,-91.3148366862846,349.159301365873,-20.4087638821363
266.888879791574,-20.4694424408158,2011.15959914708,-35.5401637403918,335.30279058823,-30.7235941595015,1045.17780397328,-91.5157373216214,1376.14195076607,67.2982157581965,367.182392979359,-39.7085414932087,1496.90803218275,-101.185859116269,750.142086341686,-100.97542623517,689.622535252286,-113.093993775886,515.174149532986,118.736731346773,2148.263868569,-354.975166356295,486.060221361155,-82.6571059619115,809.278772423623,44.7546764044364,1041.54230574807,-87.7659543822859,344.003216233496,-20.1489742521291
264.751816120104,-19.2057530194804,2006.30041522951,-35.8211739899866,336.323113339294,-31.9938417677461,1044.40471755198,-91.2262837092553,1375.81164238423,67.9946313275609,365.995870589046,-40.0662786977403,1498.04850444654,-100.975452683519,751.975971965477,-101.197558829777,689.893541161635,-113.361713097205,515.970951485406,119.174689831719,2148.77027462753,-358.146205507785,488.226097857369,-83.4179064621709,811.733016811605,44.790877842836,1044.95806022353,-88.2347137804474,344.654118170309,-19.766905012152
264.600091695474,-18.0544972995494,2020.12686195787,-35.5998808113429,339.746878276028,-33.0841963148741,1050.6779740298,-92.5688504555271,1392.98989386958,64.7254959557025,374.652608474433,-42.192025865209,1518.84124798367,-104.134295985777,760.235042188895,-103.428690842095,697.857658755566,-114.960667274556,522.878849037523,118.224657225816,2173.87707808238,-366.484582176539,494.934699068027,-84.7805863577934,821.984723373141,43.8490399791145,1053.8129418022,-90.0649262184399,347.532354567851,-20.5263553493824
267.564648518801,-19.5197999803667,2041.55799637111,-38.3540089179216,343.977587647885,-35.2126348012349,1058.98381782495,-93.8380007086679,1411.03173165732,62.3582749175565,379.76979323839,-43.8862891839899,1538.62095345596,-108.172806197563,768.730772512473,-104.988177663604,706.403455410593,-117.08444529348,528.341042414496,118.331465475251,2203.1230811626,-374.959004197836,502.120930332996,-86.5388651251294,834.327741359127,41.8389656144117,1064.18475986638,-92.1859438917795,350.469125865393,-20.7781756850264
266.386632899003,-19.5380915205447,2018.39932109189,-36.2987266372524,338.841970250908,-32.6775980176442,1046.93784797118,-91.7354990364755,1382.58179040137,65.9382555547503,369.884489862395,-41.022249644358,1498.42326516306,-100.134797088872,752.882789572257,-101.884463354684,690.51104499138,-113.609354800365,515.948474789482,117.575776156319,2151.85038931847,-358.704137802365,486.897929095679,-82.6882639485102,810.795910943469,44.0886388886556,1044.20468823815,-88.5269768798207,343.699065903921,-19.7240485525895
265.159168101214,-19.3141559513425,2007.68584106953,-33.9979190467679,339.012635648446,-33.4267115629225,1045.45635312383,-91.440218404727,1377.89640548639,67.2830068668268,371.503335215243,-42.7258793539589,1499.77711320757,-100.443554297948,753.50041593509,-101.853488793297,689.614142591524,-113.075237903253,514.734897838289,119.561449220802,2154.1007350043,-361.543267572788,488.888003399125,-83.759178532008,810.818762457613,44.9843032515091,1045.606753607,-88.0959428193903,344.57625851847,-19.6019028112306
267.313987635443,-20.5934980017793,2034.33453988506,-40.4066119716961,339.411096568207,-32.511091906544,1051.85729640236,-92.4376701755662,1395.87077685668,65.5351011885393,374.235466770576,-41.9401786081,1520.67532044732,-104.459100526155,763.240801563295,-104.659954742275,698.501058137301,-115.084700541888,521.047297935886,119.495044778194,2178.11712603829,-367.050899067636,495.485584525997,-84.7765964141424,822.336498480747,43.378086343554,1055.97340385859,-90.2453406462624,347.988074795016,-20.402447156941
269.99808147903,-20.5694405145481,2054.29296038686,-45.7622079009635,343.501941146659,-34.7359423122542,1060.8099470174,-94.4887256273062,1415.06195669745,61.946872756386,381.266291017687,-43.3494114166118,1542.40843188916,-108.428180277003,771.344432936027,-106.109170216601,707.411900278947,-116.960104146245,528.159855676087,118.195805894266,2207.40258131183,-374.773581188355,502.601932861782,-86.8059161058891,833.585316027461,41.2927008406849,1066.7800010909,-92.8902440375028,351.856983168718,-21.4383690720526
268.592846442229,-20.410788591426,2040.28649435276,-39.3519601396152,340.919657616411,-33.483159105894,1050.89614997846,-92.3954761778482,1392.77007093568,64.7321388539338,371.274578168314,-40.9184594806335,1507.34488819111,-102.764858002808,757.863758597079,-103.178646513989,693.299285674879,-113.971150246865,517.752246781094,118.276941794644,2161.00857477936,-362.813587142282,489.453375192365,-83.595182891606,812.054490589232,44.0412875168195,1050.43046502961,-90.2484210291208,345.884219749679,-20.5948124674748
266.853173346374,-19.3524356849601,2031.51460562531,-39.8349536013688,338.722565201351,-32.1809619780304,1050.05626706668,-92.6269670577795,1388.84029630542,65.7203754184126,371.087235552299,-42.1171109878661,1507.41915814915,-102.969720098134,756.714746374053,-102.230281517395,693.87348596539,-114.499784529846,517.447899493396,118.692861170238,2156.77399509912,-358.620454853255,489.799985747826,-83.7508136309812,813.869121579915,43.3991316260171,1049.91464645241,-89.0590997069587,346.964818353677,-20.6557971584889
268.806748710622,-20.6777108776699,2036.80473883439,-40.8177793921756,341.628474162411,-33.5672221904388,1055.47816134889,-93.4649868815296,1403.80713973566,63.0356623994121,378.033832559894,-43.0951825801715,1527.53184110523,-106.428297632483,765.730797043005,-104.71812556842,701.34224756604,-115.574059825744,524.024192214688,117.872876460039,2181.06842338565,-366.211025011824,497.838245379235,-85.9491682739757,823.740217747966,42.7369688239791,1061.27959282761,-91.6951177459952,350.113690027737,-21.3544713747426
270.249328157591,-20.2501556154372,2066.82572002971,-47.1303175934346,344.079650634976,-32.9706365723242,1063.67228054221,-95.4977844134035,1422.76694136427,59.8552830517614,383.33656720223,-44.384604352129,1548.47741218483,-110.426589993877,775.038853905502,-107.138738734094,709.829618997914,-117.91087363295,529.464306940664,117.735499645008,2214.65545008294,-380.171278440036,504.868635463426,-87.514734292103,833.961246015151,41.2745355086758,1069.98699547239,-93.3295842911932,352.850204167714,-21.4153473260659
270.280249949948,-20.2875744453898,2041.94717125926,-39.4467010973842,340.290470820605,-32.3765382610347,1052.42653783679,-92.9410434581415,1398.31830272809,62.8533814682619,374.211773641748,-41.6413247178072,1513.00575718189,-104.014174946204,761.132619467794,-104.275826282265,694.606399222384,-114.252785739789,518.642786650551,117.753084797844,2163.49691373043,-362.905929349428,491.051110811096,-84.6165710571161,811.793954216143,44.1172438698249,1053.10461545054,-90.4745939285555,348.157436159976,-21.5288290726414
269.865979122438,-20.7450392549346,2039.85509124268,-42.3836062352467,338.695228897133,-31.4407894577868,1052.23626480779,-93.3266248043535,1396.44998898293,63.9032724063879,373.79483593826,-41.2477182217693,1514.03185109524,-104.092500232332,762.89456132856,-104.851389528838,694.921889266388,-114.150736807959,519.724880209625,117.91761670546,2166.85739712781,-364.41181512156,491.863498448406,-84.1423365453393,813.188309836113,44.1366073927317,1056.11650207901,-91.2904617677281,348.561085143416,-21.0631990913291
270.369863576606,-20.561153042072,2056.43478775086,-45.1414739627068,342.398002056374,-33.061829135734,1060.00011255485,-95.2518834720265,1412.45730514873,62.3867450656836,380.873435363762,-45.3420832688538,1534.9507545335,-107.36781224802,770.252020299986,-106.040491488636,703.561958063466,-116.71475572075,524.717477853703,118.332093691707,2193.26285080971,-371.724386955098,499.416154025364,-86.2845755744632,825.885762443171,41.4246538964197,1066.20522299185,-93.8718122267826,352.141539378137,-21.7595477402439
273.332314329079,-21.6937711834211,2074.77666937353,-46.919222394324,345.212877550109,-33.541510200007,1066.70980183824,-96.6265422312154,1433.51234476722,57.6528128699353,387.65866672446,-46.1832338266191,1556.00244765057,-112.338360917785,777.6222084092,-107.335165987373,711.520133771976,-118.59104768691,531.878365916415,116.98199354186,2216.43508297688,-376.364906784398,505.729242449009,-87.8259490776995,830.331950809559,41.1089787691208,1070.87632953891,-94.2264191514099,353.096043473123,-22.3297037494296
269.664455243747,-19.9899329227588,2045.99549432191,-40.8981428432345,341.853273857718,-32.7876520535083,1053.0419509345,-93.6215456645397,1399.76435707393,62.365329264847,375.239748764832,-43.6432370294369,1510.53305208407,-103.86646037131,760.626673980097,-104.101735068772,692.439502229674,-113.991948603325,517.710820132083,117.543141074871,2158.83668335949,-361.899592376531,489.205529886741,-83.7760448637512,811.096082567327,42.9295462751459,1054.63977058345,-91.2662558729275,348.817698870839,-21.714286214577
268.46086699159,-20.9247281375301,2039.66260471427,-41.7656503010735,341.010892039817,-33.8032811142806,1051.70661307573,-93.3868928015951,1396.60659715058,63.4544488305781,373.491919213457,-41.8362242417607,1512.81886586723,-104.11021817224,761.917975736282,-104.728935853942,692.491456745186,-114.071460084855,516.463203277658,118.532729231787,2159.85734684158,-362.004371065458,491.200634135096,-84.5407208957816,809.951077943573,43.9701447039615,1054.05671939686,-89.9845140540549,349.442645155152,-21.5164233816454
269.964115323735,-20.8869403812372,2055.84075645864,-45.9579336477948,341.610945452223,-33.3237197017936,1058.00422648344,-94.242091230524,1413.29457697431,60.9631092348613,380.518336801176,-44.2890882469861,1532.40225693617,-107.220839044891,770.033846134353,-105.733834605672,699.650828736852,-115.34808431552,523.43514793921,117.332193950615,2186.93496318291,-368.991008718763,496.518070321652,-85.1031647825207,819.299484460712,43.3405921923376,1064.04714776933,-92.0849392273606,353.115947962857,-22.3210443235408
273.464515026748,-21.1213522801151,2075.83603419639,-47.7217472614534,346.42788795665,-34.8220870659403,1065.72863310572,-96.092594765478,1431.20456636635,58.1551428192347,386.652038924807,-45.1169557111959,1552.7531405024,-112.135185790868,776.931697185642,-106.871804817466,708.506412307048,-117.613953399491,526.713046270789,117.457597570754,2194.32328743499,-371.18055166867,498.745688563572,-86.246575265937,817.0794198169,42.3920989809285,1063.02793261582,-92.8773359745225,350.514190311792,-22.1279598690009
268.557048209605,-19.400766848445,2043.03716491271,-40.1963337016709,340.798577641269,-32.5942655341565,1050.55327915397,-93.2359615358714,1396.96106204751,62.7862408344942,373.769138280355,-41.650051402607,1507.64873358185,-103.704342352708,760.574221706923,-104.159841001029,689.939586054972,-113.276378623208,515.593849599194,117.60802569173,2156.81694399613,-361.804936208878,488.149129064598,-83.5249099680946,803.036145590737,45.066413346752,1052.74917225425,-90.2126529810207,348.19608770138,-21.2886623879463
270.653927019089,-21.6180216318739,2038.00075976056,-41.5544643938972,340.033468514958,-31.7827139251415,1049.10675000672,-92.3906283047367,1396.63607501898,63.1972678108362,374.68632206783,-43.6080792825948,1510.05404771364,-103.052647942327,761.548686561507,-104.363681699288,690.680221320501,-113.496207653262,515.348118086125,118.456140266142,2152.03634286533,-357.074706402397,490.290611823003,-84.0316183396191,804.426308624772,44.8060785199663,1055.17605222508,-91.0346032178682,349.127793227173,-21.3634362312338
270.736921721958,-21.5045101579422,2060.47275869148,-48.6535622861739,342.961616201714,-34.3672400924416,1057.07232558099,-94.5983057012381,1415.26387892517,59.4561281121918,380.421530029272,-44.5032644737411,1529.53732500293,-107.159647108357,769.518664026997,-106.265228018641,698.222330582886,-115.227564299968,519.697287775865,118.697947705825,2178.89105938411,-368.71510768443,495.570669555541,-85.0027698596958,812.921778188839,44.403386148613,1062.54312377582,-91.8394681293503,352.106857095877,-22.1074638079354
273.303392344099,-22.0018101743233,2071.8847778018,-44.7213322868486,344.937640040333,-33.6929012085901,1061.71962929627,-94.9621605179183,1428.77099185184,58.3171468645388,385.871760871952,-45.6633320011857,1537.16181381396,-109.319684867717,773.549436155316,-107.247278396071,703.085344712533,-116.533796956033,519.11264528549,118.224217419764,2168.95019818118,-363.322521694111,490.641644007149,-83.8571858236198,804.13379292476,44.8442254203777,1056.63279990819,-91.7374444073277,347.643787315983,-20.9285645050929
270.066186183369,-21.4566949927847,2041.06872818723,-44.6385411429185,340.44430303835,-32.8807882786016,1050.38764928611,-93.0229333645689,1396.94334120101,64.1927752173391,377.248614142111,-44.8935710958766,1509.60393877533,-102.587540090727,762.452937266031,-104.7022906419,689.828678345036,-113.036467271274,512.764312275433,119.331535085637,2149.86200483462,-361.200731781861,487.853402660276,-83.3952763930485,799.065372472577,45.8223877836449,1053.70052064527,-91.1627478001188,348.680355766228,-21.5485146118091
270.391520803686,-21.0614049224019,2044.01975108954,-43.0526488965553,341.991851923067,-33.6507726758548,1049.8292765478,-92.3758718275174,1401.60244185575,62.3471357999828,377.020836106236,-43.5428502214709,1513.47547416274,-102.88959796025,763.857340206417,-105.079905446127,691.526752729536,-113.04607697274,515.407433035131,118.986003492152,2157.86413357992,-361.790656549674,490.507919669468,-83.8999805087286,803.895190139259,45.171710992978,1056.63606392895,-90.9267895447661,349.305909352576,-21.0869006888287
270.908337109582,-21.0951886495137,2061.26422778684,-46.5983370458528,342.603092596178,-34.0241132152824,1055.60793420139,-93.726380537987,1418.24998328803,60.1912801517376,381.582953823278,-43.2087289021206,1534.61757219226,-107.519890800511,772.526870762569,-107.166814065629,698.955643078868,-114.988804504393,520.143315782991,118.693864026195,2181.53283210892,-368.408129715261,496.531200665889,-85.2774269094671,812.321477243106,44.5179142940384,1065.54720913059,-93.6814084676856,353.721065349796,-22.7340589149222
272.157254652268,-20.7160749114095,2074.86115721462,-47.6520873621857,343.935570069519,-34.2001692611694,1058.69554783598,-94.6868501294663,1424.51248129499,59.4324999205884,379.391334972358,-44.0811455192348,1518.90008215077,-105.699813303537,766.891423957641,-105.841127923282,692.965620958529,-113.605821237064,513.488233675211,119.506749944971,2153.26925133504,-361.194065703425,486.557806316386,-82.8026739170392,796.998469562028,45.6067867108139,1052.96571978326,-90.3752781363978,348.160829765817,-21.9034343379954
268.451782860299,-20.4138039070796,2039.35729897142,-43.8628124401767,338.009386056055,-30.6688894988907,1046.74931255257,-92.4339597704728,1392.32222494538,64.9637189624274,375.02811782827,-43.2037917057909,1502.63556163615,-101.630797784062,759.090840533383,-103.589371106629,685.794518627112,-111.723698367634,509.857413530637,119.076592905011,2137.13646463746,-357.434922130164,484.37928819215,-82.1330984595276,792.847220921684,46.3573272789256,1048.71913006281,-89.578517900354,347.137319371611,-20.870076943409
268.203471743132,-19.8122597648544,2037.63278085435,-43.9535374791824,339.064834415414,-32.8458549425682,1046.73318125827,-91.6508461512271,1397.42431097281,63.863322038783,376.347655167969,-42.8852379916357,1512.08530841229,-102.988793720429,763.605529019527,-105.014579659899,688.883175528918,-112.515884689167,512.254893039756,119.955020559421,2148.46960176353,-359.16183576618,489.338081155867,-83.418249151692,798.742151007497,46.9776570540198,1055.09301814454,-90.6717706524977,349.641567473615,-21.4589825537087
270.472200869948,-20.8327789125415,2058.01594965505,-44.9973855910561,341.779866217947,-32.8834958534872,1054.61684625804,-93.6738530551281,1413.66937554742,62.344334183625,381.911392607539,-43.8797614886346,1530.65266671618,-106.725950897563,770.777425190506,-106.739512902042,696.24803494032,-114.049396641322,518.143005607725,119.534759837291,2169.79475414053,-364.464340997684,495.593094644448,-84.9908147739494,807.037840440569,46.3430987620168,1063.15749209348,-92.8008897245629,352.583090188502,-21.61008320755
273.271908428557,-21.5980916780347,2071.38555492522,-45.6645222699959,343.159271334791,-33.4850864514248,1058.68638272081,-94.2397564716835,1423.23420772289,60.8082653302442,379.581256424649,-42.0782544060809,1517.42013095728,-105.101761053016,767.457062382152,-106.447779159213,692.199577574763,-113.350921479002,513.380874994733,119.389186760683,2148.96471292761,-359.254467246928,485.491912027879,-82.4381287232414,793.307387802592,46.2682828365139,1052.10633872507,-90.5622951400128,348.331343872017,-22.1063192998443
267.53120361926,-20.3488638066578,2030.95695632557,-38.0786592968399,338.480071078133,-32.8853470569725,1045.4393010425,-91.5240638212403,1392.4270553382,64.2886807483617,374.427064842743,-43.8320388208714,1501.6271816382,-101.161039658304,757.842199080822,-103.369393098149,684.61687757566,-111.571937735586,508.313521751848,120.060932018957,2133.06164024732,-355.229238078526,483.599363235537,-82.1830650492348,789.011846402393,47.7230920686156,1049.50246880232,-90.6704252889357,347.136328876387,-21.2375652416828
267.085378408558,-20.4799155979063,2032.14713851265,-39.424615352781,339.415575918641,-32.6121367067908,1044.8361658881,-90.9464835497807,1395.63426495999,64.075270383017,376.068870557422,-42.9849162482142,1509.11490451472,-102.401391156691,762.342829206047,-104.763115573508,687.274648005587,-112.157986702909,510.979196027655,120.514321070611,2146.81000913607,-359.699399043815,488.195359289977,-83.0518130216922,793.592565364189,48.0134446824538,1053.86568467399,-91.067482297735,349.380214331333,-21.3373384769741
269.080401532202,-20.5594683993117,2049.90632028949,-42.4883420532599,343.193518834944,-34.9592361127859,1052.25327624858,-92.5781015652791,1413.0410141269,62.0612989483435,381.280510592109,-44.1091818328813,1529.85272994183,-106.148870824538,769.165416604831,-105.953707911409,695.793393006762,-113.675320849006,516.18740702641,120.309660746195,2167.12970827445,-362.519687216711,493.903326420778,-84.4264955153931,804.987507711034,45.7787576986685,1061.72454323917,-91.5141476423356,352.617249003373,-22.2214696067187
272.3399895974,-21.1938145801314,2075.14489761562,-45.4176875363808,341.637149356528,-33.0879236492999,1058.63070048933,-94.0262330232105,1425.12939915836,60.3660906512603,380.271240417467,-42.7732148199832,1523.94071041121,-104.69637357362,769.398040812347,-106.090596658967,694.983349163391,-113.592601643738,514.194686267623,120.200930219843,2151.38561526114,-359.608120322416,486.626185354654,-82.83376937304,791.342237865843,47.9816248144649,1053.53561768317,-90.9196342967898,348.329621216006,-21.7375313795085
266.889532714148,-19.617682392973,2037.42802811347,-43.2418600791233,339.062967947262,-32.5850888313615,1045.92047841747,-90.9945140272315,1397.83505791294,63.6372039233678,374.634539558833,-42.6956630795563,1505.40602881901,-100.766271054729,760.735759012485,-103.607426331153,686.270181681068,-111.550217236056,509.629392197476,120.679968989492,2136.50856871151,-355.203678118698,485.02230508071,-82.4364518655928,789.469084437161,47.9142589970374,1050.46577054243,-89.8253376386389,348.157060391241,-21.5331441651232
267.390897813847,-20.482195780238,2038.60662706973,-42.3561100049263,339.559622433193,-33.6808988654159,1045.8256222382,-90.4172709894406,1399.42910714799,63.5756438912541,375.643920232427,-41.7933635107955,1513.19572958197,-102.693728576271,763.228489256942,-104.293096781546,688.653625755381,-111.973880507602,511.359958043635,121.002884245223,2151.43578335877,-361.258630566978,488.962558336061,-83.2166660685453,794.810461880969,48.1246768896555,1056.81491304934,-91.3610009241343,349.947391471514,-21.4090666951377
269.738249861869,-20.2754821367629,2054.98671380629,-44.3786527951641,342.308587618215,-33.4830519178356,1053.97244409784,-93.2783155248102,1417.64178500909,61.2699340784743,382.611843071726,-43.6683243239868,1533.90066645974,-106.416167928805,772.047180594622,-106.550887366412,696.765326773743,-113.802701882669,516.38248406693,121.068048614722,2173.18610995837,-366.137825548127,495.295102830292,-85.0333140088097,805.52156585563,45.9859467773244,1065.61708883768,-93.8032093344353,352.183321576363,-22.0085029220996
270.463242309582,-21.0931482239805,2054.12380479664,-42.1023258091731,337.74359027778,-32.2629352353576,1047.68341051011,-90.978709398832,1405.8782624917,62.9249384309977,376.256902251422,-42.6612970544364,1504.13468593045,-102.032748886722,761.13076463144,-104.637540175431,684.708715559335,-111.231923295569,509.732608837452,119.83497368429,2136.33539734095,-357.181143334556,482.984291227475,-81.8818057355497,786.178282301749,48.2916368459134,1049.97204715471,-89.8349758155516,347.646364734497,-21.8524724310113
269.291182022046,-21.3774528781191,2029.6283315593,-38.2195954240735,339.471374182979,-33.8302310927941,1042.1406211519,-90.9434119965879,1391.32519429939,64.2327105884576,373.617589166076,-43.6351970878646,1500.03909847449,-100.474838332286,757.891206437442,-103.52854044909,681.60461884815,-109.853352332097,507.779266054917,120.722913746474,2127.27546241493,-355.803809655581,482.097615312097,-81.5501789421692,784.935339809767,48.2311572014397,1049.00725370214,-89.925453494778,346.870166972565,-21.0396919002937
265.891266954033,-19.39322357382,2032.23281480191,-39.2115145593765,338.180576430336,-33.0212420261969,1043.28465498712,-89.6990102984549,1399.23477030133,63.4849154200651,376.81801616653,-42.6231671975051,1513.14838643182,-102.069216797478,763.544884203904,-104.856348457957,687.614050671133,-111.960950834519,511.916763161271,120.790111912217,2146.75687367576,-357.125725863974,487.944714339304,-82.9458719898135,792.590746895197,48.7418465732456,1056.33449148715,-91.2560693927812,350.075221900037,-21.7585357300955
271.555739770343,-21.5822854051626,2053.51277609835,-43.7881919783291,339.794189675441,-32.9754992390381,1050.91914576425,-91.5690015988327,1416.15561240589,61.1943667825617,382.371257077955,-44.7866360672285,1532.50726304418,-106.362788071129,770.064125284117,-105.726184216206,695.678109861587,-113.69988859622,517.807082830336,120.102361312803,2166.91334567003,-363.949239233103,494.010396815327,-84.1880114607814,804.365834322842,46.5957674958589,1065.35791051926,-93.2745570920088,352.407232166141,-21.8768303502167
268.061172189978,-20.5014121290123,2035.45613020748,-40.2793997522551,338.001367219967,-32.5893228729721,1041.86610348517,-90.2639445855809,1395.31003296911,63.8861472366955,374.201304493534,-42.561257894194,1496.48204372435,-100.042179333036,757.192764450105,-103.660305306176,681.285625075264,-110.776914001421,507.167193185543,119.935365618773,2122.77446543154,-352.143158378682,480.62081034718,-81.2586858702457,780.937130558445,49.3714394964146,1046.94259093007,-89.4186760392306,346.626732788087,-21.5773219489968
268.015808241222,-20.6957581287848,2019.48240344181,-37.8805882178351,335.881280246982,-31.6930013727444,1037.47172014104,-89.452792435338,1383.4137583841,66.1441322305602,369.9243537417,-41.0861180473559,1492.27780020641,-99.4884888711464,754.461671617078,-102.438632613491,679.151037974504,-110.09010919786,504.780200119634,121.127034704411,2120.85010389471,-352.631073904136,480.27545516037,-81.0153498235225,779.914594606265,49.5039279480439,1045.54523741926,-88.7648413627005,345.456511780668,-20.2497528726718
265.582048432198,-20.2050953873306,2021.68795260449,-37.2533886865412,337.315225276617,-32.202616911785,1041.6950900602,-90.1605610411898,1393.91418905804,64.73900315484,374.164282606575,-42.1262507448688,1507.65226340579,-101.755168827934,761.55876669809,-103.97880586892,685.725368450307,-111.633507943393,510.883631756681,120.647440519431,2138.81160249043,-356.986517908475,486.189900886633,-82.7267300963376,789.920148368665,48.7019699673768,1053.96541193387,-91.0043198404616,348.72993423021,-21.2415301283954
268.55816622411,-19.6793871362937,2046.06616049083,-42.2218573370357,341.454435191829,-34.0731860838728,1047.39440558547,-90.5145751456889,1411.18903753786,61.5297255775358,379.805097771252,-43.1807616476468,1526.32360608797,-104.81194767846,767.452740100241,-105.43457126326,693.380390400697,-113.211951332665,514.476957560065,121.239553888601,2160.46650808023,-360.720009511441,491.690644690743,-83.8994761680549,797.924146830585,48.0647901761576,1060.76102692354,-91.4740884660892,351.101540656672,-21.74358173815
267.396350617673,-20.6888239905251,2029.39223011636,-38.0970098724911,336.838630176939,-32.5214458650748,1037.41349705976,-89.1510005782734,1385.39076968515,66.4627072304094,370.616343020466,-41.9763728839481,1490.98934359457,-98.0779267046671,754.389495381245,-102.85299317247,679.239398591513,-109.843364836334,505.289044526347,120.591493535916,2117.71871006263,-352.110738730303,478.44280922265,-80.3955484488556,776.419306929133,50.3579784652155,1044.63324174526,-89.0423090126635,344.862477636465,-20.6108616234499
264.602610710022,-19.2678597746732,2012.22567325604,-33.7364357952268,337.856860082297,-33.4925816840448,1033.28365163643,-88.2446238794061,1379.25699073794,65.6701300990973,369.601203902282,-40.7279181677482,1488.84391728837,-98.5096341086766,752.60297262117,-102.383540702375,678.058564414963,-109.663833437055,504.175012164519,120.829692820925,2113.47772910231,-351.151597190907,479.240300848242,-80.9021880094165,776.634804603204,50.4106162151085,1044.20007887022,-88.7237743242849,345.213392904743,-20.9143986474618
264.55252676571,-19.238710061525,2020.72011263205,-34.6127221800326,336.582473854741,-31.3217370637405,1037.95348078557,-88.8516678558331,1390.29876787848,65.2617160560451,373.907209635458,-42.1933651427861,1504.58612667674,-100.356111965965,758.685583196225,-103.032880664361,684.625818647498,-111.092089802671,508.299115777823,121.409862715514,2135.73786475044,-355.993798028093,485.168930829645,-82.0848521439103,785.147663684373,50.3389033026561,1051.9515753042,-90.0906617918837,346.894699633712,-20.4677992542798
267.265594107997,-19.884970432972,2042.80214085901,-41.2036055945169,340.380859088335,-33.7498439014716,1045.94454173703,-90.8201427955631,1406.10900419843,64.1328926104161,379.749412952905,-43.9733330328638,1523.53630176067,-104.528351847244,766.599653759717,-105.104466964522,691.97042465842,-112.844994835489,514.362712165749,121.26726139722,2155.71608097162,-361.628533421573,490.843964285086,-83.562325929549,790.598100650896,48.8597969144339,1057.14781214105,-91.355849658943,347.315268101855,-20.8999396952436
263.150113929299,-18.5873554246421,2009.20067174884,-34.5504513709526,337.919926227265,-32.6868189100193,1030.46965178217,-87.0390232521288,1376.12470129459,67.0529632165499,368.228271519767,-40.9222297266096,1483.85315140241,-97.4436549397397,750.73406172682,-101.808429531707,675.234543036676,-108.993076018204,501.787447852444,121.570132621642,2109.81888857771,-349.223519221167,476.654865912379,-79.9196608355963,773.79513236829,51.2852129207451,1041.22957805514,-87.401335735515,342.649678053845,-19.7564705707206
262.482346684119,-19.2054312286922,2008.32731557959,-35.3223664394828,332.653139408644,-31.0507939789364,1030.14465285629,-87.0692654882884,1375.99433418094,67.173195502787,370.102125795483,-41.8076611113916,1486.29965174318,-97.0120975005964,750.350516035733,-100.943231505101,676.348425833442,-109.057367756068,502.054447895397,122.40911569904,2113.11479423921,-349.409547262256,478.093111386851,-80.2846336403822,773.871263344833,52.573005574763,1043.21665753615,-87.8746219120672,343.873420700572,-19.7734732549937
266.313878775532,-19.7222528418699,2022.18834132457,-36.5063048119622,336.350548356235,-32.6589753955354,1036.26732410019,-87.7756078071881,1389.98347072342,66.8841136841137,373.77635270611,-41.8720065144333,1506.33524138813,-100.643554804986,758.903678174956,-103.155802502302,684.962706272051,-111.066076730357,507.671106518429,122.330114480362,2132.86671607718,-353.980331833364,484.722283790945,-82.009446250186,785.76124874062,50.3341712705405,1052.82861249109,-90.4046148169362,346.886075561929,-20.7035921361979
266.493801545643,-19.6598591943266,2040.86906341759,-40.1181981631419,339.693970069146,-33.2959002083122,1044.40609780042,-89.6941713292027,1409.4899197767,63.2107796452514,379.542764949943,-42.4825569492689,1525.2745380316,-104.147864261514,766.830272086267,-105.225396451054,691.789250258041,-112.700833064291,512.332178256827,121.789859234473,2144.52023645364,-356.07904310032,486.710345810601,-82.7121992414659,783.868800502356,50.4834798291851,1051.98877750385,-89.7394058519597,344.973441127142,-20.4662835235045
264.476405736158,-19.6341929797675,2008.64604814184,-32.3287420487777,334.657375348167,-31.9559722040768,1028.1299077766,-86.3864958584853,1370.82560075692,68.6632922175398,365.169957738883,-39.6562512988045,1478.5704959465,-95.5194767408193,748.567907893076,-101.278915860166,672.85921667782,-108.156766016688,499.738210429062,121.793524648459,2105.8090488015,-347.55654024455,474.791232104054,-79.2933519098009,769.816374234753,52.5887781779982,1040.04204483502,-88.0257641013648,342.642033763229,-20.4833912923528
262.260771957962,-18.2090262215441,2001.13425098689,-31.9903953975969,333.142241863614,-31.4833999968648,1026.13470096948,-85.6693500976239,1370.51113385643,69.1460133063046,366.244747395196,-40.3346482015485,1481.64479670286,-95.20432802916,750.137631943455,-101.415848779194,674.333136328185,-108.637998126333,499.540927688935,123.062155975926,2106.78624364388,-347.284853654916,476.546997103127,-79.703675781605,771.825038295892,52.5786803146181,1041.23457159577,-87.7095190158821,343.357741649999,-20.5845836262992
264.894452221099,-19.7947387096622,2014.8678744206,-35.5616289973039,335.717833382776,-31.6918775977311,1033.08038371425,-86.7807634758788,1386.96320033415,67.4291519912332,370.555374854704,-40.14807896702,1501.0066964924,-98.5730264387878,756.829699373497,-102.386264064339,681.658861732353,-109.807643498225,504.043028696831,123.647266531186,2126.49343651793,-354.65301556428,482.648932608014,-81.4335989707526,780.7436701173,52.1971329988649,1049.78409515756,-89.1883398034391,345.359206785587,-20.3031675907086
265.960803931042,-19.23789334744,2038.88381809794,-39.850109361026,338.827756611292,-31.9882312773695,1041.35561936913,-88.5463283673519,1405.04722504914,64.7587914278868,378.712076185483,-43.9882384824624,1520.5000467854,-102.680363162098,764.570258624,-104.047362171021,689.371387293063,-111.779210610743,510.584442316954,122.307931677402,2141.68540702414,-355.381286631256,485.746859089147,-81.9106033968734,782.142173327117,50.8518678216218,1052.11475479196,-90.2400498477283,344.131500517731,-19.9923938945787
264.866177262216,-18.6614142148717,2004.83538314489,-33.7284827012049,333.29102362026,-31.2365103202537,1025.96729086401,-85.6878756897585,1369.15494898849,69.0663129786883,366.526112898826,-40.2469291549434,1475.97254711291,-94.7116907181372,748.036195802041,-101.297887779016,671.748704280834,-107.829317566619,497.722205705298,122.852510819368,2096.47367177018,-345.338576562723,474.121343769644,-78.8653365208093,766.574857567727,53.2450634975138,1038.42719473364,-87.3215898360154,340.329146641922,-19.3794485885809
261.133013378725,-18.5977148218905,2003.3631792465,-36.4369504263646,333.996846700654,-31.8645555201815,1024.75057704063,-84.7738427849259,1367.82755149072,70.038645905473,367.284790893059,-40.8431610362451,1479.46661417632,-95.2641552854144,748.314961581217,-101.011215214079,673.027837416275,-108.194184328955,498.750231760526,123.043366196222,2102.5447172647,-346.817890716516,475.848647866065,-79.6975283957978,769.645487700986,53.3940236492778,1040.55056920979,-87.9191942137355,340.833951271085,-19.3428848675172
262.543967340334,-18.649706468898,2008.61942216916,-30.7984404910983,335.588037083215,-32.477982580408,1032.02952878825,-86.5523883901909,1385.62594931034,66.8997441130885,369.051891990247,-41.1197417398214,1497.90755148206,-97.7409311113479,757.032687802336,-103.017452551624,680.670071339717,-109.482072260342,505.046591556083,122.594884267643,2119.40054973427,-350.602460914337,482.103717031454,-81.2239046587425,779.11793670705,51.7690345511949,1048.87425087472,-89.4398739119084,343.520890355475,-19.5697505863243
266.046151010687,-18.9426346629345,2037.00864973208,-37.8313370769315,338.694837463567,-32.0584863645145,1037.7898571798,-87.4286252472796,1400.90106627206,65.5370698182332,375.697186239355,-42.2541842519136,1515.93211263014,-101.22935928858,762.236192281929,-103.319241575041,688.326439242692,-111.536083410464,506.719150801259,123.108472761082,2128.29267402046,-352.156119297293,481.818464218294,-81.5031466485524,774.550496020067,52.1774149046044,1046.51233010826,-89.0439386310394,340.987239004502,-19.5416160188629
260.741400089889,-17.0140459318908,2001.82628766991,-30.3734092052882,334.008431681176,-31.4931973932999,1025.47060278816,-84.9341940554815,1370.29547971677,69.914779288877,365.247895663335,-39.7154574593303,1481.0305557996,-94.6942628920791,749.179494429117,-100.855662384641,673.945482147001,-108.279481600797,500.15011495072,122.834880949736,2099.47423602401,-344.544165723502,475.236106075363,-79.2501143223789,767.58913547317,53.7357270080376,1040.67539691245,-87.5960964300688,339.577978527213,-19.2732969480175
263.218890120369,-18.7633541373816,2005.60229651501,-32.9671420785066,332.833861411895,-30.5463665232095,1026.82292493094,-84.9687513244262,1371.66869464941,71.3728803178375,368.3719846287,-40.2523632352274,1487.08274462739,-95.9313034388918,750.9763923203,-100.986168354844,676.53287695259,-108.696040543587,501.250942317155,123.109364915702,2109.73823014736,-347.564834428797,478.297244445934,-80.2034626439819,773.374743877214,53.1457362575326,1045.79209173232,-89.0427729405489,341.587139499686,-19.6919502406392
265.04485074531,-19.8547214190395,2022.22514290028,-35.251511753603,338.760132694116,-33.2959659261493,1034.75468936855,-86.6298208020855,1390.90220802853,67.8669986841879,373.608046744922,-40.9010217188346,1507.88066435728,-100.196833191269,758.840542786466,-102.511742939575,685.18589289066,-110.809226424828,506.646475700483,123.851034973646,2131.92917721646,-351.137344016106,485.052434589156,-81.8276553300322,783.894539451082,52.1882684867099,1052.29158764736,-89.015033111261,345.06559489919,-20.5775676317892
266.191106498103,-20.1807525940414,2019.59714122089,-31.5691081845981,336.78891910657,-33.1012587048864,1031.16469365681,-85.8276888177454,1382.70997562437,69.0665853694173,367.84228128407,-41.1213871868573,1482.55697577718,-95.7454939707793,748.980481159877,-100.857762983417,675.094818434913,-108.554024096656,498.98584470238,123.308042732624,2101.90247098902,-346.720218066748,474.065043758774,-79.2881949103626,767.15682575893,53.3823926586345,1038.58748726289,-86.4287916126036,339.202626640521,-19.2979022728641
262.003996356191,-18.2768971108842,2003.27626961691,-32.6224990076136,331.461332701325,-30.2073476907044,1025.15859186611,-84.6150271518438,1367.62822290808,71.0674542374279,365.916395715291,-40.160331518123,1478.37619330274,-94.1615320651703,746.004135654326,-99.522434372858,672.755840860579,-107.765523781737,498.588070841066,123.299077287615,2099.71481532677,-347.341779138242,473.977378973438,-78.8198811451082,767.181748348781,53.8040709218458,1037.12638410792,-86.1518302147299,338.619829249343,-18.841211105344
261.942125709323,-18.7127842617862,2005.5707085273,-31.8404744416515,332.726847469576,-30.1780427474929,1028.30871323591,-84.5273152344547,1376.58537650104,69.3570217798246,370.169440105808,-41.6040338336109,1494.13731700163,-96.9727791667353,752.32473036116,-101.184593412801,679.302790404974,-109.219725015715,502.919698905954,123.752073976647,2116.82876936728,-350.1331636955,480.465083742118,-80.5807526112511,776.521667902621,53.87703316749,1046.42600829449,-88.1592606474505,341.847095323233,-19.7517550146292
266.144151987336,-19.6678595478388,2026.199091025,-35.1807302463163,334.689604934546,-31.2956407372687,1038.32720309836,-87.9355506132012,1393.82864958388,67.7569067495176,376.039686724065,-42.7669069166697,1514.65201061551,-101.129283098306,759.757679955554,-102.724398299985,687.274920628965,-110.900547238685,509.250938320739,123.066841423662,2135.75560828181,-351.859969339082,486.043493110078,-81.5659721505516,787.996402315649,51.7367016620653,1055.09545760242,-89.9692079836051,344.132708830435,-19.7723515913754
262.730750300275,-17.7600095532562,2014.71827144929,-35.9196122753056,334.145197497854,-31.8381294714584,1027.05715288503,-84.7186872723625,1371.23465867822,71.002084279731,367.772622267308,-40.5820825133844,1480.05457351871,-95.1267356622312,745.756475696694,-100.401959497422,673.645122723984,-108.30952725842,498.001397482852,123.869825298676,2096.79944329965,-344.326534940862,473.506014364889,-78.8973472718497,767.481764253485,54.0727355498334,1036.40406034473,-86.4480141737312,337.615118654696,-18.7553659167212
259.71883735768,-17.7288617912491,1993.23539741674,-27.3293603119787,332.382999871696,-30.9150886849865,1024.13218663708,-84.2935293848039,1364.28662914286,71.6883804926096,364.850820087731,-39.4803984229475,1479.42330104019,-94.277124165794,745.373797266059,-99.9118827683183,673.977509939715,-108.22170515757,498.746613975382,124.261727119342,2100.43058950926,-344.83134409038,474.772067158455,-79.0387376915327,769.133011563534,54.5672730891586,1037.20613603657,-85.8973541645078,339.256113940017,-19.6911004262482
263.413747432107,-18.94817354353,2006.23511297912,-29.5195622152452,334.833301793947,-31.6659351416433,1030.79094349721,-85.0209248788804,1378.18492280459,70.5431623425167,369.815436163179,-41.0233614328958,1498.33563960673,-97.7817635450275,753.421159776141,-101.528395502387,681.728481413181,-109.729783022674,503.81497740887,124.32702563923,2123.01128749714,-351.534838595163,480.909083961642,-80.4572675142497,780.224461110488,53.3566568971699,1047.50697634545,-88.473079054229,342.047489442551,-19.9983309446348
266.030630991116,-19.3233319742979,2027.92482637753,-36.4719754261651,335.043505784263,-30.6612977290343,1038.05323482756,-86.1019123788788,1395.86890822902,68.4003915378138,376.536046298927,-43.0764865730754,1519.393994414,-101.309404262725,762.585425308233,-103.471160619447,691.730203579304,-112.307636219568,510.601577875122,123.689332494054,2149.05897675624,-357.250323333552,489.777093792914,-82.9093844302488,790.54552317585,51.7755465178071,1056.59792883831,-90.7101196578513,343.400729483556,-19.4119366272385
264.019907781028,-19.5528512935154,2003.74035783154,-33.5496481318459,334.222030573373,-31.9381304911627,1027.85383512876,-84.9228939451214,1368.82973161393,70.9580336000296,366.472795805215,-40.8920897807662,1484.60950002143,-95.2148978255702,746.74275625034,-99.925177562673,677.146519134513,-109.037317718817,500.662723928187,123.468220751188,2103.33550416094,-345.581987399708,475.788872437333,-79.1018985104498,772.133761765269,54.457847072542,1040.18003114903,-86.6850362684258,337.616922257812,-18.6079571581415
261.358093222374,-18.4886130148236,2000.12114752812,-33.2889979476353,333.392141766146,-31.3391142195309,1027.92826740755,-84.9355496680511,1368.81572302498,70.9524775380809,364.741239241826,-39.5072092035366,1488.07105692685,-96.5415606481886,749.367811527918,-100.432269032795,679.109421014205,-109.303284262745,501.691973920305,124.268357475057,2108.76803667138,-345.689259047173,479.456712950719,-80.5392677919851,777.02209187437,53.4710140355483,1041.98587785418,-87.3865733262896,338.617954654743,-18.7625445638781
266.013959350298,-19.4669950184726,2011.24968109929,-30.8917011822684,336.069603836975,-32.5833389239906,1036.92581681241,-86.2549505202955,1384.96048586217,69.5077097490134,372.938092631774,-41.4749297415191,1508.74949919548,-99.8880836167681,756.479320659244,-101.702665037739,687.879819444985,-111.274783598923,508.504641977562,123.304527283504,2130.95790959248,-351.820291366231,485.95422843161,-82.0533369956434,788.295403370014,51.9281106031302,1051.01952415605,-88.8539712208306,342.138055080551,-19.8312974131852
266.819717569398,-19.1985560098726,2030.67382841548,-36.2498644836991,337.336332205192,-32.6060179229368,1038.31075667978,-87.3549627850371,1385.68345010437,68.7507555446038,369.730253713436,-41.2892721735916,1491.88836484971,-96.9211386288406,750.042698833702,-100.629251701406,681.422813259761,-109.92085500078,503.173504701905,123.48621953439,2109.12737629512,-345.910518877892,477.6851637433,-80.3293411064432,774.644468712053,53.4515464015421,1038.24936737414,-86.2730033179666,337.516559502622,-19.1031241291051
263.278436939196,-19.2856144681067,1999.28409827511,-31.7650086696668,333.603942523143,-30.2793152940371,1031.24331445567,-85.0518465907985,1369.18780653055,70.3616375069538,364.290193606374,-39.3598491160431,1486.3011608478,-95.4241408036238,747.368501416536,-99.8254002114772,680.414035757105,-109.826526371318,503.179349885209,123.392155026594,2107.74882300941,-347.159006395518,477.41848142547,-79.4984055776591,776.532021139569,53.4471876625128,1038.64245324762,-86.6729244465957,337.611015376167,-18.734619480233
263.562832578547,-19.1314628571418,2006.00499108425,-32.0702983521856,332.442807921192,-30.1275839123808,1034.08357629285,-85.4349785409824,1377.20938299639,69.4944803938729,365.18177735953,-38.1413034357595,1500.46841861234,-98.2876814719087,752.936053324406,-100.959385447789,686.098375848048,-111.444421363048,506.939337713523,123.915010530753,2126.31306529406,-351.910278744696,483.711925078113,-81.133681743917,787.609246781553,52.389687846964,1045.56902625409,-87.3304473361626,339.814074856833,-19.4657054346049
266.197553236625,-19.0556949499229,2025.27091521345,-35.2212575528824,337.412777966972,-32.4602503216844,1043.42354856904,-88.0693625400592,1394.81807515707,67.8207906917254,374.560388993349,-41.8075595537848,1520.94450343885,-102.351293893598,760.541583418954,-102.56048206631,694.827390080011,-113.59496569102,513.724393203554,123.428275291524,2155.92439199349,-358.41376623848,490.555812121975,-82.7477300009654,800.053145194436,50.229705599854,1057.41512279582,-91.1680014625773,343.337548419834,-19.7637134108463
263.627118138376,-18.8114500763326,2008.79515638691,-36.5210551677785,332.515170171466,-30.6916906423685,1032.23468234748,-85.6210088198364,1366.2955334065,70.9024274457547,363.494269862284,-38.7971985937203,1483.512888969,-96.2998442780791,745.603632994139,-99.5585960826242,680.592925132712,-110.258008509562,503.205826269531,122.803225820521,2105.73821155472,-345.17244949526,476.824878607346,-79.3320504311602,777.384004553694,53.5374293825668,1036.81430778175,-86.4338604138623,335.449830531601,-18.7526501657855
263.380655972158,-19.7478639894138,1988.37052718302,-26.2841012166609,334.049008158021,-32.2089634419364,1031.56771730156,-85.4046205546525,1362.26251414465,72.265115646443,365.049884679427,-40.4879679032156,1485.69849629423,-96.3367421790049,744.754663909015,-99.2574101906313,680.631544912091,-109.768278059378,503.443097495605,123.637607430507,2112.69053363717,-348.979984409781,479.540696273046,-80.4325266961249,781.316048310938,53.2559492718672,1038.38226818112,-86.2053239124401,336.680776712253,-18.7244402115636
263.521554851591,-18.747318985146,2003.96415706258,-30.3414961042928,333.875941303814,-31.2368706352913,1037.82153720002,-86.1166070855745,1378.84269132646,69.6136032127664,367.417677554875,-39.5356160420939,1504.12805011601,-99.4303548545593,753.337771981524,-101.025525134243,688.142247290004,-111.850513671976,510.056938103724,123.349425946356,2131.54706912545,-351.093839732042,486.613841770945,-82.3660153795132,793.939169588564,51.0754192380953,1047.04479978635,-87.7674663120693,340.015587034911,-19.2510562545584
266.555281289219,-19.1079612521666,2025.23514305743,-35.0940442204592,335.9066104757,-31.1763313638183,1045.66318119292,-87.7628510811052,1394.65807791979,68.0863231185158,374.612944725617,-41.368905951861,1523.37998068031,-102.097424370758,761.693905148439,-103.123580505894,697.704496046993,-114.243414003832,516.396534591503,122.69566556545,2159.12434491602,-359.068959761336,491.215799153993,-83.4233832141424,796.698044377414,51.1003451704606,1049.89136438302,-88.5227291681155,339.226852459277,-19.3156206744724
262.419579346825,-18.0928923793017,1995.1121539918,-29.505176917658,334.492096157359,-32.2859523412447,1034.53611767118,-86.4541501634589,1363.33389260499,70.4790673588431,361.867040695945,-39.5098738613341,1483.74394568375,-96.4734888689355,744.745075471781,-99.7208616121217,681.47364176867,-110.729214638456,505.571650605809,122.396405494998,2112.61071857065,-347.959373713841,479.573878137536,-80.6481919975831,784.098434568712,52.3299369801856,1036.2510304031,-86.0060678413243,335.539822476354,-18.4881577725918
261.683160679287,-18.3560789464302,1997.93711823641,-34.6465064826967,332.703780019293,-30.7260687759855,1034.55428870051,-86.3444696428649,1362.82480865803,71.8445206389945,363.259749371993,-39.7554514863118,1488.55390718717,-96.4735892090638,746.318453713319,-100.099774566759,684.020780579964,-111.132412662493,505.857106906605,123.459338468514,2122.28397633907,-349.790268766943,482.278113290629,-81.0231849893533,788.105449440924,52.0253588175183,1038.48974610587,-85.9569908790749,336.52683960185,-18.4340433283508
