2.65461289441102,0.840478787970194,35.7162699112925,-2.05349650040016,10.3248994040757,-2.94764055805917,556.305615550003,0.204380576259648,930.121272030407,-42.2785151608818,2.98764919842658,1.01729036058725,106.079901595541,-20.3067029515162,105.764456504228,-22.8432367772022,26.2233104096467,-6.7251073075551,653.006593365024,222.584783667129,257.207693924198,-25.2208206613549,1912.05718491198,-328.108455225652,184.789670110727,2.23857950600576,813.757924071851,-35.3007211714576,568.249094764761,-58.9622995281446
6.04277071958825,-1.21428728372011,33.6302138618913,5.66152863737054,6.91817011699275,-0.525895660179081,543.692879684927,-4.54972098509873,896.846392972448,-38.3936488621223,3.55441386430077,0.82937436528961,98.5208231563702,-13.7597819616725,114.058326494673,-21.9884375870594,22.1862942846116,-4.79810859043547,638.627764060701,222.568478396258,253.610233705535,-24.9314952313674,1899.75972525747,-316.291400995523,182.885750085043,2.5646913143852,816.014026934361,-39.0021385406478,565.478254538114,-57.0713135621327
4.9940795316838,1.01236764314972,25.5219995477234,2.79390470651263,3.35027616036141,6.69593602791389,537.853847833316,5.71187467471529,902.109473176314,-38.9283968528089,4.70947369519402,2.81864350318955,99.0505317767835,-13.6589480398308,105.49351415216,-21.3519512500582,19.6194354448365,-2.67017141335274,648.275853719499,220.998622731259,255.006923464388,-24.2133482838599,1906.76484324828,-313.639209922507,186.010657676913,1.55169830885975,819.911921225455,-39.0504419256754,584.701682810535,-63.9853698662031
2.02877356580424,0.670619480888767,35.0404553085394,0.842839315810313,4.56660823871782,1.33953618995874,525.856700182599,10.8100934227801,922.074312069652,-40.4393634962864,3.16710974256656,1.55750370738432,102.052455649774,-13.8998799573602,115.356545606607,-27.3530047634059,23.2937673553382,-6.10491723848578,658.960439874505,223.292798609873,261.011200086212,-26.6479833736798,1951.7479710647,-329.380600372638,189.315033790058,1.31055348648189,829.027584434375,-40.4363411525609,602.796633584363,-65.9548690872679
-1.25599625565479,4.98213222379895,39.9279303262076,1.67543084612475,4.94621831871763,1.43266085777722,533.760765765872,3.19870586763441,892.119069744698,-34.3606175485447,3.63857403731139,1.06996091495463,92.7850069335036,-11.2719512711538,113.595188292528,-24.412514123145,20.5860570134903,-4.93994565456197,638.711259830021,217.562404140422,254.136093986916,-24.876301508323,1892.31131373573,-317.820206667766,184.020407376044,1.82074855887981,815.140704305282,-37.9393512965168,572.098050803266,-62.1277155852322
6.17225565256942,2.81880277807896,43.145863910927,-8.53769749064439,13.6093085252547,-3.89890352972423,518.526649325917,11.6187936727845,897.40797675598,-37.6207604817187,0.368804075920159,1.46882274988852,94.2442193766247,-13.2886926932316,100.733456102694,-19.994576168236,22.0933639943544,-7.07072067188744,644.371125757614,221.809418957795,254.885350079774,-24.7770955029771,1903.2670519106,-317.225929791642,184.698130517964,2.68087450665059,814.445679495168,-36.7565853108745,583.237241604958,-64.9843266828626
1.06213157332079,2.5210726496746,35.1823342932528,0.788262275852092,7.32571600651323,1.96451146044423,530.738711324784,9.83191600298854,919.318995695411,-42.2101260014398,3.29391991985334,2.80741251470836,99.5268499765415,-11.6322410434208,110.608501924204,-24.8945800017776,19.7780777015689,0.243506705020649,660.137003680862,220.437675878505,260.277553922997,-25.6883231052981,1954.30349394568,-337.120929131283,187.835643918271,1.91230376830763,825.956964218848,-38.6518574227081,600.18352639711,-66.930485477544
1.0862291982875,3.09965973851899,37.7117647248736,-1.99950349795906,13.2047486684261,-2.90300454992125,539.802923550937,7.49422779278841,920.814763443359,-43.2754892237728,2.90381509588966,3.02570107622033,100.266463661711,-9.92068875726459,108.638245509689,-25.7295860109324,26.5081046477471,-6.47939648175825,639.777728004392,219.160906366762,256.995629423218,-25.3648524311228,1893.66853099655,-318.794503558833,184.317118520479,2.07675409911834,817.103534327601,-40.3943148565456,569.113855065365,-60.9554832133542
4.82483669417185,1.75607011769483,33.7302397053133,-0.848334388190405,3.28704534915501,2.93699585475276,528.305190699489,7.21578630658493,897.519278988917,-36.6042958942053,2.34958148414723,0.333749939217544,94.9596082990482,-15.9723349630897,105.875007096897,-20.4775800089387,23.2450024756192,-4.88093876075108,635.814493802216,219.529368678892,254.637128437841,-25.4956518171538,1867.98211381702,-309.098128681472,183.37790582726,1.89824420362141,805.494231886902,-32.8562447299518,572.31323346115,-60.2593079539886
7.09132688226505,-1.30004498200742,31.6127610907819,0.347295586209994,11.4314098384365,-1.38524407867996,531.620005790953,11.2572905879264,905.136421391996,-38.2645075721986,-1.78528642987594,2.98031295058104,102.793368090668,-18.1299195699068,108.548291909689,-24.190618473026,23.4869292692621,-5.56469555327469,650.493353112972,220.631537914588,259.231303508081,-27.3123916420817,1928.23957602981,-317.906091488232,186.075995569945,1.33196429936183,820.66080619535,-39.761802294711,590.909717649848,-65.1478282303607
5.76178953883944,-1.94345070658165,21.4272940674484,8.11193581013092,6.40590255050164,3.48538831684018,526.931398758822,14.3182493011638,929.189761001589,-43.9184256859868,6.16322468902311,-1.56014078427379,91.154228047198,-10.4717687398348,101.925881458424,-15.6298596535713,20.9104767677092,-1.51450485807387,663.216752448123,220.906456233338,262.877244589851,-26.4212841946482,1949.05627656773,-324.751708696394,190.977096384853,0.400119274665729,830.498662639615,-40.5634412826855,611.198184749157,-68.6981462420623
1.06423281731296,1.51107945996078,27.4003862969802,7.7511528248891,6.98309550115126,0.825180808575532,530.681409587034,6.12499816177208,892.673752586818,-37.3214314274286,1.63412463279072,2.05265925802111,91.3705588065275,-12.4252108100182,105.304636042976,-24.7329794982944,21.2568446088478,-3.50000995035688,631.750117088678,220.890677475478,255.899887450169,-25.2345713174504,1882.84867216582,-319.67832031314,183.019958639251,1.64350192371755,812.532321131508,-38.5113571766016,572.311362946573,-61.9095268825581
3.83484933293926,1.79827796506107,29.4565989641613,1.0702856176811,3.26220775040787,1.47383580203592,531.346955068419,0.128279013076108,890.897788263995,-34.0686951226484,2.16197457889142,1.9159077712331,96.2962577783324,-14.0599170089508,113.220998494974,-26.9790409220054,26.582664458316,-6.71440698429522,638.172065648271,220.600197711591,254.649126009144,-25.6056511297581,1903.72608566547,-317.84684825223,182.321280782391,2.65920501421906,809.720968186219,-35.5281591549966,581.517066179595,-61.1155660854862
5.65751772992299,-1.45380477869564,37.2291474567378,-1.16982269487982,9.52290867526649,0.510770360066548,529.293353508045,10.9611073274473,913.838456020289,-40.5614275351946,2.28190854077295,2.03900563955496,91.3947013285414,-11.3531796044216,116.734839293023,-27.2122930024218,23.6719334134092,-5.64492221416245,648.543695152602,224.178550003005,257.8691865156,-24.4085549969123,1936.93870014771,-326.530204780176,187.034819798801,1.24240500929884,823.098494872192,-38.7534518953864,599.830193402321,-65.9418845173292
0.755479441796373,4.12267095190896,27.7289626822013,6.30225034839643,4.73494115612278,0.0516947836747465,533.920488351621,8.68291470469961,919.211986629388,-42.097430131371,0.159151498643846,3.16157147059213,107.225542199388,-23.015276198667,114.787028158156,-27.8493961040168,30.178160717883,-7.98496191857173,633.441385879627,222.324831296666,256.316272303257,-25.2105887777659,1888.66257415736,-319.939896453343,184.305202941232,0.813480978876214,814.360076138849,-36.293618321327,574.057784313723,-61.7522771819524
3.36317038522939,-0.0512778153294464,29.0953287319172,5.78285540585266,2.22995579785597,2.20023431686429,525.723820423025,8.94837992904081,900.159094457533,-39.5496538486856,5.02406994245948,-0.466868015541828,99.5908526200306,-15.2096128372752,107.292775625961,-18.7362441550936,15.8015049396206,-2.59052224108817,634.710342859891,221.927357599574,254.365394637476,-24.9238003708832,1890.45175730467,-320.124203342619,181.703414887789,2.22471971590708,815.567547373901,-39.1758974191582,574.419634152908,-58.9913332540584
5.31910913059125,1.4612830153233,33.1448020062343,1.34980280137919,6.49945177820867,-2.12198816734963,533.650199350237,8.76425869325727,909.959064235311,-41.1700362216203,-1.83007079447366,3.55115478876161,93.2808425806672,-12.7666955334316,112.989190074516,-26.7322595567168,17.4858854717384,-2.67795735400516,648.541080092538,221.01344989388,258.059773120535,-26.2542093965418,1927.03789910387,-327.064311110646,184.765291355249,1.62077784977761,821.660034729359,-38.9629293982492,598.507213122676,-66.1481248753543
1.6852567280646,1.36612336068917,29.1685897469712,6.78852154333342,8.08650043685703,-0.927145205314375,541.26974593454,7.38321280629046,930.247939608969,-41.2378991407148,2.75181377017511,1.8971087098918,89.6967340596548,-9.3402197509344,111.422747277215,-23.3784722900345,27.8129904746257,-9.3963374856846,662.297234076908,220.506250994381,265.229090802892,-28.2537790426475,1981.65702812312,-344.300873417028,191.374272689886,-0.480396009979673,831.320757008125,-41.3902514303666,616.432603638425,-70.5171586402719
2.74794571554683,2.23034464349928,45.1541021671459,-6.34928665431384,4.12018191375887,1.33856129983837,525.682915197718,8.0125690192401,898.03364439852,-38.8798502264288,4.08278638949922,2.01356428311676,97.6501901249086,-14.9831192643686,111.454845669854,-25.304105148154,21.3208832908125,-3.13823759484954,629.669442704968,221.677515587705,254.446520741276,-24.6168495710572,1892.34931181609,-315.421423163621,183.130617806176,1.36907008877999,813.29512712184,-37.4631821590374,579.037527061517,-62.2246883165936
5.93526545258968,1.1004297713845,24.1089552552246,5.85532948113211,9.86228847092294,0.637166382481211,533.440600261031,6.6355320948968,898.45530691587,-36.4572327121564,0.0509495356436248,2.92574102400854,95.3732259157218,-12.8151099180663,109.531627622351,-24.5984585596368,26.5847072286426,-6.00412484150906,638.366408640766,220.393000254308,256.155166555211,-25.7001915423082,1910.09436493824,-321.931326971731,183.894000683873,1.2794676474061,815.953621574025,-38.2499159277311,588.815455003241,-65.040272796939
6.9650494012316,-1.34105041956922,32.7395698482409,-0.922272035332698,7.64133190144394,-0.388353892603961,529.890109086248,8.95113901242331,920.859019340436,-42.4497123251272,1.91962906858074,1.54592549879055,103.496285204108,-15.8213361576335,110.351987130196,-24.8848006565424,15.9906598735797,2.4651221152711,649.102456853663,223.781115024115,260.589852987622,-26.5199906493683,1947.40049867184,-337.972482281564,187.500643679582,0.528283690965527,825.703808580022,-40.9198561334634,607.277982218457,-69.1628411990997
6.76189325916228,0.0164566528454893,31.0288350054512,1.43923205061947,6.9488242745921,1.62690170901038,536.345328543327,5.22109450980924,921.031419032041,-41.7869725933796,0.5897303728425,1.67382928687255,101.488958581763,-16.4043223924032,103.055845864019,-17.9134098397797,27.3942587506681,-5.14880047652521,626.636800895922,224.358518475924,257.847881348089,-27.2733445003003,1900.14285054736,-319.921630419222,180.008461071563,2.46684400454838,811.377627277496,-36.8404096252639,574.334994110745,-62.6948787400263
2.03586110762462,0.956692171456748,33.2991696774779,0.860169843087296,11.9417431386287,-3.5198824764316,535.905587636857,0.947926558018031,890.228630161414,-35.6533877661493,-0.988998215845964,3.09180096709691,92.6442843750491,-10.8002588712887,112.680095935286,-24.0928198400696,17.2498892617599,-0.452504990466361,630.668981052547,216.523692401388,253.341211620307,-24.9787876982394,1887.11744496265,-318.613964342874,180.668112371415,2.40749588333852,809.96221749132,-36.2363905366043,579.44237956946,-64.522216806376
-0.502468107875544,5.27593106586946,27.2137978741446,4.23564347175423,3.49426322973081,2.73730223595188,519.765822599995,12.3547599661178,901.083463074238,-38.5269908042707,2.62258379368802,0.731378544096432,97.8335249818699,-14.9969086701172,102.637577771416,-21.5088117731262,18.6099932294703,-5.03142190500839,634.478517741526,223.714575340465,258.503745364689,-26.7548707689949,1905.64312422514,-325.939334865929,183.998729627785,-0.274321102737652,813.61178886863,-36.3725193751068,595.676110921897,-66.3253504683781
3.58380385520179,1.59793804532497,31.6224866538034,4.24838239011855,4.21537987962585,-0.0501900718199673,533.144324083215,3.762154045004,916.945600401966,-39.921046474295,8.67263990374596,-0.327564546448584,96.8079211755147,-13.8234870366949,111.941726222312,-20.5011730269645,25.080854476415,-4.80791691719925,650.182934189571,220.788746083481,261.312064290893,-27.2566778201683,1933.2573381216,-327.185672078735,185.488022268798,1.40318930519291,824.580025435496,-40.8223010281837,606.841699882667,-67.9415441537102
3.51779499239482,3.25591613317469,33.849030048108,-0.211895155214129,9.4696669752888,-1.15288302954388,520.57386871685,9.5496486397672,883.802433473446,-33.5584500277283,0.34105402644157,2.25559337840958,97.552943024556,-13.1333708096874,105.567397228111,-23.4526727243608,23.9158091253217,-6.51416146791884,623.265074417535,219.152348553525,254.205579666146,-25.858092691355,1889.46195390118,-324.495284094441,179.167379208275,1.9925512794533,808.306063292297,-36.1567904508134,579.055012056577,-63.4356838753838
7.67813481929556,-1.19536417246688,36.8243186825224,-3.60159575972114,8.50697369569667,1.56288165830708,527.886848838608,3.78022275786125,883.295095613775,-33.3211854328281,1.43729723757995,1.51041924900293,87.8922086554635,-7.87529123062588,112.714713950349,-25.7195282763735,21.925464939219,-1.89409041781716,622.899329136125,222.61221333175,252.155979627606,-25.0620156179172,1878.20306254922,-313.394289039146,179.726668198336,2.5215703692148,812.946796073841,-35.8942747132851,589.04118860023,-65.2424954975192
2.26402637199574,0.0379225911653584,33.8423434779789,-0.935518751919395,7.10772697244805,1.52742597877593,519.742646266192,13.7534605364871,906.589488204021,-38.5976744261606,-1.17146814492396,3.70325323348105,89.9062339902363,-5.81662208602089,112.12577361961,-25.6338939753464,21.3050203218879,-4.82320422339951,636.645569848456,224.047766461469,258.730811115248,-26.037945300394,1937.00597816141,-330.10473418638,183.854614258631,1.01208751293782,822.652732529498,-40.0208752995844,604.654836872844,-69.1933513632956
3.46868311913504,0.968252845443427,35.9036469433761,1.27690746225938,0.207890772307553,6.36687730014393,515.773820737595,8.53982746072218,875.884029001675,-33.0167507565135,4.21278494967861,0.0264205855734141,98.5944555346911,-16.134446165107,101.423456535012,-19.6366083974195,19.7980171158612,-1.79870216835611,612.876218514501,220.058163609731,252.156077729486,-25.5329822673652,1858.4447934013,-312.629613007116,176.027253966427,3.43550326192172,806.40048041461,-36.7334749303039,576.72234835174,-63.4881564873592
1.47856112300262,4.34623782138413,34.3204432562653,0.339298529383022,3.02492265409817,5.69733604500894,519.833547601611,4.23030950357715,875.815254814257,-30.9530316132161,-0.37625488929841,2.61745595983287,106.196001967995,-20.7105569719921,108.072704120627,-25.0754166349378,24.037420669204,-3.88402000086965,617.087231288337,222.129154685706,250.250937234042,-24.3448257619194,1887.0095736631,-320.656417917708,178.351844167638,2.43708581030285,808.3617603116,-38.1643724314894,581.143188830524,-62.9548476991456
1.82177502870713,2.23613053251678,36.6796567743434,-1.42135031880633,6.75715108270345,1.46707842209651,506.078880781404,16.9502492919286,896.451742890196,-37.2376166092196,2.2326174344345,1.40236751429083,104.110062852264,-17.8144382089087,107.85086432833,-21.5967228134806,26.6786287596274,-5.21095415950905,632.575976189883,220.998653269559,253.405494082504,-24.9918406273182,1900.80720431221,-315.958974138161,179.976727346377,2.15292963338551,818.97680663505,-39.1970565174041,601.316573384235,-68.7733132387281
-1.06610733023512,4.60744174935343,24.1906396216264,8.61735197191098,-1.32079229351322,2.82862940762094,505.932626740764,14.6290312736064,884.865772677244,-34.8834962290926,-0.344899831277123,4.1909914441268,93.3348795680251,-12.4101799678436,102.757932679834,-18.9108280713372,23.9114869062694,-5.34599349194885,606.686841571108,221.66469495499,249.488008874354,-23.9472001307337,1846.96210624649,-310.16606473326,175.439602738444,2.43101426103848,800.990254298387,-34.6882801123608,567.469533199887,-60.9038537908728
-0.807594379998453,3.23151283415277,39.2109829711546,-3.05080135756185,5.85699646046132,-1.0324539601184,504.317412427575,6.95974386953174,864.094771591698,-30.7163142537445,5.15049650138741,-1.39893272912548,87.8584902278248,-10.9319912814313,101.407448772622,-21.2305871380786,20.3414927794886,-2.79272600192949,603.248086823538,222.153667397354,245.602463079306,-23.0721986247043,1850.7427369347,-306.615703812722,175.186984489353,2.44760810906373,797.653842255355,-34.4286249448906,571.397439777775,-62.1496723218935
8.7764999991119,-0.133491735908162,32.8531028962166,0.756859199043758,7.18621447865067,3.69938938860241,506.515891937143,12.566000409432,876.952314886553,-33.4599953666496,0.262465970814136,1.30184301559061,96.2606325119779,-12.9472450520395,105.566201599135,-22.3275152380438,16.5101092566677,-0.135774395707679,624.089743119448,219.035486386819,249.12547886644,-23.6212739414853,1898.45789342789,-319.606276053434,175.783314738215,3.07979673198783,811.888133347946,-36.9002948238664,588.412953940856,-64.9611829473907
4.6884314689994,0.112969415082765,37.2066369702242,-1.83771091518866,8.60724998249277,0.350695079239651,527.147392922501,5.19282559145393,894.318660257543,-34.4398303540152,-1.48194776849439,5.61285780512128,101.995347136566,-19.9646393637205,114.240105403438,-24.2433395759452,22.6082628654421,-7.46759924711429,626.997209958423,224.828617703587,252.0154094423,-24.7061707298119,1892.96629598799,-316.361762390273,178.827236200918,1.86044068718668,813.956312813538,-38.2302963382659,579.450033884231,-62.597015759557
3.44396906085698,3.38870786081186,38.8271263080425,-3.34362563714212,10.891541750297,-1.74771556770233,509.099940583505,8.74090581818579,858.052343884323,-29.1632208434632,2.53476460914454,0.0318467550543502,94.292855060322,-13.3397780884591,109.136192803949,-25.4230390113163,20.9184825217839,-3.8424260674211,602.1858074678,220.894824140351,245.456781249072,-23.4322686882576,1853.76256008865,-313.144988010282,175.349905875609,2.75706145660847,800.541568379913,-34.419541078518,567.178268395753,-60.7354139536729
5.87859323166405,0.0310145134272441,34.150721681107,5.70054952225127,10.8788688676364,-2.69265240440685,506.188019613461,18.301315884829,865.717549007153,-30.1459951421999,4.59216874118284,0.494468379798239,92.8428356979693,-7.77596977262234,109.340622700532,-28.1318781052748,20.761755680001,-2.45150569895987,606.191195195965,224.949080663054,245.563419056292,-22.1872946919199,1873.25515837984,-311.96505938465,176.198428545468,3.20408278152369,808.292323632438,-37.5573666193385,583.510814360867,-64.0099164807545
1.30656850162455,0.175471836977107,30.8242269912369,5.2054877140324,11.0630019438885,-1.53593734512437,515.662124555781,9.00932378484798,887.993174302097,-34.7019007737111,10.3031685377573,-2.64825357135742,96.5239474601027,-12.3784078660332,109.382491582299,-22.8857444547652,21.4811587820114,-4.73882845321086,625.661403859731,221.688465749548,250.071333550988,-23.4612782415059,1903.7912541917,-321.282491739378,178.750613326828,2.84175081301184,816.236313286809,-37.3517897697096,597.552370184762,-65.6880904192286
0.0918376950207108,2.02722621893616,30.9829920448336,2.0931005880612,3.59684590894497,1.05023380762053,502.768625740236,14.3357278551006,862.106008209404,-30.4135316449252,2.69329444695136,-0.202758799888272,95.3153580240592,-16.0590792767876,101.373622735649,-20.7155289889542,25.930878278366,-8.4320952599566,597.094357690309,223.01666557571,244.747498768057,-22.1952703783958,1833.47712831366,-298.050649441698,173.607998149935,3.85017229103304,806.649537612371,-37.8345683094659,571.464243193614,-62.8497320554272
4.8278043530629,0.361524698942667,30.6342832436497,2.28477980911285,11.3940091058166,-3.64575660857494,500.534278853439,16.0834705593193,861.303469146542,-27.0417815866087,4.83171360485348,0.0653180042068193,91.7612254238526,-12.7280910323321,103.837033976305,-18.245837775948,22.086342613575,-4.45634907002502,606.149891185495,222.290673117508,245.038326078279,-22.8659876424289,1868.95671321965,-311.824217814319,174.406349416181,3.65960582794296,804.194839575283,-36.7525546813761,577.175232140619,-61.0611194826095
7.11277798648281,-1.8325233033247,30.5777510108055,0.810765667102848,1.44933415740394,5.7605561510063,522.339432729067,10.6571228950445,883.366299286554,-31.2647284063263,4.10722720467116,0.577948091186513,92.8568336694001,-12.0071352123165,105.597364041959,-21.0964757398366,19.388914883205,-3.64636921436089,623.925578287651,222.318420980308,250.251689633084,-23.4807093453018,1911.09658275704,-322.376700199349,180.766309754823,1.48684257350692,818.909921105979,-38.9095962594541,598.313605913495,-67.2485824263441
7.36447797308673,-0.705437924013951,37.5539781052392,1.23671516339717,6.10527071672102,1.82358386458263,527.021009262812,1.16625725574463,901.423760839371,-34.0736728655418,3.62761060929404,1.89950247613588,100.536380946661,-13.6208245169556,107.324695571316,-21.8797784985165,23.436046021872,-5.1120981988375,621.904277055675,223.372137113168,250.75937373755,-23.112805834779,1894.04812033678,-317.556838711915,176.720812347193,2.38955429886731,812.958183687586,-36.1394219628715,576.202879745783,-61.5726983797776
-0.280874695191502,5.65191640831773,36.007714365371,4.35708487742408,10.1826485637025,-1.59360044146769,504.199456059191,12.8905054549308,863.369012647879,-27.1573428762692,3.97417162369103,-0.135880229424257,92.4434842498926,-14.4594989393931,104.486903990474,-19.5067033773335,20.606198012149,-3.14081309575845,600.495929287419,225.33078078289,245.010069202616,-21.2569524287497,1856.5786290534,-307.558534160092,176.389868144512,2.85489780738221,809.052597532223,-35.6494805294762,574.427867963422,-60.8132976150532
6.13245351313592,-0.284325955782343,29.5691532665396,2.26771584112192,1.32420446785396,4.4531070348978,498.808538781863,16.8575239452954,874.363735775979,-29.8099549614079,3.98006718601651,2.38702003951798,96.0837959434911,-15.9962546318596,114.784537857953,-25.5493173356188,12.518461548682,-1.72835075534987,612.570392993128,225.064989325876,249.308480146726,-24.0958166702071,1890.41625381287,-312.78016293062,176.95576354091,3.10113197299519,813.416756982423,-36.2174926430787,592.393366684682,-66.6559538522996
5.12924732624308,-1.45322464882391,22.2055908101426,9.05687790582955,0.158490506517554,4.3899150289411,534.994751562517,0.287473338421538,895.369239163582,-34.5142840926331,4.44509909561649,0.179101008831292,90.7273459945119,-9.32112786019194,109.133788049159,-24.7114118239481,19.0113514016931,-5.08710262684186,631.47377481808,224.46567164455,252.705395821478,-23.0624694881344,1940.48766521055,-330.78448192495,181.612677320359,2.19659990159318,823.220791330793,-36.1475796118292,610.240057443102,-68.5656170024465
-1.62209269524515,3.80737965777053,33.2237620031748,-2.19562017986025,7.18334781674446,0.805526869651869,513.983153874681,10.655366608809,874.478466020339,-31.7771722588435,4.12410326952027,-0.132682554545149,98.2559605708297,-14.231403741719,108.810151238839,-23.233842901427,24.2088744287269,-6.55457241560207,604.708553425559,220.925883772717,244.91813439864,-21.3962603856992,1862.80610488586,-313.679636636678,175.747129779506,3.24167830407356,809.154817278113,-35.6242296364309,574.543961564271,-62.236535231783
5.67557072794941,-1.59644149154651,27.5936158246135,5.42932350098071,3.78144741740716,-0.452299160940981,515.785149167792,8.58949791774711,870.272290840412,-29.1402170510287,5.31641261752397,-0.728529158357341,98.267127412817,-10.0569904605386,103.483094823473,-18.9410680775451,25.128947241478,-3.68640194013579,606.448708292453,222.232205088265,244.833190686949,-20.8795490087266,1871.29267304583,-307.551991384304,176.028393517204,4.04773497433554,809.885756763752,-34.984673507906,579.35681228385,-61.8603968738542
2.24641291299245,0.896414638265752,43.4818082285407,-3.31672680012764,0.302292201731608,5.01289746267194,517.423129691897,10.4977763693551,890.569650871719,-30.9754892608756,2.09787881941363,1.45505880779054,86.7678154064629,-9.03202231980347,106.082311574562,-24.9265165196137,18.7580638396378,-2.79781029643505,625.167250949241,224.21227710134,249.913577737383,-23.2206624222359,1911.10132961583,-318.23021351763,180.066595987959,2.3750230378407,824.965073544006,-39.019672775633,603.228458182214,-68.3458376391259
2.72966362060827,1.78373755369811,28.5963078727708,7.35486931811419,12.8787398102951,-2.05359652080439,526.221098062349,5.53682257606054,907.74592971377,-35.8398974338538,5.21735508103829,3.27101208575454,97.473253919765,-15.2123484690921,112.051191287483,-24.175115650519,18.8372769171245,-3.76956008807005,610.248542641792,226.805813663197,250.287972469925,-23.490621361237,1888.4244427917,-311.339560079914,175.865452774502,3.7584716457055,814.544284814126,-36.2947187506257,577.025398815893,-62.3471554796859
1.68456644603349,0.654694236070305,31.3120285536758,3.14213102425899,8.83333696785656,0.239962110135022,511.481823010013,14.3280591280832,881.550872347309,-31.4845234576696,4.62980985159686,0.42122481995531,94.3618453007595,-13.6328661503584,108.65869605485,-25.3250743263538,23.3453110051198,-5.75586930279358,611.161124390862,222.278029988661,248.020614669734,-22.7510542399832,1875.27916995562,-305.215877192193,176.433023743153,3.11630593740916,816.915442005228,-38.9846643787262,584.051191758981,-64.5343337432348
-1.63176769787418,2.7367828384261,36.1855359482288,-3.52760830661621,6.08361193960598,1.79144466968923,522.025725360281,11.5315742501097,890.13110364107,-32.6852343340663,-2.76520324906524,6.19799874053639,100.29827285665,-16.1018293521066,103.685913497537,-20.1150560328337,18.5562690972473,-2.85417284396988,619.191048157443,227.032976352069,251.659857120083,-23.5333936712129,1917.01003869767,-326.618515187109,179.439017902238,2.81761461813031,822.945417079639,-37.638989802071,603.84794434053,-67.1181841191583
4.86677453187318,3.2421758931309,32.2973932521208,0.611389616228025,0.332879277282273,5.86108993841695,527.317925605847,6.94777596972862,912.731086466572,-35.6450701693613,5.14578353142514,3.52166352876898,90.5241316640522,-15.4655529659177,107.328593807119,-24.0837603261906,31.0234135572712,-10.8989188393015,635.602853027742,224.208926068246,255.625604649356,-23.9741799741727,1956.08469282581,-338.611111373496,180.602217424639,2.85208680770023,829.550105002832,-39.2861454166273,609.692614267803,-68.4868022003516
1.06924538414693,1.53372673305459,23.9071212550518,5.68995281677136,7.41474899568513,1.13214134711074,511.530813757553,15.8669726653684,882.38365487375,-30.1947476294413,2.98166124219749,-0.609178872629826,94.6401506823442,-15.1504983231289,117.307720355256,-31.146508103262,26.8630121836817,-9.01955855058279,609.219624617354,223.984686876269,247.451564917074,-22.4968003233281,1871.3467965277,-305.204433273605,175.124433942691,4.80883482804611,813.040654763381,-37.2108550861306,582.011891086559,-62.2011016267925
7.12499312401329,-1.17652898714733,30.620087236545,2.12384783998727,10.0413700436557,-0.897747803904556,521.536249916824,9.88601891244211,889.899384054344,-34.0035626547664,4.16818507783651,2.11457005797055,92.3601451475045,-11.9311139318552,108.425422117736,-23.296819692528,21.5885119671568,-5.63064257322732,616.334052735722,225.583198100501,249.214964310683,-22.8799220911449,1904.03230138371,-317.317413148563,177.988971273471,3.31743853551245,816.110682838721,-35.7293965449691,595.726182748822,-66.0494808423574
4.5747558500399,0.0551034998975752,25.3063866417321,3.50780834962768,10.9179444170669,0.547819583839088,523.56204864805,11.5703124374595,913.296513407903,-37.8783867607803,4.34997841089539,1.05658053990219,94.1223802141229,-15.2071007894402,107.059806384735,-21.9756199536416,18.3419020063331,-1.89793870279637,633.025199866502,224.705245153058,253.228669709175,-22.648372385128,1931.68355059685,-324.946649883197,179.631587344156,3.24521762482327,829.386818535866,-41.2713124989718,615.706722902283,-71.209517273554
2.48130543587228,0.11045310176417,36.5830873311703,2.76426542857094,4.72041359373003,-0.444519075489434,516.719897529985,12.4565210604076,890.694062062549,-33.1260579659404,9.8852215398063,0.386565881316783,90.6009471475367,-11.1447636144374,102.602261988918,-19.865227654134,22.6336834143302,-3.23310843502954,606.186260381196,221.481831887497,248.54153165566,-23.1564644589821,1873.4127402377,-307.22902849197,173.945291312298,4.10536663228928,811.853579218084,-35.8639566573373,578.462759150751,-64.555661343113
1.44414386687732,1.13946571335446,28.9546053679649,5.39093228589573,7.66350563446543,2.62714939671897,509.313523214818,10.0323941846901,882.448219432865,-30.6756203330684,-0.228379564787593,2.71056910509571,95.0475459840693,-12.8057570183769,113.285043074093,-33.1375283695356,25.6508888738939,-2.86194659770949,608.212556103052,225.022978441015,246.186441555379,-22.451245552897,1870.7152042142,-308.402064825808,174.879214837466,4.21642052640203,808.417620281819,-34.3452615547335,583.683155243615,-64.1169787020067
0.281943072334244,1.94346452998874,34.9981992453576,-3.23728100306201,0.501738100545006,2.16555637394242,515.731722834778,12.8306935022297,897.756764550231,-32.8195311434152,3.68775543577781,1.43616374778511,94.6031296793498,-16.1872556109653,105.803460091828,-22.1550968144635,25.0914687429659,-6.62379621846439,621.054928499454,226.53511835507,250.805950947471,-23.1474325928012,1913.57446146565,-317.615614743318,178.716840983027,3.57074403658276,820.902010964467,-37.9450789900579,604.455623177698,-69.0590183241015
1.18166346736739,1.34328822522675,26.0013378806549,5.56953285070387,5.51825871900814,1.43482750688016,513.857103586612,18.4414709766599,915.566809764705,-36.2564213041888,1.07191636284379,1.61420877131098,100.514650590428,-19.0531812659442,108.064258246619,-20.8021631466416,18.8264205201345,-2.6831188322919,616.712713651227,224.67294517492,248.571041809778,-22.015218223083,1873.30264958797,-312.774480018817,176.803234615915,2.90875110002267,812.753044464763,-35.7609349032832,578.719459636914,-64.053615901366
9.09345646993407,-0.947620843814158,26.7704695693966,5.65318405178755,3.39149712070283,2.38077798456757,511.490257118335,13.8845659683814,888.555045303794,-33.5979742224508,0.82039687382402,2.74038620465211,94.8282283717796,-15.548258589446,108.759959688745,-20.6764184245982,18.2327601287508,-2.56922422120267,607.489599904417,224.659024618079,242.918212286234,-19.7592181447304,1875.41697872642,-315.033867802045,173.576351709119,3.58968175422588,812.869329657657,-38.5982247377738,583.739603342139,-65.4925385331733
5.22923933580524,-0.124080941645321,40.9112321395891,-1.37183428809016,6.0357535457084,0.708136434370382,518.430789987778,2.82743469269721,893.517750996484,-34.2345696248089,-0.441587073085199,4.34430173835244,93.3844749396117,-9.82428806952146,100.936228074972,-22.5595804147127,15.0422401690541,-1.34958941576297,620.101630024141,224.60607202394,250.010262811182,-23.0570600489316,1905.64125451657,-314.730478079082,176.597872180195,3.35357239302303,816.672736277854,-37.5854436769601,592.426923853808,-62.2933192811244
6.71174036550902,-0.409066115317055,36.7451156992632,2.77142134894518,9.95321019073111,-1.83893328518076,524.201931543192,8.33014769698563,914.70631433091,-36.4081819311636,1.12700941891284,0.85710472328275,92.3624779300656,-7.32634102181446,107.923417668542,-20.4572390471953,15.4070258135877,-1.68855449844475,629.581681836703,224.01105724361,248.931225495984,-22.4493521464348,1919.30624195747,-320.208934760266,175.727937291044,4.31307832126623,817.13107927441,-37.8463117741933,588.609394691645,-65.7172141523656
9.85955893721516,-2.98071045349287,34.0044583136749,-1.20372246946863,7.46090748215515,-0.130220347303404,511.855280872611,15.9419559594805,882.246511322252,-30.8890694166147,4.25753547314368,0.379571662386573,86.3380719423369,-6.77969672731336,102.917828311829,-19.3678443641013,17.3841771106704,-0.578497998901751,607.186356696235,225.098303611835,246.046010330994,-22.4047393988016,1888.01431908881,-320.646079889606,174.299060033299,3.70202516476194,807.156184976969,-33.8517009923245,583.945465190093,-67.596781993944
0.542626895744479,1.04243763262957,28.557235495759,6.71108662722839,8.01472986466433,-1.0988652336367,516.190481015619,6.77495234009472,889.885133302136,-32.1383187394897,2.38026757472921,0.804347363887231,88.4970226036569,-13.7528824871888,104.831334291063,-21.8536657980807,18.8695921627643,-3.31652122530006,616.594943580863,225.060385131831,245.265059664202,-21.3492654117273,1892.39455495366,-314.681345685779,176.263007920647,3.64102793287121,811.867109736303,-35.3057446448594,593.360629929486,-66.7152567332205
6.93632746134758,1.25976878582342,38.2257918757052,-0.916662882256091,12.1230626076642,-2.96866822639001,518.125991926283,13.417499284846,911.51225529726,-38.0904338091624,0.00364783805806236,2.57687567820312,103.655696220549,-17.8223991619794,107.153523513916,-23.3916959192437,19.5593174894264,-3.36613863729824,630.026682311835,225.5725470504,250.068049380059,-22.3297136529034,1941.98278492338,-335.32034773184,178.930024874675,3.9270887036277,822.293054012945,-37.9567558282967,610.472190366331,-69.8526558718822
2.75777616125563,0.77779734162325,32.0788775155045,2.55001770679782,7.66526555360886,-2.34091127849225,525.364426111495,0.302729544740846,876.714961234335,-32.1261481363023,-1.11791409069058,2.31919473835293,102.276381420635,-19.0843894998589,110.264575930919,-26.1613264072124,19.0848267523418,-1.18665124660546,599.86496709439,224.47948286337,244.148725775997,-22.5461588019059,1865.61695423319,-310.185572914499,172.003092781554,4.7794330316648,805.170636731037,-35.4998898635721,577.246167386009,-64.0846286439653
0.892742792355715,1.22658241118892,31.2473905979675,3.90914340529419,5.11485246402622,2.09768049911125,497.245797020286,18.7336909067942,879.87926941445,-32.4869426085087,2.57407221788285,0.566864628492072,94.8917154197001,-14.9647106680878,102.409904972963,-21.8157963974873,18.9896448166244,-3.78839806201017,610.540007200413,221.696935492509,242.250525376664,-21.4433594707704,1878.65164625611,-310.172307962909,172.829963867916,4.77044591499145,804.22378219837,-35.1589724978687,581.534742588493,-63.4907152967662
1.77892378105503,1.4382384892353,32.6281798645812,2.97977582888275,8.60013560966582,-0.305424780667763,508.233558807201,13.3889067668565,897.372597028464,-35.2530805510829,4.90827647351766,-0.686884980619101,96.1055989427049,-16.4610538284991,112.225892705289,-28.0014269404136,18.8133404904794,-1.42088178672206,624.584561432228,223.911632718844,246.515901800461,-21.8295258033012,1920.8749226274,-328.542539086291,177.307133807027,3.43354821072964,814.047335934336,-37.5186336924975,599.282917293221,-68.4498183694318
-2.31407928389143,4.56220385647359,30.5774250906029,5.98027650313275,4.06134150276033,0.879239168251083,517.652593919908,5.20765023884559,877.720472742507,-31.5165848553393,4.89770623379282,-0.575358265309901,94.828838957821,-16.4558320518694,96.6714472362289,-16.0937784201164,19.352697315387,-5.23057957906162,598.320874106377,222.425381375916,240.316249216553,-20.728471018021,1851.21807715675,-310.574836808611,170.51315790748,5.31362525583129,795.908778852024,-32.6690920158252,567.098423682581,-62.3329293126462
4.43427484540517,-1.15386403822149,26.0984417835439,4.38106658755454,9.4160462420207,-2.66840614835411,497.349251255754,17.4114180034532,866.666944142404,-28.8722281997353,1.43181393072039,1.21426315635822,105.8117940157,-16.4327756354001,105.773722729678,-25.217646313028,11.5366629760792,0.99830208138904,597.260912700312,223.749149331296,240.80192929862,-21.1762763725746,1835.66479601328,-297.170147082138,172.097814845141,5.07514759543242,799.274953040336,-34.4599525013638,571.658328240635,-62.252674623426
5.27112149010342,2.54251162101996,28.9999472305143,4.97136435246722,6.93936636743851,-1.15843935935824,503.902260875109,12.4206304385416,880.748398560064,-30.9115862322302,9.65773665263562,-2.15591939794078,101.92527110142,-20.7640336251718,104.893146296871,-23.2204275898529,21.5093387729458,-5.58918804095697,611.642527015792,227.098343855796,243.645770562049,-21.5473379197772,1883.55619647109,-317.72307234699,174.689250045204,4.53422787641296,811.049659725552,-36.3443314553773,588.25449690529,-66.1942885292553
-0.396346038184947,2.88106657624091,26.4396123103781,5.03107307605022,8.45234719852159,0.352285224282571,511.367815675715,14.5673105560804,900.830189151859,-34.9875437616783,7.81620227496644,-0.183188328346132,98.5123266105977,-19.6396892210913,106.035869462404,-21.0148716764139,20.8913604446803,-5.1241850506873,610.373900574453,227.737049672812,242.040178211099,-20.521722128399,1876.2961581406,-299.687645335927,173.788230892342,4.60700336135716,804.334214882281,-35.2132670787385,571.17119195627,-61.976818704089
2.07125603214851,4.15731920849756,23.6591151018904,7.59032603260081,3.65925695131999,5.36263011551893,515.567890834178,1.04488151603666,864.964379037982,-26.7425498731498,1.46615980681111,2.67948071810743,89.8403766521786,-11.7451776752651,96.4036285977849,-18.9167271438338,15.1011441240747,0.447048674411608,598.630488536439,224.169260633886,240.591975389902,-21.4145654457628,1882.36699131385,-328.072586691701,171.506999726513,5.18635879776322,801.00107453843,-35.2472261084505,571.027705511444,-62.5708284549636
4.80017914416911,2.19663841811254,30.0450698630593,3.8223424640038,1.02961007284193,2.49403678474651,511.736577481567,10.5309716260813,876.526196351351,-31.1276119848356,0.681604310048883,3.28022688848352,81.3144031158717,-2.24984735491576,106.210812590854,-24.679826769225,26.1197957685024,-7.1990488638632,611.558490402273,223.783282152759,244.252058850344,-22.5393516255318,1890.40529469483,-318.665833883396,173.910893776779,4.99578525694491,804.756846921992,-33.8120505859688,585.804629312534,-64.2834980043718
5.30817115350563,-1.11279718847405,35.6618994130441,1.89455899574467,5.46137839915235,2.5553352105438,521.048575957818,11.7312816914957,899.388788575731,-35.6829583837287,2.78509374038576,3.73238979016902,102.035070108355,-12.4831580521812,104.761633637063,-23.3063757264447,24.1630490238273,-4.95617178066021,625.800961142098,225.07371809906,247.90707240619,-22.5778994450013,1926.68120959904,-319.642761428524,177.896381313873,3.87395414287473,815.063389721035,-35.5586893780822,603.951385301631,-71.0001522485287
2.58471806338417,1.3254172792057,28.516270380869,1.03247370993802,6.62522460064089,1.27120029026835,509.745468236031,11.5972346471045,866.897047707734,-28.5276201171608,0.443841964112576,2.41923411240079,99.774905372438,-17.495232811296,105.451606186822,-22.6932514615759,20.0007205187475,-2.94437695176246,602.100279647281,222.434071158235,241.184133048553,-20.3481426697225,1872.07531691476,-313.757879890414,172.4082529056,5.24559139218302,803.256052030399,-35.2724770014959,572.793065165916,-62.418926188569
7.43618482163884,-1.84924260090508,34.0185387486866,2.88129886742499,3.22159019764928,2.05444405428885,510.462388345274,12.6090566902684,877.011375124324,-33.009510998116,-0.293567087781173,1.29388667196423,96.90583149685,-18.5841045260032,109.782393941307,-26.6437557461471,17.525484775304,0.769364723739812,607.192543455877,224.710420576911,243.023303728556,-21.5939744410606,1886.81149937659,-308.995800225182,173.66743394365,4.35424855320701,806.813724328805,-35.5670428106151,581.93766621423,-64.9152488804423
0.561524775880554,5.35614081903197,38.3887416207173,-2.12251281759225,11.2952818020361,-1.73275274927653,510.49444345726,12.5220284223217,896.36828707697,-34.5339510304704,-1.24777239874592,2.80951080176797,92.2635667704818,-12.527979551293,109.642663594032,-24.0152070233863,18.4888536398223,-1.73704836260329,624.05112825714,227.463726707571,246.276982996676,-20.2607758772185,1918.10219742102,-325.134035516975,178.943793220524,4.2815303750302,816.108817919617,-33.9033245063454,601.423511555431,-68.2531630953365
0.56465393295692,1.90433680966018,26.7998492887116,6.02242709453691,8.92797098403653,1.73617483568,512.319378564282,12.877003308882,895.80567904431,-32.0729384205838,3.30999214448518,1.37011046650493,90.7078086808515,-11.0500297180126,103.580961044231,-19.5536472882924,22.2005028095653,-4.59234838910611,603.767730881901,222.942101135754,246.050523469523,-22.05588662126,1869.02720944566,-307.060124336166,175.287974840218,4.46711640057457,805.898671383693,-34.0497364880147,569.477093830226,-61.9834911177269
3.1059177988649,0.828328013129623,34.5049146418785,0.741700378684924,13.3414832396718,-2.94834169939632,504.152255410291,18.0051838215404,876.153259512979,-32.481529694841,4.82028215662281,1.37137213268984,97.534907246385,-12.3591534679088,112.159171798641,-24.961981574412,13.4875345597484,2.12187921238464,603.38577945367,222.911839316475,245.002921368332,-21.6598105559321,1858.16130868038,-310.773188780122,175.031884928893,3.99254810070564,806.947077414954,-34.9135863213254,571.90835110005,-60.8017006183971
1.86256942589904,2.49952173139305,29.4864213889227,3.84938571048536,7.67003467438087,0.82573623760506,506.984749370413,15.9803424443902,891.389273659437,-33.1943645083745,1.76471729427972,1.35850531841967,91.2649709929844,-11.034500174493,107.019490081045,-25.5482580383389,18.867726196748,-3.56977553632588,618.465133784584,225.334262967075,246.740025896475,-21.5886896612004,1905.06184240325,-314.897097820119,177.582606848849,4.30670813753268,815.288002222646,-37.0466371753938,592.200866258229,-67.6672295509581
5.54602488586396,-0.0948911179552283,27.4283085435759,6.60205135818371,6.06643805588393,-0.58491503671078,525.711765777373,9.04301849242865,911.622678190756,-37.2097866747379,5.86755616696554,-0.425514399461834,101.403130678821,-18.4101875444177,108.763880964605,-20.8905963373927,16.9678022544057,-0.52939414768584,632.281840391632,226.579530859093,255.80024174438,-24.0361760790011,1936.60164252548,-329.004681163453,181.230819516083,3.57315822685546,825.347082261332,-36.8380561264734,605.986549936549,-69.4279581601819
-1.53586368675972,4.94050563937058,24.7951912075148,6.69894204146845,6.74524473289399,-0.0326479415973108,513.154689294255,8.16685982235382,881.259375745286,-31.9494319923295,-0.171869884868116,4.35716726978969,84.4453971627198,-6.44302996604532,109.725421045418,-23.9319803401149,20.9352686215597,-1.33829043713659,605.260314085023,224.936654301604,246.874157828566,-22.0090101421577,1877.8598122188,-309.588109981537,177.773289564768,4.22891226012527,809.151007253287,-34.3073671932464,578.675284247141,-65.3807271744546
-0.187250435843646,3.24201975661464,26.823802918296,7.22491164932534,-1.769398402078,7.34117550675452,511.152721937061,16.0358677453577,885.328790138585,-31.3577949661061,-0.0766276944881592,4.46789948390534,90.1352638016742,-7.14818794176314,110.538968685527,-26.2393234066157,13.6508733961144,0.479604408464294,612.936854141368,226.010518350525,249.092254366202,-21.7525294808716,1899.73279845156,-323.365759226582,178.383485457694,4.32446707095245,818.532211211613,-37.9192161709435,585.523168890133,-64.7515220864417
1.21280184758677,2.50150301087292,29.5131887437607,6.28174392582621,8.97264077114268,-2.23802365944974,529.646734587106,9.18040309280741,906.666105324888,-34.3466222819348,4.10557858048566,0.249606789399886,85.5934166674137,-7.87894519274869,110.865509988103,-23.7798409836879,20.3447817920722,-2.88319309047236,627.679956611992,226.67851421449,254.00454449868,-22.9401652025069,1943.28474584451,-328.380666755622,181.732297201748,3.5027549224421,824.113684802777,-37.3759757311755,604.990375636082,-69.2914009831084
8.41663048320948,-2.58933331377225,36.9775322967451,0.755183325787126,4.77203995380576,0.545503143390361,512.715586238001,10.270841761145,883.888112616694,-31.1029288585666,3.84579339695497,-0.17473317651615,94.9634899241972,-13.5334143592532,103.851214899419,-22.3911914107466,21.0113078805837,-5.65425503752083,605.764836264357,225.777171110585,250.102473445643,-22.6699366248911,1893.70337360272,-316.428884754666,177.911461751816,4.12762220628219,812.638688845973,-36.4198408386063,576.717770872212,-64.8245218279656
1.71082750219525,0.398231963349415,26.7062959165583,0.696544734786728,1.76999618512042,1.80319207297837,512.91931721095,16.1981981768754,888.764952757082,-33.7477637657612,-1.53946043561491,5.72852700176123,97.5616896899117,-13.3476376107478,98.457877917877,-19.7749948849925,22.3349484512021,-4.19949769546843,612.116404049291,226.302106218439,250.821011490148,-22.2353647956435,1898.56321361558,-320.35733761787,178.085551966761,4.4093934170951,813.179553281396,-34.3371560601171,585.087755261113,-65.6799696660103
3.55934749242566,2.76564112695903,38.9634653950095,-3.20210324642644,1.32467825266857,4.57203909731836,512.991723349784,14.8202001922252,908.874505242936,-37.4987373423195,1.71831497803181,0.687315584872009,101.452316695403,-14.2550474751357,99.8583876667333,-18.0104076603524,26.8590395750873,-7.17341529629125,625.932562995555,228.511273013185,255.885618398425,-23.505005816481,1941.63751743232,-329.079474858049,182.305593933825,3.64582023983392,829.002063398225,-40.0728745433115,604.704310590349,-70.6986262234643
6.07588808142934,0.759903507665863,38.5982937977159,0.974916937835472,6.28670902626726,2.23353399811437,538.814215236315,0.168312155454306,920.38134655985,-36.7423789074225,1.50096074650257,-0.145983607761528,90.788620597133,-14.6071622535689,109.342728332674,-23.4805501022728,28.8603921482254,-8.78392587407563,615.474081219183,224.522051072206,252.525815837398,-22.8686881382248,1886.57351198969,-308.839087897606,179.402078731675,3.4274373914892,817.091855283043,-36.2704257498831,573.435073895642,-62.6997203976079
0.0667340795337949,3.73902585563489,25.5946780945654,6.48647230908764,2.88692039030831,2.18966416931093,513.170264175261,17.0130863308071,892.887757892778,-35.4630902585963,-1.74162096498655,6.78145360587283,91.7025520136361,-11.645566103412,110.427221684064,-27.624767003388,23.1637032937095,-4.23838634807682,609.138800420313,224.84770005111,250.903045397071,-22.4767813114604,1899.54265256428,-324.345117546305,178.017939168581,4.57844061824348,815.854313760662,-38.1488367181017,573.088209327055,-62.93031730417
1.03900548459864,0.259128603998499,21.1223616467171,6.5663941843771,8.32152476705663,-0.81224164630382,520.607896801616,2.77547371788236,897.697615691403,-32.8116964334953,4.12650414693488,-0.875891170100254,105.678665034568,-19.4881194584912,113.789712867935,-27.7569896623103,19.7327941054327,-3.35797383332101,620.26884377254,229.589363617353,254.758459659124,-23.5983005488601,1927.67411890552,-326.012377157666,183.392170623233,2.82334095690745,821.819224601141,-37.3251279788512,590.856736195514,-65.5439443082653
-0.544894374138488,1.95064205085869,34.2036593758911,0.530185863453382,17.62354442061,-4.59892313138159,532.876974902427,9.40410003520063,917.480036585704,-36.7227926779494,-2.40741953328778,4.09128197194699,94.8414584467514,-15.6319804294381,111.171538840021,-26.7647934800459,24.0311252777876,-6.37007538386366,636.976349638029,228.642356484453,259.974767567145,-24.7858885529083,1968.74063500772,-341.366535821585,186.672358673165,2.36079406430423,834.127114616051,-40.8669601627346,607.497385050038,-71.2975881991692
4.01086540425228,1.08503865395184,29.9405980500374,0.204738121857469,9.01317454498972,-1.33936351067661,528.325774713628,4.85713702050213,888.290111138659,-33.7063930945448,0.217713608621862,1.89761756695334,97.2559126808094,-15.0784203006498,104.147463648098,-20.0205667154719,22.9180181972651,-5.50545903236964,609.515999194735,224.641551802561,252.117875837409,-22.9310497734699,1902.16966094356,-317.262532309206,181.127524643203,2.93867299527303,814.599369055415,-35.1339905683121,575.69090619664,-65.1697456745285
2.52996846083741,1.22224208797287,31.4883012656993,1.52650322697606,10.6250711812712,-2.98155504100533,523.285480088638,10.032983230628,893.527227854405,-34.758327917461,5.90207596954467,-0.513241784480974,93.3527600480343,-11.6867947170009,105.757145335288,-22.4069390849801,23.9176141738783,-4.88415118820887,620.157193424796,225.711487589987,254.647178254862,-23.9177499318237,1912.76699786443,-318.688968839311,182.910760041458,2.88278656811601,820.154358562766,-37.321821775886,582.518917697083,-65.1501277550005
7.10799780698511,-1.72919900058577,29.3878753613418,1.84305434371601,11.1818491305894,-1.26526710265061,529.173634442647,9.84239417584228,913.006063391592,-37.5430759545631,4.71551231049544,-0.590014845320447,92.0434877456685,-8.33065763720203,109.000342494922,-25.0300598975866,17.6811753318191,-3.55026471651491,634.667652525121,227.628055753623,260.489820842438,-25.2572645690254,1969.91703353261,-340.495642421584,185.526195644479,2.63197927680205,830.486131354888,-38.8662013898296,602.702546850087,-70.2847734683729
5.97146849802487,-0.39611652883671,27.6131941255911,9.30441187064059,11.7089077517417,-0.998200237165225,519.836596572391,8.60247724031088,901.889140307336,-35.7662199679144,2.33456913180458,2.1233690090253,98.8316073396525,-12.9831856317944,104.351611550747,-22.7654538185619,13.4413353587141,1.63535755496582,613.871587489799,224.58680671928,255.907383755261,-24.1266326423543,1910.43827783633,-316.678446828297,183.045108465275,2.06727610774422,818.526272191957,-36.6159004766277,567.662377216349,-62.0030089784638
0.319494865334015,3.26023311522794,27.9980989955324,5.59279946963899,5.01793093231034,4.41398701941909,517.182828994173,13.8955160457748,897.114325867759,-35.2615282083092,2.00705945639645,-0.11538483534086,98.1783283296063,-11.670652226175,110.594350219699,-28.9272620335493,21.2834965148548,-5.50653297733606,616.818629140728,225.489720091662,256.758442813512,-24.5218803851638,1919.62817557431,-323.768166287801,182.814399826253,2.57960066308835,819.665871443625,-36.4122773668579,577.82513667404,-65.4580735338328
4.05266980301859,1.29372564544381,38.1802622474592,-4.26263190385235,2.47535839765384,6.65724091224358,510.220702774673,19.7340392143428,913.508973001451,-36.5643872440995,-4.50368829047374,7.41327127260364,104.722873570592,-19.352254561972,115.796406573107,-27.7423593626592,27.1451407206139,-5.51051574596725,633.813373031404,226.222099144506,261.190018867469,-25.7488838011759,1961.17534502789,-334.175402654712,187.186839447003,2.09800737546639,833.296669895117,-41.7178536015549,597.595018668244,-70.1129473949584
