261.118959959196,12.7511247310681,548.081930468797,35.3226079566641,42.478661644086,-9.8917006248541,1205.70753540334,-123.623136664038,622.35408150532,-36.0872674794066,59.2546326758173,-8.18016077020845,307.802710974181,-30.5485439230159,975.458460294388,-152.760933529698,613.639785288194,-113.897985153636,833.397905408886,57.7556685908325,264.443467780649,-47.985075321141,717.825489936758,-177.445992210108,1613.14430720118,41.1952220293445,1925.50089602522,-203.932285894,343.316874637908,14.9170291314332
277.473368957574,6.0871919301089,542.593585171409,37.9141849829634,37.7598068593213,0.0421550464833873,1187.8741400098,-116.22758366533,618.519246174276,-36.7339091644613,64.2038539479413,-12.8947406877989,304.645626688907,-28.7690488273912,971.504403958364,-153.407516592123,622.181125086576,-119.5041788555,833.024697177731,52.9278515724636,257.489390307441,-35.9003351731965,702.977360758674,-175.009833157297,1594.56925067746,45.158461485705,1914.78075597315,-197.204327514862,343.245299888913,15.4100384419335
261.569127800037,12.7259591051366,538.536329740473,46.0599496150547,40.4735553919161,-6.59043057282524,1201.54074615958,-125.095076763336,620.983121373508,-34.8254974535483,59.4460980517458,-7.07859192092961,309.720334116109,-30.3175876683643,977.321730802908,-152.387698790209,630.575558035166,-124.576230217401,845.867165502568,56.3686413650766,262.36079774183,-37.9666295315391,704.457031995129,-170.033334706674,1620.26215601361,47.2842069347876,1913.42407044086,-198.214562023904,348.148928919396,14.6771614808881
265.731809479794,11.0929417848574,544.878773801219,45.5096471511186,41.0738911054894,-6.43005004397599,1221.00036373531,-131.98367545858,632.143024759146,-38.8158048674926,68.3318227095064,-15.6995146289794,312.410126314238,-31.0718599556454,980.763001050232,-153.108883102147,620.054465970283,-118.521717408915,855.796932053066,50.1124850723648,265.566191588035,-44.5336839291941,716.042770126807,-180.19028430036,1589.10005234288,52.8237539611127,1897.03489065771,-201.101792234402,344.554978914829,15.5088793942868
267.900411762176,5.86282035704996,528.802316817389,47.3280981840308,33.844802314492,-1.60758111814972,1211.37048268147,-129.454082648392,623.284138540238,-36.6966510751939,65.3931593758753,-9.59456745772525,309.855098810386,-31.4462791449114,973.16729827877,-152.025271609608,612.496041634441,-110.315730004779,835.401672214324,58.5744105012886,263.123643524977,-47.2151534216448,701.924143503067,-171.329023306406,1578.13868778347,51.0179229702333,1887.43096908242,-199.646703856682,343.867271206056,15.2866465345792
266.769575874971,11.5765047337799,558.434082116719,24.8878709107394,43.0104142999823,-7.22270686839164,1209.96709889261,-124.745903297563,624.448175786802,-37.3878473218991,63.63774864964,-12.8581053312289,312.225093893168,-31.5511084034433,982.266404840099,-155.922117101854,607.392969901354,-114.963814277534,849.594434012806,51.4540699444642,258.106288608099,-43.4957412466666,706.0286400746,-174.598580610544,1616.93798338498,45.2838365921352,1867.24684946402,-172.191848347866,348.654284068374,14.6678523581906
271.885100374131,6.157192303982,570.290243400176,34.0119818577024,48.3573052609359,-9.2655093477703,1225.46847818487,-129.028425309978,632.78900499553,-37.9172066659598,61.1459653919647,-9.45753160963814,314.17128980827,-29.9163705755572,997.515940784093,-157.51972526493,627.908762700268,-121.982411095687,865.451777869015,47.2336169041344,265.393286289823,-45.0251853514164,699.817761381027,-169.801245429668,1602.82790708016,50.6018169339747,1891.86439111458,-194.944341731594,348.949497096461,13.8802649406066
273.006546986266,9.97506710032642,548.488755989096,31.4067029050128,40.4498690790285,-4.93294786149878,1201.94328477216,-119.621875044013,623.409913435212,-37.1551953736096,58.9402978527982,-10.2592474555786,309.114541208177,-30.8941668587372,977.004427205192,-153.646062432305,607.635116794918,-110.554312983215,831.404222273748,58.9779697726372,254.699561635768,-35.7872691494381,697.182135886693,-173.865475157834,1586.75880063513,44.8259950189314,1870.48529487944,-180.449064858638,344.998458516022,14.1773378925731
263.798280389956,11.791071432167,537.980293419346,43.4746642782921,36.2879521192165,-5.43754686344166,1210.56268756997,-125.016604825875,625.784175896404,-37.0737001028806,63.103230251479,-11.7393416031855,308.849712334739,-28.9795896831931,983.901598692055,-156.380554788883,610.919215559679,-115.288354545354,847.345210151817,55.1742690945652,260.556873175866,-38.043010776553,697.419466849774,-167.457013728328,1597.21649673281,55.2741575445191,1876.91018252358,-184.783843185155,348.590232753596,13.9378078833371
272.122220156088,9.3399542869458,563.84217329131,33.7483547238033,42.2351167062504,-6.1328021485275,1230.02773702851,-125.932720399033,632.526606910782,-38.3417719250662,59.5141154528657,-9.43237311786062,315.192691348234,-30.9603032732304,995.51825853315,-158.706008430576,614.971984432633,-115.919245792905,863.930862954424,50.6069814023978,266.270650519625,-43.4668479051498,712.497743699765,-180.193206308779,1634.51836802283,39.7581043780873,1919.89208760098,-196.345629219802,354.101022362398,13.2676186687587
259.115094564031,17.1092189567055,561.807035135178,35.9258285602836,43.7035091995548,-8.54517319010142,1235.80842064953,-129.639287372546,631.845108532037,-38.20373962724,66.3056466777906,-12.303249301778,310.981934474444,-30.0855955654847,987.318838438393,-155.928745548925,618.19676010237,-117.751200701205,855.900562846922,58.6131660579074,268.753412362392,-47.7250786271142,702.169948825758,-170.718339111356,1577.19952159321,58.990658261737,1888.46063473172,-194.666377932739,348.248611905313,13.0626486918703
266.318976476425,10.1951466187875,558.569860204905,32.4566738113429,41.9687824496154,-3.03898064668241,1212.50582996726,-125.226215306457,626.506988439604,-37.6040055889132,56.6422356403308,-6.33952193820647,308.503806096299,-29.4628858190526,984.674748622092,-156.669551809241,612.447350303809,-114.090109054744,842.684781713614,51.3936286502501,251.342283458393,-36.3294124021885,699.841372328591,-172.554427514133,1595.52038050702,44.9945378748639,1897.04891679509,-191.078023530159,347.145096342926,13.9992037748631
263.184108116651,11.0515594894922,548.225993620267,42.3999996313378,36.0908574505151,-2.35287283128482,1208.43995709197,-122.668597321059,635.191529409989,-41.6494924389233,58.6085600199241,-11.017420103436,311.483166517328,-30.2038338643326,989.623805205256,-157.011418534067,621.026726333699,-116.855493397057,858.927472197164,56.2269360186902,255.202952330919,-37.8505737383821,709.94526758803,-175.934708758238,1622.815946421,38.8656450845591,1936.2910686321,-209.040894022121,352.56164369228,13.0168274766179
266.426733352094,8.7453354450643,565.767142895193,33.7010674403536,42.0884804194346,-7.25534053335539,1239.10191004095,-131.669285753671,639.475168755971,-41.2580279703388,64.9670415617367,-13.5693865870607,318.886164801513,-32.6584298866036,1003.00315537904,-159.646064010284,626.293946995042,-117.008533013535,874.288934080699,56.2951471289369,272.003398846349,-43.5089939503331,729.332599882894,-184.683241010261,1672.08940434536,39.242029311715,1956.3911478533,-202.174612226249,357.599869579069,12.3459033553471
268.508622018128,7.79994311576518,564.957748544841,32.6761547763853,43.5308052936314,-7.85276847285011,1228.99593249367,-140.435949323661,634.279601289603,-38.2883530765257,63.1902132855198,-11.2032948977394,312.273483307289,-30.9943103968691,986.145157523898,-156.678568787631,625.913810847682,-115.110368959754,852.87571573717,49.2967541837521,263.068586703462,-43.314877435744,715.01337643918,-171.268441533327,1622.30026167993,45.6174416599008,1919.44483344752,-192.461384397054,350.765545026821,12.7503889627798
265.534563283889,12.7138667965096,547.642061702908,44.1476263071407,43.8696612093524,-8.60642516018633,1228.52421137893,-130.909728963523,637.257583691659,-39.2964114516484,59.3906925959259,-9.2331882905104,308.407202383394,-28.831566998666,991.857694564304,-158.961507662513,626.019358821779,-118.054212039213,862.385907548461,46.6830408035135,265.96107185976,-42.4513836308981,721.23015603332,-182.658704226603,1621.18331301112,46.9847103526856,1932.82543491863,-197.96443826713,353.034115456153,13.1882478321941
269.999602824296,10.0250887985156,548.132346679683,43.2883421198023,31.5678680755118,-1.83110697063006,1222.48134169693,-122.141411779925,646.150193562436,-42.267051573871,57.940392585166,-8.92750545292966,315.281111674726,-31.8191337916312,1000.3966035846,-159.925092729676,631.50570398133,-124.375348843503,857.194190650882,55.6073419968443,264.578276224838,-40.0370159583759,721.274932441413,-180.15679984785,1657.22731142819,41.3248940017602,1957.2516938538,-205.019875121557,358.263367615559,12.2624673448339
267.764487133812,10.5393877532043,560.38970361776,41.1186983927882,43.0687691332136,-5.70310992352518,1225.59467150231,-123.607312280201,647.066183985641,-42.2622360656962,65.0162252949591,-12.1699751474475,313.654988434048,-30.6486342917863,992.901257094155,-156.625597107054,625.896270677331,-118.747633695018,859.156420062346,55.2128678697335,265.495158443434,-41.9876029304422,712.285507761974,-176.928502908168,1632.68192194856,40.9840860897803,1928.0729114415,-199.324035595419,352.36512995797,12.7175084560781
271.059385959379,8.52830523424142,553.559855195736,34.1749839741016,45.5092231696018,-8.56057609142211,1222.730456503,-132.468316134294,643.684081727208,-41.1970094477227,58.7234406206781,-12.54396156907,309.422785046618,-29.5947000282129,983.519370417775,-154.137958644227,620.728807393425,-117.112583592344,845.161189416701,52.8601838803583,268.824377757151,-44.2325083273016,717.338337968759,-178.486163311145,1625.69332765043,47.1940873626243,1924.09949424528,-191.876534622943,352.499186789212,12.9290304562325
262.183194136188,16.322649643518,554.11129036969,40.6822890878498,43.0750991613895,-4.23628485502109,1221.63880623645,-124.329434463642,651.53778542814,-43.061177705916,57.23071843677,-10.1054056409097,316.533673110722,-33.2871188685696,994.359525216696,-156.541858634595,627.546080435641,-118.425934046912,861.692915011686,62.1685969012313,263.937317182448,-41.4364408253983,724.716461401272,-176.62109457032,1644.76794969053,45.1126165284157,1932.77454457996,-200.3836771955,357.370896992199,12.0112928224382
273.25565904977,6.54297164366698,564.046714771436,39.3615206584751,47.5079441135643,-8.06690619239072,1237.85941963411,-131.610479102328,659.927330374536,-44.7811236619468,58.8133504594253,-9.58630964836073,320.172391932048,-33.0820907212371,1012.4081936096,-164.192534125098,642.587941672952,-128.346523658295,884.508311444118,56.0285769452747,276.823604222904,-47.9723806164368,725.103978447156,-176.643027245787,1670.36936580451,40.0361243929308,1958.93157790682,-208.858458681832,358.826282872604,11.9382862275724
263.954011748949,13.2392582422494,565.866572730972,35.0101604060521,38.6202997516879,-6.00100321345596,1227.59268004786,-131.651430176945,650.835168277151,-43.4635544361314,55.6870401662182,-8.69873978108733,310.522327126901,-30.427714503949,986.988305054728,-156.020917227451,615.038005762821,-112.792498318789,844.169684632455,60.0219512770577,276.206824791551,-47.6695177754564,716.316859502512,-176.441144343442,1627.38565041936,44.4257581626512,1917.53292822942,-195.663364419873,349.676911532841,13.41150960696
268.112812174041,10.3565892838511,559.766984530696,38.0941926357772,33.9944871928482,-0.638875499470477,1214.51182279817,-129.438056258248,649.198668465703,-41.2829845779904,55.5546147940185,-7.1472546981913,312.715068635256,-31.6414177909981,987.630983648266,-156.985263570806,608.351909703941,-113.988705815487,851.296553018105,59.4364827147627,275.474808565222,-49.9767069525502,729.008274020129,-183.38317472256,1643.84551198038,33.2801622320468,1932.69180825975,-202.193282388252,351.529689757023,13.4840291576641
267.768580439542,15.6347218972612,558.243578232912,43.7122184081213,44.8674321277512,-7.92905985663294,1215.96814221167,-123.924217325346,659.161717722285,-46.0209688244147,59.2612593032481,-9.28415695319299,316.295747906954,-32.7551907626882,998.932042859941,-159.42428287879,646.218290771355,-132.522334912771,866.677276498078,55.0453794729528,272.248123880481,-43.143493442706,721.091778348764,-180.034320428542,1666.05948247023,41.8568311703826,1958.54042550127,-212.143490807115,356.250939106752,13.0687771786091
277.402387434523,7.76248213575168,565.386282547663,33.9923313186018,45.8563216294597,-9.12533002879793,1233.26374090652,-129.474485841844,659.853772089766,-44.5362503950789,62.9919477191415,-10.5253335167746,315.359480952365,-31.1834569922423,996.475021256851,-158.227827732623,631.581439123428,-118.677767192859,854.713563618128,52.5389812233954,271.120906948555,-41.1809496761834,720.182458143331,-180.984428354491,1654.45190436755,37.6687028352241,1959.94671969158,-210.454415116642,349.775869416913,13.7221850718566
270.13245810788,12.7355795166382,545.777621552529,49.2037871195866,32.7548953375601,-0.480464012986619,1209.39972296137,-126.279436399656,654.448604369048,-45.1610332012841,55.6035386081851,-2.89228623787866,311.674814935659,-31.366320332399,984.646811639962,-154.35484901245,618.442233492896,-109.23072317002,834.89423724286,56.5748962250119,280.56650372947,-51.9054452058407,729.588257106073,-178.318900515269,1634.07987432847,48.8963401386134,1968.57550425401,-217.711481474311,348.476541331311,14.051693520193
269.080289245346,7.81804226131,561.707008206599,39.5044851961423,45.7258516087627,-10.8181408364064,1206.65058323637,-125.608150800555,653.134970930238,-42.9286022205639,57.8355163708083,-10.0315334929319,311.881740656605,-29.8813960422019,989.946204832698,-156.445940288393,639.725877426635,-125.895906321138,856.463288195734,58.3232381647273,280.236166480798,-51.1765017546813,727.119162362725,-182.107780715079,1668.27521044383,36.1973150521229,1948.79758468275,-195.720301396357,350.599266112275,14.4996254314779
269.569508578357,8.85813172763847,559.345618023266,40.2966075732213,36.031729684875,-1.18486268872256,1241.72033008819,-136.346109607689,662.979417407908,-45.6550174694659,59.7200483705444,-5.77811512240756,317.571171574005,-32.1250820224375,1005.51821632453,-160.061913038723,636.143631095116,-118.647353789796,868.760049250177,60.1757217058986,275.028966704906,-48.0564583201316,727.756290785842,-176.421012767641,1671.53018931071,43.6971985070138,1972.09411950956,-212.627377967952,351.237936665989,14.3561783613846
269.90511853601,7.80160849640085,564.535293056471,41.2325520409106,42.2551770714718,-5.9241883531092,1202.34733479815,-123.450641642459,656.415514058551,-44.3690583834059,56.4295343293544,-5.59999312890599,312.989463658424,-30.9156516434121,993.963111760299,-159.998523435246,628.019942965164,-120.101775029621,852.56686503727,56.0341799053271,276.181582639986,-47.9023396460468,719.483151008506,-184.322466220373,1647.14318628398,36.2633297083972,1933.6461794454,-201.985781016117,347.034272856886,15.0294787647241
262.524357396103,17.9337434933637,564.425245112561,38.6350472703213,28.879337965199,0.561948238961061,1187.90762090789,-112.887248282423,656.865753766222,-44.7772150322154,60.6793164757348,-6.81787237748342,312.630301621948,-30.9820064612828,996.343975522196,-158.470623031777,626.970721507534,-116.901026482817,853.231535574846,58.4207518644386,274.512425750497,-46.6236594529863,731.720315940878,-185.743603760163,1654.57282741396,42.8263500292668,1958.63656938107,-207.109339691376,348.993455148488,15.0253461995806
272.917584369567,8.15546845602663,573.663637315486,35.425739688786,39.9131941027514,-7.29102101321184,1227.70506929495,-130.658244467665,666.851586944932,-47.2759312633526,58.0709375808595,-7.74090380919744,317.131530734114,-31.4417957407486,1008.94288169845,-161.757225493222,633.755486494321,-122.790815846321,861.531863575929,63.0994277330444,269.226118219718,-40.3513622992755,738.015060590395,-182.548588389874,1702.80740884772,35.765259469423,1987.15231176088,-214.751057151062,354.442604626366,14.4820925269894
274.432583830522,8.1045289742513,557.992209331406,37.9888043318289,48.2101954159187,-8.99913841151776,1226.1204702618,-129.785258632181,662.3128541883,-43.8274908086096,69.1188862772028,-16.3645510405813,314.750191763551,-30.7665753875365,1000.0689065437,-160.634705207237,638.427973961034,-124.848212606346,840.352750394773,62.7543762997937,281.160900014204,-49.3357134073766,724.801869203386,-180.964250085535,1663.69935752979,35.5215589022074,1951.56947908413,-214.673352643482,345.17908237059,15.3771305218644
265.708248193958,11.8536130581503,562.153016055442,37.8024048210618,42.2249818373914,-6.93387085608312,1206.08345935113,-126.305716140207,662.113788676755,-46.7794930246383,58.1366529468419,-7.55122969137165,313.084667762869,-30.0365196994598,995.53351798722,-160.493027399854,623.575902600116,-118.296928732955,825.219662485417,73.0448745990108,280.536209303701,-47.7750750144892,725.824734297928,-176.656675299686,1656.87040018215,38.5947432095049,1922.17072597761,-197.701560998983,345.587215737763,15.4145278377434
264.338137985903,12.2065153502613,571.435623521171,34.7051094582596,39.5251792915252,-3.81168508254899,1207.74869496123,-130.50283595197,665.653872633766,-47.6261234922054,64.6423400460935,-10.5010638144108,319.180973827493,-33.4116581457548,1001.46079523232,-160.176025667779,630.863201650454,-120.305009332915,854.023226484693,61.3758406300702,269.404143907278,-44.3115370993063,728.137239055224,-181.396935882151,1673.38287224152,37.3166671347972,1981.74260023052,-220.996860385006,348.623282688615,15.4824426280496
274.792597748908,9.33184470585619,571.884999321551,36.6448227066744,45.2979033674614,-6.50759981103135,1230.14343358628,-135.328532888999,672.262590992846,-48.5088652268109,62.8087701794203,-11.7229219831206,320.978788162152,-32.8292965828173,1016.94102888063,-165.011499619536,638.849976477072,-120.564836024643,862.724942751209,59.1611221359899,287.080740858646,-51.6987577326348,738.956303791045,-182.464203484578,1688.84209881191,31.1971208271096,1991.12778608271,-233.159036822221,346.097915328326,15.8493803745271
265.413723351079,10.1681116603124,557.03033147216,42.9040629630043,36.1233109307665,-3.58496262383017,1200.13691347152,-124.547875624872,663.619762918955,-49.0166356287807,65.9998492917816,-12.8213645685534,313.095285875232,-30.3287984964101,994.535251870671,-158.715755056205,633.942961922029,-116.566471138326,848.749303035753,54.6589928147269,272.1584322369,-47.5081063015144,732.704684621691,-182.737099028294,1673.4366568802,28.0630039007308,1949.51113514093,-200.390321276318,341.724488356536,16.3036580234877
271.492499622672,10.3481493006705,567.226868813941,32.5957996726946,43.3579525889281,-7.23754935519171,1214.07618869661,-133.623698717203,662.396765158528,-48.4932380697969,51.2366448178875,-5.77467563352148,315.08160203814,-31.6991193634445,995.775460198964,-158.935473216471,647.069407752214,-127.091274845102,851.317468350738,53.0261418175167,279.340231493014,-45.9952466839235,729.607173993609,-188.327083263198,1690.98426420238,26.5997602997003,1964.42859110269,-205.609683927056,343.130078325559,17.1249442367917
271.079930873544,10.6122883232095,558.588818235223,41.4106428597772,32.5888158847869,-1.81013527576731,1216.7236541956,-119.675925921539,669.222151643354,-51.0536662065573,60.476470190917,-8.4901423809317,315.461666395751,-30.467980343099,1001.15905005318,-158.708369695555,629.83014695369,-122.981011008121,873.872895883852,61.1955869512432,282.84028164106,-49.4057557476495,744.004718496597,-189.041255051604,1722.963018245,24.0852254206741,1997.73375375875,-224.004744339801,346.609327872042,16.6321777630381
264.309817881133,14.7689224799094,582.618433944247,28.5560388782908,41.6919003668304,-6.24396296341253,1214.70156810656,-123.23839005463,660.746336959347,-45.6373949617457,62.4313557930275,-9.21391607762408,314.265885148066,-31.1419079991673,994.067464092385,-159.794158677947,640.266031211499,-126.639224832714,840.627355990424,62.4097526754059,267.534777163664,-40.4900761836801,717.386226412753,-180.43381558454,1672.772951243,38.2794178589695,1951.58818744168,-203.775097350866,338.688420432509,17.5078004688596
267.699101239842,11.4635124307608,576.356895663061,36.9757788764393,46.1666819873822,-8.68367693084274,1209.7649548211,-130.953397384682,661.155512954796,-47.0121610600679,69.6389209912992,-15.3844267017853,316.192923226058,-31.5396764453862,992.730758706199,-156.255226696503,644.741846826495,-129.18417806872,851.635591176524,58.7962614346112,271.416239063852,-40.6397735607504,719.372435440539,-182.450853065404,1667.70631651991,37.1608135040372,1967.38769761407,-217.526417118318,340.209438629695,17.6198135442738
268.373065205699,14.5428630915049,576.403209014563,34.2193869636483,40.0727678250461,-6.96059626088456,1223.92589737056,-119.632106413018,664.431957232488,-47.8539160335137,59.3319852949171,-9.67215319322476,316.741317915927,-31.2077052204003,1003.91506898828,-161.207278972375,635.27438552127,-121.545826275666,873.700844737862,51.1293387505392,280.008910663555,-50.9429504214542,737.537483061788,-187.07838872877,1699.13221511329,30.2785675477421,1980.98066654476,-223.336213061356,343.926285689213,17.0435925559839
272.758492671744,9.6709068214884,570.531668788881,35.3968600213359,39.68665842319,-5.93350963514573,1228.28814017573,-125.166497122523,666.010584511543,-48.8503142313199,62.6415456549431,-9.29550061716638,318.195540144531,-32.9096515752389,1000.02934425245,-158.178910011366,617.078741760123,-113.674165230343,854.185103403417,52.7750103804643,272.289387606928,-39.6185005264347,719.08512146596,-175.051207660574,1697.35788683968,21.6589797219616,1959.43102960519,-213.846716161566,338.839099523586,16.8374924630223
266.530462608144,12.3816595045062,584.030701486325,25.6643144264307,45.0390859940746,-7.38528690526234,1221.5192483309,-125.428043814061,660.035981959382,-46.6665653906858,59.6270229967105,-9.88988243958001,314.012684850256,-31.1714919772529,991.098689075019,-157.577152810667,625.458932068957,-117.871418823409,846.414699377747,54.5703068650109,284.301955812931,-51.9709783482806,715.287886528393,-174.919979418752,1673.03580078663,32.4206079820671,1957.53832532192,-217.766841805938,335.897550852809,18.2468331015666
268.378778220434,12.3540151830525,563.161123286102,34.9477329446988,44.3831049211744,-8.27203354324791,1237.85581980382,-137.438845749957,660.818029550308,-45.352161514194,58.0133546230467,-6.65389233418269,315.942070205595,-32.2358081721589,992.886519599618,-157.846023455372,636.517122317572,-123.856578262907,850.590832859551,63.2583255969811,278.709310555147,-46.3201507122251,719.065013542561,-179.047052397778,1694.09078772391,26.4899450080304,1936.41107368015,-205.346741670777,338.923923514013,17.5952433999154
269.763819303514,10.412815652309,575.157344846419,33.1558927646037,42.7315332664176,-6.47857178918829,1239.1962207865,-136.203606679475,669.391263701557,-49.8262983935934,58.5523646212437,-7.12085249988986,319.417683072502,-32.7466544898594,1008.84075696629,-162.857289767528,638.261377609909,-125.788750431421,875.155536034753,54.283565043572,275.143041008131,-45.2525943580967,724.603634904084,-181.678181035568,1722.33525030721,20.5711717041886,1985.03674179146,-220.238568481265,344.732634897722,17.115226883364
276.499898247306,8.3185882856139,582.966102791366,26.3740897395593,38.7848126498555,-4.2165819676395,1251.72461980881,-140.833770415628,662.844295333723,-47.6695887636028,59.9943530249023,-8.61427121931688,317.535066583678,-32.793581495688,991.747373592383,-158.386775766624,617.897697567854,-109.859840045826,843.096402747143,61.7914568039716,275.86518550678,-47.0354834636573,723.561050018207,-185.188149374357,1677.85459903775,28.5332333248724,1962.0757812628,-213.319896147575,336.329184059666,17.1720209842735
268.184269290281,15.2435231021534,568.629640423527,32.7607506212853,40.3882530865136,-4.49968919746476,1234.2301075351,-137.153354354953,656.940415203453,-46.964003524349,59.7508509166996,-10.2363354180639,315.405905581347,-32.0546241658366,986.266035193479,-155.11667543902,622.463748677287,-117.20893589075,866.087547766593,48.9421229948697,278.933837520019,-46.6340365441613,734.474638829202,-182.492798808902,1687.14731086567,33.4979989537476,1939.50299196476,-194.212542868015,337.252569774641,17.882423096013
262.593609203022,13.9908486701441,569.95360724157,44.0529153998965,40.4312590611476,-3.30445691389841,1224.63706671084,-122.375074088529,665.638140626771,-50.3436087423397,61.0014472711599,-10.0807795247974,319.842771998014,-33.0472522469147,1003.17393938735,-161.069915245187,642.305712305352,-127.110988780126,873.092468507885,56.8139328593002,280.98628649943,-45.8261220843921,736.006060437604,-191.532424920036,1729.44967323889,16.1455422068151,1972.09657262587,-211.122824883664,342.211592919065,16.9531117669249
268.203866997397,12.5155854313652,574.288562127775,36.3316647950423,41.3662436565961,-3.47997316706882,1248.9075337712,-130.820640008653,669.466142707815,-49.4022119314042,52.6856049566911,-4.03667455366349,319.635672792258,-32.1529564010522,1003.79327730192,-159.944740853739,634.702875998483,-121.626591512578,872.634591956664,56.998605321066,279.597227942605,-48.1500446092517,720.905261781074,-178.328975860248,1699.96919389879,24.9099775676222,1973.50219109251,-206.691312268362,339.777955593265,17.0800281195547
266.58481008098,10.5630529729324,565.11535714294,41.6129986427963,40.6439449286358,-3.99114735191326,1235.25494567933,-131.44177434233,662.93398130915,-46.10349176347,63.1125962959341,-15.381169375175,317.637796094144,-33.4160354838579,995.290422191195,-158.577663045095,625.45189717567,-122.770031387218,867.970437960384,48.5131806703235,282.996719965233,-54.4867194091881,724.566407566588,-180.078803712853,1684.07184214624,41.8906040347393,1952.9760001267,-208.791174120168,338.821861417882,16.951081807065
273.435181208479,7.7995179893436,571.674764068297,38.5005444596352,41.0452755151948,-5.33945868602149,1228.96071981722,-122.672956873141,666.318629000324,-48.3037239241705,61.5583483843127,-13.1755044957487,319.280616281202,-32.9588337799868,1000.69068676427,-160.031278488586,629.209547430006,-120.407050781553,893.108408430969,39.9072308928602,283.879893475655,-48.9996825053337,721.466855644887,-181.332172477737,1706.95074434131,25.9575021243092,1939.30939394066,-187.43246182231,343.725151290183,16.1233655599801
264.527557772079,18.1705312053569,582.862622328468,29.9002066497526,42.3977544071239,-4.87952152612488,1256.86346288768,-129.574826214093,676.465344748898,-51.4054259772535,61.2343894578906,-9.5638699071691,325.225295580218,-34.3107746803967,1015.11290913872,-163.780411041918,644.508810056492,-130.848002969196,914.340086500734,35.5822198940739,283.173936102236,-51.0317206589748,736.333997275829,-187.611426850948,1758.14691124884,14.046509245695,1981.83025045633,-215.635043475243,350.281410826016,14.1765458746985
261.792609263517,13.9212935912702,579.971980925351,34.5278130305847,40.2564312136508,-5.21013187468848,1238.45205574723,-132.161816361655,669.992000105048,-51.2038522024405,62.0323628696728,-10.3237897734748,319.579496357044,-33.511331612198,997.33676711951,-158.5682662466,627.694179905273,-120.600586012687,885.15714878386,39.7698636210483,279.024833447361,-52.0911615985731,713.660467449173,-175.815692277979,1700.54488116783,15.9788354505774,1946.2304989549,-209.620235642432,341.411874793974,15.4328038729346
274.225677760688,7.31394634074023,570.871999269985,33.6902308871654,38.2150695004053,-3.33918652463698,1237.61183956957,-133.208303911303,670.253730922488,-50.4134700114379,53.7426809908118,-8.25538587931452,317.839436747833,-32.3082472009696,997.651835908076,-158.988677206258,625.83612341774,-116.016869164938,876.426342899803,55.7670654855335,274.173602360456,-43.2427533301121,722.528803553637,-181.822438851794,1703.18310173608,22.91017230166,1941.1670563281,-212.087564969513,344.142845983034,15.364110314548
275.205140147449,7.00366025303806,587.387975253853,28.2532870739018,33.7982375739502,-1.76330293219316,1237.10547417848,-128.437724088944,671.563241898028,-49.4405764887183,58.6385519525042,-6.55955985622157,322.051706216339,-33.5916522490322,1007.07053019017,-160.51146135383,618.995033363521,-113.414742630987,894.774333535861,50.800169687238,290.328311453676,-52.9408138784254,711.114790302998,-175.565722526694,1723.15137978569,26.5057799409368,1945.11622479197,-200.688561645505,349.913791523828,14.2733637205337
267.158361012553,16.0157971994941,593.394247247396,22.8925975806569,43.480936949148,-5.51691044279908,1253.68329612379,-132.822247321603,675.584799710554,-49.8336071358292,59.701136479771,-10.9865549293773,323.273243024496,-34.7478017471936,1011.97238614979,-163.483012444447,631.4752737475,-115.180902962647,886.892514470956,46.6308415783276,285.762287042946,-50.644614815098,721.534918950056,-183.443922515741,1697.5682480785,27.0941583392851,1941.73004395253,-209.266926569034,345.236867186031,14.2745970936243
268.592669751893,9.11427606199605,580.848713382375,33.5022331336644,42.7070217142551,-6.43256998310628,1233.3474162148,-132.219311919725,666.343644830464,-47.7172347827974,61.0840457490203,-7.21758601348166,318.181164981469,-32.5060753987599,999.436105323343,-160.055621330941,633.4426000752,-124.579966895915,870.335672078576,54.2399664397755,270.758157088136,-43.8164324284663,729.029194650158,-180.717628042241,1692.12797891245,22.5955213901322,1968.78334078469,-214.879962476743,344.317294012548,14.4697658778695
269.443836141054,11.0785692938987,571.360313427601,37.5488126147736,35.3661289482968,-1.72398984224152,1227.39017311627,-124.558114784754,670.839848996251,-49.4680066986666,61.1031920646831,-13.6597446348047,322.231575559755,-33.0069801365067,1010.16716363801,-163.495169414465,626.265897686298,-114.755012693137,894.002409805821,41.5376671830663,287.722359056717,-53.9434676928691,744.375262903261,-189.301951940606,1737.44358718009,22.3457479037694,1979.61652557939,-213.221591494299,348.632062906939,14.4263801118705
268.170020389646,11.8706645707276,585.524197823282,26.7322630593066,43.8841525544185,-6.65830236861824,1241.41574832926,-125.984698068584,681.401246561266,-53.3038077652735,60.877093966945,-11.9223762053858,325.075519255629,-34.2712499403474,1022.73420643566,-166.38037209863,626.726425338577,-116.141368314429,905.52201489968,42.3367503355868,281.250735061691,-48.0971995504153,750.693424726484,-195.205770146674,1738.76433480989,26.0874905396718,2002.17064271663,-213.686789378976,350.057867273814,13.7068897834864
258.350270372132,16.258878867369,577.717703400737,32.5099558962727,36.7518758046882,-5.37542628484179,1229.74084727684,-126.181358720636,672.958975620369,-50.4343181270914,61.6168354485645,-9.51184825245793,321.465684076465,-34.2534512920756,1003.42829275683,-161.198958103626,631.755113586481,-117.942957070679,886.748332839265,51.0437306251978,278.851770407134,-42.7936331163018,732.383843690178,-181.452595213799,1699.4692347557,37.2129733931169,1973.1540877378,-210.486706299665,346.575691944312,13.6376890778019
270.677776430051,9.06704691865418,574.088414529672,33.1141191959893,47.707761200318,-9.46700431514553,1238.34866498515,-134.848925676214,671.804482966765,-50.9919545735975,57.2010189088515,-8.24620635449106,321.78401456269,-33.7984802474186,1012.34513207471,-164.752899932163,634.63264707464,-123.55311814718,896.304109699872,45.4956342646902,276.409799996292,-47.3105826598741,723.457164402578,-177.297412683086,1741.53861874465,15.9404168567271,1983.48923827991,-216.367554750743,349.295360967483,13.4723921831804
276.356700435562,7.12752296614177,574.741146378184,30.6233881141973,42.8806295350349,-8.11231676455268,1241.96581615425,-130.399764599144,678.114794833597,-50.8880867261876,55.8706198184729,-7.50539000854162,324.802669928514,-33.7208941517477,1021.54951251586,-164.87325191763,634.846271409565,-124.184788501929,903.724330107399,50.4599193110024,284.187186467659,-48.472942215753,737.739824682046,-184.523901305336,1749.2065386189,18.6033737518569,1992.91546416494,-216.202401884691,354.498844552346,12.6333197201837
258.322861859874,17.917409211663,581.132727198632,32.9258682389913,44.7287193770945,-9.64988277896927,1250.74240737704,-144.905863348903,671.253105361195,-49.9973409576952,70.539260908755,-15.3265322379287,319.509759073444,-31.5436606028773,1005.87673271591,-162.870862951206,635.075567182182,-120.725138185938,884.669071631745,47.2866990133851,280.338749964364,-50.9457648458433,726.136365122256,-179.851131717426,1715.99380425084,13.9983676797474,1951.64781957977,-205.660107072045,345.905896513619,13.3862093532485
255.034899030795,17.2328675203058,580.49950522494,27.5031789478825,38.2148748532366,-6.6615977782255,1232.00803898673,-134.595246100806,670.692902268737,-49.5361711834733,57.2798011340709,-11.2596929369852,319.315247918528,-33.0529345520143,1000.58725356412,-159.287608171995,627.506771270399,-117.452513151582,876.633264765289,55.9769129583283,290.926429737608,-53.1399743018006,715.96516656928,-174.416036592622,1708.46364980431,13.3546393917058,1940.09372818368,-197.617871029808,348.081892142699,13.5221659491301
263.37431669363,16.44498611651,589.478791695949,23.6292071778205,45.0226633830687,-7.75409246070836,1229.52236536376,-135.952724028852,673.303019251548,-51.5807539918952,58.4781699134784,-9.25165189104096,319.543868358602,-32.0834719527625,1006.0414948714,-159.474085665419,635.388823159813,-120.658000910834,894.894294222093,50.5788856211084,284.637149456252,-48.3327518259112,739.264628619933,-190.473949010446,1730.70149041213,23.9464540011883,1981.01712441731,-214.537735245197,350.859215589628,13.0632472170597
265.335840702784,13.9117833137989,569.937478546084,37.2505222003558,34.0010963813312,-2.22474548378424,1231.87691804542,-134.627615246343,670.568202218309,-48.5508044012006,57.4280597049191,-8.82327356706686,323.278825567513,-34.7196225309061,1003.30465512841,-161.643027793188,636.232444086053,-122.1310108274,887.98623146868,39.2523351415879,284.576813064998,-46.8014898865718,730.814707174912,-192.382152122248,1671.70843199685,30.7480060928307,1945.14575171298,-206.556064592476,344.367745290736,13.1934442644395
271.2371997036,13.0155814653572,573.750966266759,23.4059442985653,47.2043898256999,-10.069869385895,1228.11749988368,-140.35381483935,666.481523929637,-48.6884800553094,60.7508979501987,-8.26613452261469,314.263152630065,-31.5370558775209,990.249418396916,-159.103132027872,622.734491199655,-116.602465078432,863.08447347767,51.0404098577406,272.773490478901,-44.2521634069493,719.984662765137,-179.915998884404,1695.06096164709,20.5124717658974,1943.45477662693,-215.019284198568,343.374607431915,14.1927485455314
266.298720797792,8.51901046595288,554.427336364931,39.2657165242634,37.9514756458487,-1.86270705264657,1228.79061891539,-133.796719901214,664.777291226813,-49.4181938234918,56.3369675383596,-7.72460627206619,319.015737308592,-33.1843149537171,998.17641571917,-160.260867608988,632.63731381872,-121.263202146164,873.23134304657,59.3050213320323,282.27239745782,-48.5763724832916,717.013960546922,-177.614910291941,1712.64495594005,25.621016877776,1960.97838988617,-211.872545726547,346.13193880797,14.1430065333991
276.273622425137,9.53360911636322,569.876692666999,40.0099533898498,46.071781723317,-10.6389090326982,1241.99283859352,-134.365280563262,669.695691981189,-48.5032388177068,47.7341798417381,-3.25820086091127,321.000992036539,-32.4420600327969,1008.32090966464,-162.565130669807,635.063527987576,-117.901136075802,906.012402923126,41.5833393919626,284.943669706454,-53.804888513615,720.54783094188,-172.853963823134,1733.37947226951,17.4108877315499,1999.01869624314,-213.070608771679,344.331742511135,14.8484440842928
273.59107213038,7.58802620588975,572.393490063836,27.6842592374893,49.3279234227697,-13.4042247430573,1215.9320069841,-128.202318849894,660.941642360911,-48.6391846952535,53.5937525075041,-10.1726483221198,313.964618771293,-31.503341049039,986.151212608935,-157.262267219182,619.159802678333,-119.343471105194,878.078672337194,40.0587474860987,275.014726617053,-47.8839713430566,726.748565550505,-183.698960522166,1684.25497226858,31.497764001187,1967.39237023348,-195.506143382673,340.520911202214,15.4664167734367
275.19646246965,8.16358755487194,552.544217782108,41.9548189120639,40.6314021854215,-7.44766854230449,1222.16156862412,-126.538865085677,659.439514352152,-48.2781145603573,58.210375234277,-12.4687392394353,315.656216519718,-31.9442543871692,990.869506430297,-158.52240808127,633.577780626164,-120.692139233109,869.444690865245,51.1221349837095,270.235912142306,-46.8256678628813,721.589624518059,-178.018535197992,1715.49359073877,24.5541112180184,1990.01409189244,-206.589115972811,344.166055565415,14.8487422046639
279.545927154671,7.72183542693477,575.779208445122,29.7236689978324,47.9747500700615,-11.6391336058572,1237.34778045937,-136.000694683499,661.904682341234,-47.4534223166869,56.405282988606,-9.05039892320496,320.785928016798,-33.4162184409942,1001.38114451308,-161.557329416263,634.060823249234,-119.431710981968,891.789775845189,46.9078970327483,278.665675470098,-46.9033913648096,730.463832551489,-181.344254536095,1726.04552079706,26.2125060518442,2016.11115443842,-228.789947219393,347.121074214628,14.2480785441743
264.761661245817,12.0442580106318,577.860163451304,36.7365202140565,38.8461331659106,-5.36268246317532,1223.81040854538,-133.174040747958,658.346009557439,-46.252216010906,55.1554840687506,-7.59557017011954,316.888452448532,-32.3854840148347,987.615525995176,-158.38260810667,624.140923964458,-117.949361186462,858.434893945032,49.3028029484512,275.170358135001,-46.2948857338456,716.570072625799,-180.620011498601,1693.92812215872,29.846644843682,1989.47797936194,-219.776932110073,340.669091094251,14.9904464699213
265.362298971376,15.1826690649024,564.505494293716,38.052363139797,42.7227904146535,-9.29775119845741,1224.48156302959,-130.781560692196,655.280916981946,-45.9452531996163,65.1945234855634,-10.3100557641451,316.919636044583,-31.6316297205344,990.541206121643,-159.227449357056,635.58623601004,-120.983006633202,855.376436545943,62.9372731775476,282.976117908378,-51.4967027467216,723.726301212941,-183.461960545281,1690.78687716547,30.7887260899296,1982.10572357136,-222.230387017031,342.810352488171,15.6127481866755
266.277706209576,13.4071897505736,565.303781113053,37.6436854609578,43.5591064988582,-6.91699428892033,1234.59387425366,-133.46302718596,660.50507536451,-47.8424088203604,60.0325407162182,-13.1156406695418,318.449080300899,-31.9941340648751,1002.71717410305,-160.113819696089,632.649812896103,-122.019767404363,886.570378798037,48.8033594138248,274.791590302491,-44.44002138326,728.476819331064,-182.801936977919,1709.69769057356,32.6933240386901,1984.64104525186,-214.803875845986,348.358269016533,14.066432317204
267.162115898616,10.6331598550241,569.590267869301,34.9385416577511,42.9708583758244,-10.4145404056112,1223.28799265139,-122.771854263702,657.521072740159,-46.295940039863,58.9500300263232,-9.43830386829332,314.603797850159,-31.134718410834,989.659864377226,-159.421481807759,627.799514099538,-120.202848580815,863.343512120385,54.2313769975853,277.36117727237,-48.1460835928869,707.410513980261,-175.028770371373,1673.99961970438,26.3217160835924,1942.71685785277,-205.105107876225,338.73251821047,15.8603802166622
267.455948093622,12.6332149209332,566.824782133432,34.3068529119258,43.2142985911536,-7.42619217977599,1232.54185939439,-139.684559598402,652.115255218951,-44.6604267572887,61.4728238671696,-12.0489730005194,312.835416830702,-29.9972430830978,988.498616329929,-157.793381152173,630.543097264959,-124.996436681817,873.626528557925,43.8892768786751,277.272783154461,-47.4676958979476,714.47519707309,-174.123149825626,1657.35722106615,44.9724386958338,1943.20676177873,-198.379812099095,341.519438739246,15.1681426590864
273.921987500353,10.2316870958562,571.648978113519,29.3346591093211,46.8729816354012,-10.2389858548048,1240.13102743558,-133.110734030505,656.598843434978,-47.2238686425264,55.9361203398727,-5.78540161343992,317.658395589862,-32.1912045310977,998.26469493145,-159.395943881755,622.60239457905,-114.078341414487,882.907874000256,54.3649449776861,283.518529795162,-51.5018658353188,708.515935629106,-170.445926063564,1682.65967973827,29.3271617370037,1951.24779407146,-206.145343692335,345.545214451905,15.106950083369
268.790994839794,11.6932422736701,566.343544151001,43.9883537947812,35.5561591353403,-2.56741890786795,1236.21981298706,-131.710291364426,661.985345301504,-45.9827119691405,59.0321808681856,-8.23313321792493,319.880128644191,-33.1131781652689,1005.08829903204,-161.078864057728,633.673978321822,-123.194504767758,861.007610551911,48.8957530403518,278.07456464855,-46.2296802217292,731.871752706634,-184.538659891731,1669.00151281558,49.3837748351749,1964.25396683894,-203.359207436673,343.362239562228,14.771600988652
266.898678339205,14.5573185229062,583.875773044462,29.0944516294379,52.6475199904627,-14.6146963131915,1224.6538878372,-132.914550013168,649.259215335183,-44.1857890474578,64.1137932309373,-12.5507646458939,313.848391544922,-31.1634969412582,991.592491176789,-157.349380991776,633.262494963103,-120.097683433997,867.691455926418,52.6790494987733,259.597805874991,-37.0348651016195,724.162337721201,-172.463941916185,1663.06542006871,34.2182993571518,1978.08886998957,-215.44438276727,341.307663106047,14.8775100209134
264.192145720293,14.1898325363051,579.04773928401,30.2622709559884,37.6514756732082,-3.77813295415942,1236.62713816968,-131.688158039825,651.551568306326,-44.3580834091946,62.4111992464338,-10.9758383569003,317.897969867281,-32.0724288127031,996.143461306419,-157.8976972582,632.372412162958,-119.418010753906,892.18997471473,43.9442002838155,278.07322147838,-47.3767671816264,712.891297296654,-174.899635948873,1677.30639391167,46.1733538338518,1990.93329889535,-203.407143283776,346.469127915324,14.2724730145362
270.511835483285,10.5917546717226,574.988824518736,34.5534219209916,40.2963337110198,-5.75690178604092,1257.88470494681,-139.943525561988,657.525379109434,-43.0655763117637,63.8546108334952,-11.2433276235143,322.464087849855,-33.0182078696828,1013.6929028721,-162.307146929038,638.984144817267,-120.916053444622,891.151768335481,52.6110873302039,284.949621002832,-49.5685021724639,727.037220770911,-179.434840132886,1733.26781528446,25.3516661667761,2020.68576265277,-216.081153690125,350.016671246488,14.4783999463934
265.306855592422,13.4742797307191,576.306506876062,26.1887367104988,37.1303934820105,-3.66323709999872,1233.59248658193,-125.702766547803,652.938573375455,-43.8177548168538,55.8214611817388,-8.68839544396504,320.336323265822,-34.0005483609622,997.694224317218,-158.6423022649,631.514039923772,-120.784831181561,862.168255151495,59.5249832533717,286.148146348192,-49.823501077095,723.132837305585,-178.316674535209,1688.98613433516,35.005508950355,1995.56523913211,-217.426846561759,345.622440909783,14.2491239072531
265.371192026922,16.9477463786954,562.124439970637,42.8602879737797,36.7522354534828,-2.4575146633496,1247.3748068134,-132.880320239296,656.589127505795,-44.4309581541065,61.1060660679861,-9.2517282196002,320.043838815235,-32.8133659514474,1003.35273095781,-160.321867590493,627.606321196647,-119.957339159788,866.527231185599,57.5250697978885,284.094653782864,-51.1519523117958,735.026230981228,-187.098593757544,1712.07344781383,28.4444943663444,1995.28636930585,-215.641538738699,349.165235464423,13.6138737148274
271.367759227459,15.685522691739,582.418441434678,33.8583900075391,39.2087718229813,-6.82863756348506,1246.87649188003,-131.774468712366,665.685303333742,-46.9723582033584,63.1446796524176,-10.1354865764383,323.455428594351,-32.9589572965037,1017.70034643862,-163.797283997972,644.958686419662,-125.614500882918,906.997688173591,43.7080893277289,288.680373684787,-49.063777727371,737.332918945708,-182.91771415476,1730.03626747437,30.8983913794237,1998.13027117491,-207.557206770305,355.224631818043,11.8854622676042
273.782268079336,9.77102817281838,586.55556427711,33.5662797061718,39.5182086141481,-5.51017391127694,1252.67961830711,-139.924230899011,662.036614657269,-45.9638960137514,59.7841222192358,-7.40768517661766,322.068768809783,-34.3383581271715,1006.23623271866,-162.740578111014,635.705225798334,-121.948695253056,867.161227216944,50.3780772124381,284.267809915765,-52.720453375821,720.655597261024,-169.748739387732,1684.98779906831,34.6034083684086,1971.89972298884,-201.728612600415,347.812583686871,12.6830445989613
268.454227600095,12.3499171093806,576.884184394359,38.3867631553692,47.0419211511033,-6.60685549981836,1242.89005543607,-134.971273884298,661.951326824161,-45.6417316730033,55.9002913079398,-8.72188764605533,320.812162057897,-32.4911176303745,1004.80908735551,-161.679794543022,639.600444109654,-123.674323195516,880.579380690703,53.2065680922713,277.994628036892,-47.2742040499546,725.489368999434,-173.505536475766,1690.46224596304,28.5150163939411,1981.82458973333,-221.417033508623,349.959856028147,12.8275057352056
275.437804921766,10.1706023663358,585.195504313358,28.6372443005391,38.674100388668,-4.2454305118035,1261.24139523887,-135.364776604533,671.91223468607,-48.36325261401,59.3491740802252,-8.63301853973007,322.973528958589,-32.6917987052405,1019.67876983612,-165.960021942908,628.039871843122,-117.764162658918,908.519763412702,50.6065699533384,285.827823852105,-46.4289589116602,733.351300132505,-189.29935869568,1725.29986125866,22.0804004471902,1988.28258960636,-211.9771075355,356.510979537089,11.8166599695267
264.844456791915,17.2556303661475,573.665973910747,38.525357845868,39.8828905611433,-3.0503783857559,1259.32854252975,-138.98918544286,667.881407196176,-46.707704570682,55.3991332836812,-5.36654255120976,323.777673479865,-34.7605234030972,1007.92118650546,-161.828875161512,633.817131311691,-124.461864379016,883.049235120016,49.9848265259695,278.468440750457,-45.6605201387019,730.676768340469,-183.396661125305,1692.601934071,28.7807133989701,1966.88813601476,-204.648421252402,350.039863814305,12.0318478222436
269.50383711999,16.3349327604856,580.536812139176,27.5721577019183,43.7492860285533,-7.55771985880985,1247.49020303844,-134.990215175361,664.860744373391,-46.3274397509443,62.4027589583613,-10.797775159908,317.960175680827,-31.6963128391456,999.052269769257,-160.306984259214,627.368301433179,-117.797441910742,872.177206188643,56.0526326730776,280.934020672741,-45.7760693035049,721.814559502798,-176.288945687406,1697.39372835961,30.3415209723939,1974.26627030412,-211.36218682418,351.720436893027,11.7558246813651
265.644526706187,20.6414350848552,574.307349677013,34.7145851122118,42.6010532566094,-9.6616242903144,1255.16352194303,-138.362773346617,670.525699519579,-47.7427907045857,65.9562781835302,-13.0285281891062,322.448725209051,-33.5389720456219,1014.0191006079,-164.391520869643,636.455052484824,-121.644245004114,901.597596501826,46.4657065392876,286.128459391369,-45.2872181480393,742.477361650116,-191.104978040673,1725.56367426832,30.5724850534771,2015.65102768693,-224.59812558116,356.605441880188,11.5653255358208
271.920112050358,9.40651127277173,583.16270669801,31.8581911738224,42.5574638752763,-3.99103925740201,1266.56505724881,-136.821310801379,676.038210520746,-50.2743413341105,55.7736976429185,-6.99739971445786,325.579610005131,-34.9945602087572,1014.62060219757,-163.571743383622,635.561984677844,-120.421467471806,894.335808009218,50.5967546165354,290.706900799578,-52.1112214786136,730.852670811564,-180.07812297582,1715.66459407788,26.6558567755666,2011.07280590851,-223.55224071261,353.744747072604,11.58559520816
266.247194025166,16.218936019248,565.465101958231,39.4998435030214,43.3604840626719,-7.99170617792906,1246.94412602333,-131.951188336909,663.653573588619,-45.8627978810823,62.0897267581064,-10.9653723644553,320.260228355338,-32.8648529798521,1000.73225356226,-159.877960680977,644.277318360401,-124.441101941878,882.973653329317,54.0239971284924,280.571988169761,-46.3078231361344,731.797112515099,-182.412460643609,1711.77781661657,30.6189128959342,2000.66617690212,-215.998164391318,352.882320366887,11.6132301669996
283.525096474478,5.97815312152028,565.750540080332,38.5063483846328,37.2087216700471,-0.299107257010001,1250.57050889734,-128.379808380016,666.203348504878,-45.7952804265061,61.3249822640604,-9.90770676170134,324.463618704065,-34.2747509383071,1011.01565658742,-163.558509393204,628.766113453802,-118.673083569838,895.316436501588,51.6741283886447,286.770124361808,-50.258336837112,742.434126405543,-181.019636084744,1746.8183766005,19.2895611033211,2017.21810120036,-214.86806309511,357.567228345376,10.8933526248002
280.904133977018,2.53598266721755,589.813708268915,32.6086407071946,35.9538632620872,-1.26539355283358,1273.60174645018,-147.143582366486,671.570185009561,-47.5683698410509,53.5872075665982,-6.72335880627392,323.1558825818,-34.1153595536299,1018.3186933581,-165.98439750487,634.957816336826,-120.349654912094,880.123367979181,53.1337606952173,285.815989913313,-52.1089091163021,741.2517452261,-184.694380194582,1706.60443920803,27.9836351694566,2001.61647845447,-208.477437085084,355.67947712931,10.1730239042614
264.058906581089,13.0763011209621,577.955763481238,30.684366472459,39.438215408057,-3.3426657175747,1244.23414668999,-130.05403358795,665.146638326198,-46.0125214398518,54.2597445013543,-4.53531470614434,320.224383943962,-33.9211643228812,1005.03161427046,-161.187157504662,632.008009422673,-119.011933197556,881.595862777752,50.8746528735023,278.006766386493,-50.3830231207644,726.658779880203,-179.794071591162,1711.02146659432,33.3186036572787,2006.44309187026,-213.498995794486,355.158318863899,10.857725984014
277.49474124571,12.1092969144223,594.878848384115,26.6152496541358,38.694130260813,-7.11511181269863,1252.66769617871,-142.523746828807,665.495417553365,-46.0956507822921,60.57051149146,-10.3503630161667,320.992023575873,-33.5373137068688,1014.67498459492,-164.060380177351,636.756655550224,-122.575513933671,891.785330155827,50.6139727644446,287.489017443427,-51.8853524486109,731.050461378452,-182.011392392527,1735.29383096261,19.8586734687613,2001.74218906734,-213.802892588716,358.796750159438,10.6103639756967
262.901094314929,15.9037127090789,579.051057791304,39.4712267776645,45.0324418165086,-8.05223253244785,1259.07172841747,-132.136131510199,671.655428033167,-48.4595469630301,56.3653870299257,-5.56856671544113,322.952496816959,-34.325025159942,1017.46752243973,-165.67108681714,626.802866915388,-116.459161950074,880.982106980841,56.1944154558673,276.688844350197,-41.7485706957884,739.78433905786,-187.247569766786,1705.9194601024,39.3074199863349,2005.07747016941,-213.776593693773,355.949098677776,10.2269973981048
