259.765621079119,9.32654263608717,517.75391777906,44.1246860702959,46.1256676212591,-10.2825660718988,1162.63955964277,-116.650761835435,600.902324187157,-35.777702368699,60.096392014777,-12.4114658805214,293.397694630475,-28.1032582649451,946.791768802839,-148.274319028131,599.010203321912,-110.97868095765,800.939474235195,62.7451869981399,254.199375206278,-43.5298753034775,698.79890147231,-179.212945800866,1523.79194820399,61.7167060264351,1809.84220451448,-182.293949596261,344.521350384139,13.8400232594097
271.969327472267,6.21889319487782,527.539829105087,33.2394557618319,47.0997823889914,-9.86551252002371,1157.02286258221,-113.313044465391,599.513592422563,-33.9369201770165,54.6399241025417,-6.67706906289157,293.52643270032,-26.7384675568372,949.483443785319,-147.645978509981,593.508167512107,-107.387619374546,806.12300644303,64.2558692536991,251.314650797265,-39.2720836289781,698.812397896335,-177.368005086071,1536.37600556333,61.0794796591979,1848.77854044679,-188.140514896143,345.761621998442,14.0952099565769
267.227338300204,12.4704952903121,517.650217145981,43.5912269255888,39.7234978620299,-5.47326110866954,1162.92555013804,-118.126315788603,603.692782962697,-35.1037946170583,57.4909702721589,-2.78301944657803,296.986271068369,-27.724213068562,959.769139942321,-152.475008880446,609.207116591362,-115.660039778509,827.827680619952,54.3243129515999,252.883856433155,-39.5368064189614,692.820326593037,-165.703749969553,1567.78551635277,57.3347529617424,1871.8897114643,-188.946775414113,348.313709437553,13.7556382894932
259.249999378468,10.0772494989936,515.189344705398,41.6991927304303,37.6900600203312,-0.571674478841649,1148.40140486829,-114.602275147086,592.400859572478,-31.8244051929984,60.6782768123404,-9.15292742074455,291.571813962173,-25.4001191992067,942.616178875508,-146.579623610889,609.648958529141,-117.599433441187,799.962145324336,63.2651896252237,254.284574784695,-40.0766021490729,691.828171099748,-166.960118837838,1521.96635401774,60.8344898038729,1844.39476358068,-184.966204526352,339.205221407128,14.9181174421211
254.9462178496,17.7180573256147,515.115718426213,41.4296795890814,47.4200656190952,-11.4079310035587,1138.14368056196,-104.097129721226,591.672262688084,-33.2356885541506,59.3455324639069,-12.6578882509825,293.070683976042,-25.5368394407881,944.531759506869,-147.115503699981,603.397396724608,-109.543877226574,792.876571324138,65.5136744811672,245.062855689826,-38.4364000449138,692.374119884431,-172.149835158701,1531.36698213718,61.5335974340898,1860.96333074432,-189.02362333442,340.323371714521,15.437015708399
265.788345043877,6.94009773444845,515.377967865972,43.7389110651453,37.7755795073222,-5.90016123205097,1152.66505900753,-110.751648461219,595.56632884057,-33.6461595698357,60.2886159383682,-9.39070969762846,297.290032740539,-27.5292977337937,952.34766403439,-148.660386942851,606.318548495062,-113.507925263033,812.173196740858,64.8714016816505,245.648227396156,-38.6360097898756,698.615552032981,-178.222397507778,1553.14023397802,61.0150983599511,1868.82072393634,-191.090578527362,343.804376452113,14.8356093740961
263.70579669313,10.2473027870009,530.987722740348,30.4388330935213,35.8102982100059,-3.48753547720524,1148.52127263927,-113.978652741243,591.771073551165,-32.1266615614703,59.6648156781111,-7.99628826430059,291.669398287156,-26.2362515808359,942.851965907484,-146.34780192263,603.862013479539,-109.539041801657,776.698263865869,73.7509612662435,243.332691134505,-36.5976096717983,695.304645150427,-175.360471983024,1501.15252426374,67.1707324057588,1837.44820412947,-186.506823566523,335.741564638878,16.0514726331671
261.365910109814,16.7633144811722,506.572701497377,49.2696781821848,35.1730350228846,2.58953635922735,1156.24352672576,-116.661967342291,591.318186756387,-32.7828189262596,55.0201570610266,-7.10641977422529,291.840718504391,-24.9621645315484,945.042239130479,-149.252568750533,602.884765029811,-113.583097348379,787.943916087518,69.3859829947221,254.739721350767,-43.4726176235517,680.536292711169,-172.591451635378,1533.63236569869,51.6770181478621,1844.64712984307,-189.453328141791,338.071342570506,14.8273405886935
256.380534842193,11.9352774416436,528.978970781535,34.6903858140212,38.3982651003815,-4.42844856937761,1166.12465331257,-121.101358103316,593.551447348198,-30.3855261152186,55.7471839536073,-5.52924339627555,294.287889139027,-25.7741272120768,952.242374536412,-148.755824310829,599.668611412744,-111.426036015326,811.742513400565,69.3742530155769,251.75573781235,-44.2083002135685,684.969142596553,-172.180788896884,1543.87431879453,64.1716359312104,1849.65413603307,-188.481974830833,341.940477945166,14.8830057157535
257.241839209347,13.0310940474817,526.741308843255,44.2185594582801,37.8348363156007,-3.60316261226283,1160.41365468857,-103.604071559582,600.089836166071,-34.2156778689965,59.3242106945078,-7.80226555665359,295.832305489463,-27.5168282915281,957.745118762126,-152.243027684102,605.409723634119,-116.525083313368,805.471490763503,62.3251018712355,246.334579955496,-36.6617373143972,676.006061457266,-158.493352463467,1515.20897354861,66.8321701884565,1839.16457811222,-182.917923318244,338.075620307705,14.9236912650584
264.396281456974,11.6696264556264,510.576505347293,48.0809389601007,36.9698229243701,-3.66590886999388,1143.41184285839,-105.609442700782,589.237675354493,-31.1248548126106,65.2502499190102,-15.4038825735858,291.383131461707,-26.0194566448003,935.942475548534,-142.37993007061,593.864419042168,-109.591918036904,790.541526087768,65.2668565789841,246.812642420209,-40.1408825336137,670.892682124382,-161.476085738009,1518.09794441192,59.4776372439251,1831.97216940853,-184.403779753769,335.62735166357,15.266364983114
265.08478052238,8.80451231779168,504.626304433465,45.5675542344331,40.9775892340573,-5.90227258752551,1145.97935746108,-106.844085212695,596.295583367254,-33.5960843924773,59.4713449991298,-10.3347190824124,291.272517431173,-25.1271471517521,944.106126432478,-146.021250427896,596.667320915323,-108.906896584918,801.954603072015,61.8694186297973,247.111457124839,-41.0154493301406,689.344569257694,-175.209828673212,1533.05134034308,56.0260723334793,1836.66855169704,-182.381536395838,339.245423585662,14.707237828544
261.117444601051,17.1031427761389,512.194837608347,51.5569864090767,41.7129010364609,-4.53399957372573,1181.90885239131,-120.295038800922,603.793760572694,-33.7680191111994,62.2878508536694,-11.6637128293181,297.553078907998,-28.1852765040609,959.365764353393,-149.023704096765,596.260026194263,-110.533638847744,828.792648663108,54.6977644584859,250.320935034856,-39.4406958923101,703.84206870839,-179.577764873222,1556.00310046721,69.3641249548884,1862.24303573683,-180.413466926531,343.770614331514,13.8244819360666
255.445470098177,15.3885519442722,517.871512762056,35.5717524070155,37.0882155430585,-4.90137406661708,1162.90035522701,-117.527127520237,596.315014145874,-32.9161720476071,57.3697270937519,-9.80001357879268,289.239348203295,-23.8636288082211,945.577794128462,-148.024465019073,600.407547672962,-108.385538102695,771.677078528475,71.0112514956502,240.76501466266,-37.5171074854156,689.138796444271,-173.76532626151,1500.81090063673,74.8498846712654,1833.6567309851,-176.525494843255,334.805945800055,15.206159288625
265.151873158433,9.59097489614728,511.683525255329,44.5643923073641,36.9043211177324,-1.98303709209004,1153.72114008153,-114.242603196531,593.372610913699,-32.065436632666,59.4402014417734,-9.98060203240425,290.440907815393,-25.7097982832124,944.437588524018,-145.993488113936,597.478111619749,-111.662655404161,786.199077746971,72.5305278286774,251.38438334309,-41.9684971738317,676.21368997677,-164.977559745625,1509.04771939844,71.5650340514133,1864.08489144314,-194.845951883792,338.13203843428,14.8479440187815
271.893020402317,8.76661397424203,501.099000649965,52.2890347260981,44.0954507059308,-6.75044489469295,1172.06650802143,-118.302951104729,600.797129417894,-33.5208385667042,55.3199701554326,-6.24294215076056,293.916280558557,-25.9106871275834,954.536897989959,-149.065198829825,607.782753042132,-109.332462511503,814.570697888544,61.7769273897758,252.616494677949,-39.1215252805139,701.73638897153,-175.130406076018,1564.14257096286,58.8908908327217,1871.44846186475,-183.869311892682,342.497612623088,14.5870281562615
261.76342044599,11.35998530918,517.857852761713,52.1330992132351,46.2381820332319,-10.8899307749658,1166.27413304334,-115.515108256886,604.02797534575,-37.5450852111023,59.7510281700014,-10.0876700480659,290.91724338381,-25.8042835106233,952.72585316588,-146.437052012905,606.008426007902,-106.986217530414,777.88218629005,73.4590620167355,239.377537804578,-38.1681014039705,695.555405004488,-168.591649448589,1519.70796379969,71.5440052075447,1874.46680234449,-184.2257352083,338.331285518908,14.3199011100108
264.925086355153,7.02241838985903,518.35966668916,42.1625019853657,32.5581288637368,-4.64808120654694,1149.75131572357,-109.453458549408,596.979280329091,-32.6749530155254,55.7443334945646,-6.20644256067552,287.400936241764,-24.4322557707518,948.788872227572,-147.537307969575,600.880187290684,-106.952433697638,785.467195295964,70.3044550856068,240.917321945171,-35.3026459091862,693.963782327854,-168.337058167309,1539.43200452088,55.8757441253401,1876.52544000129,-192.249484857497,338.217288464989,14.8572542837026
264.174292604201,14.059700794775,524.275819261943,45.3454566477561,38.1848532094235,-3.32811284248403,1169.34242749595,-121.349475270908,601.873313772299,-34.7274070707619,58.0517477472277,-8.07367473308525,291.399655157769,-25.4960918054236,958.422744835357,-149.972102630957,602.994862220246,-113.509401803734,803.130574042718,72.9501573350529,254.962596410397,-40.9849386135631,702.075872109227,-175.486774233642,1549.82779408123,51.5441459007108,1888.60294585302,-186.471942415287,342.363160445398,14.4015808374492
260.959219780418,18.5153841954977,511.108170036034,50.1456228813922,39.9386716300697,-4.80185052099086,1152.72895288442,-97.2677461418684,605.784864230339,-32.5704520437181,52.2828622100605,-4.06926663464914,296.322537173173,-27.8186260401738,969.956682758559,-153.006826830317,617.71493841554,-116.149566044451,791.483847794744,66.7824860391367,246.817726493961,-35.6400656441616,699.993354262858,-178.194813595396,1535.55995934177,62.8916306047716,1882.33364679335,-186.922119303506,341.278397252875,13.6276258590548
263.609218729734,10.4894979439156,513.800449259597,49.553911628825,42.2243279131871,-6.06636640078024,1145.9494566434,-104.517586371105,598.681084206401,-33.3562000477019,63.1592150517536,-9.58258066684384,288.14593273311,-24.3403657535107,953.674799240883,-149.710141549281,612.471086612794,-117.771854952766,788.601315472233,60.2179553567521,246.230950557215,-38.8303443441573,684.966075833896,-165.350596813061,1524.98965635028,63.7388424382627,1858.3069744563,-180.249274683376,339.472567157224,14.1358907085425
270.446868053307,11.7345429882721,507.55119479827,52.3641891412549,36.9625031039878,-5.45017012686916,1149.80767404178,-103.651483218816,602.353447350909,-33.0810627802475,57.7353328961376,-10.919815118675,288.939441566141,-24.5338144318908,956.792566092085,-148.111282951886,607.863869899274,-112.887105109191,786.096567326994,74.9591150352651,259.650585412329,-48.3686018893505,690.106371514515,-170.159559408429,1532.41873864567,65.7163298005605,1873.26350157811,-189.518517518838,343.175604047554,14.2373103449941
265.761883566441,12.9632496718897,495.890197928968,53.6072622166418,40.2082730467065,-3.45658146951071,1181.47189973949,-117.814390226739,612.538934841401,-35.5859553825515,54.0916470005171,-7.36453559443815,294.247572840789,-26.7885743631491,974.557045889006,-156.692586685302,608.12939341685,-109.339682295223,814.013063857835,66.1710411081022,252.517474657036,-35.5070801533585,701.578997304984,-170.418922675422,1560.71264758553,65.590187788028,1901.30787884148,-195.565970692687,350.249668924393,12.9174106151035
266.478607427625,11.2446394011422,504.253943220255,49.1631810695152,42.9446846971923,-3.76201191550925,1146.9197348876,-106.936144161113,604.300610283093,-33.0023211371193,61.9145712430576,-11.6971530766748,289.422443138284,-25.5874566729707,954.549609257387,-147.025258660987,616.529613511279,-119.386797718318,771.359935769441,69.8141705869977,245.534473042778,-39.0461636849948,693.247330597393,-167.787366972763,1514.63549796919,69.0850037825184,1855.77341928977,-189.306867009434,340.675272580167,13.901073514061
261.428420327203,14.4455021159434,512.239079816456,51.6682128622316,44.8802386850246,-6.93319033655001,1147.77532181417,-113.629223567762,599.288505705509,-32.2324876773652,56.3747715642794,-6.81084566011902,290.179104093215,-25.7072461538587,957.547626747392,-150.515163037827,599.66640980632,-114.324165984804,776.510383039403,64.2400814979469,248.536348402387,-39.9879606805435,691.773174013552,-167.404455258992,1520.86567199129,71.5176436379148,1846.17457568506,-186.213393138303,343.178071597861,14.0460774349809
270.534145886746,0.754820346278131,515.200172555064,40.2796821715397,39.3870015928363,-7.16850642222017,1146.87227269897,-104.062095817567,608.023975442362,-35.2822007287379,60.3513797666255,-6.12472417889771,290.936944928085,-25.823247794898,966.362257227368,-150.726557875374,606.800866548437,-113.521026408119,800.549485060975,65.6611567468504,257.32179726894,-43.8707167775882,703.892964562855,-178.340971358783,1536.98844107779,72.1174799650352,1853.02508962339,-182.579574622122,349.28995257508,12.9130018602829
260.680912826152,17.4023379590826,522.79778411484,42.9700310996342,44.3381345950689,-7.95480085355829,1185.85484578148,-124.213840667529,616.135736050558,-35.3408528057705,65.6646656242746,-13.4817742293941,295.722701551373,-25.6999698585666,980.855844914913,-154.589772246799,620.168149559632,-118.624759039626,814.124085612847,63.7885250169542,249.78564573998,-37.3499557455538,702.295817922283,-169.634522472185,1543.62368356508,60.637779872667,1889.60139413078,-190.67415614738,347.725847728286,13.3563534547558
272.733908295153,4.43795703394307,509.591061487975,51.4652791630986,39.9941775497431,-8.25154793376596,1157.15205503108,-120.312027642601,605.874921720546,-33.8459528526957,59.3289938568117,-10.3935696844115,288.735945585303,-25.0657907991927,960.681563672048,-150.073620392587,609.524177596845,-111.894761145337,759.035396951929,83.9394491010802,246.70662731152,-39.1310852365473,709.66722439443,-179.632010303403,1523.73518580065,70.2554650540985,1874.34837458025,-185.868197751304,345.629625290903,12.9261367468531
261.205093432075,12.592018901644,513.373737592952,45.4960746089328,31.3772355369031,2.0881495998359,1145.13532644718,-101.431411093759,603.992701062621,-32.9790643130565,64.4476086972608,-13.7754275149958,289.05594290102,-25.1863431922528,965.693861824281,-152.369082697086,608.179830182792,-116.951615640759,792.646349837343,56.4484398515142,253.974347462452,-36.6907895623289,709.58035104986,-180.561181947559,1544.64894381248,62.6428078171318,1903.23925234138,-197.257485622595,348.805979715649,13.1016985769172
263.417747930654,10.6946021802232,519.54657644085,43.9202810084232,37.1478241593138,-2.9515557548536,1178.1353272221,-118.188305847871,614.372340157719,-38.1092140456471,65.6067569295247,-16.3795112243848,292.484851402665,-24.9715125232967,977.113890699822,-154.319922467852,613.565458765069,-111.788370037851,809.149511335302,69.9631301429415,258.957005396545,-42.7543556058817,716.310871681683,-182.471785797424,1589.51142731051,49.9533248781972,1918.76411628261,-201.489687554905,355.985399605162,11.8797420115957
260.241039611966,17.1669770039927,515.264595816466,43.5796121194538,47.3151499294729,-7.49999670996028,1161.90562153728,-109.701356459465,610.399538115301,-34.8167414140252,55.0572230945434,-5.81241828871399,289.361124980413,-25.1344128131719,964.286191356691,-151.305028804364,618.192032294307,-115.980372354325,781.8759175982,63.9945603828585,256.683279682059,-40.745323722055,692.11125822982,-165.830981441239,1534.38251620178,57.8449672125008,1898.33486779153,-194.443298523013,347.508384780808,13.1661154215364
267.493156350028,13.440551523849,510.441785972491,45.5092790321881,39.4770739617219,-4.01194183522926,1137.93077920387,-98.3191233014675,605.05327838257,-32.5447297972604,59.8194718607795,-11.7548211205196,290.67676198255,-25.9912253498049,967.636826770888,-153.099356515877,607.072106869846,-118.273794551539,774.384362175938,78.3260005059961,259.345492917999,-40.6469987797186,705.722618823786,-180.162742712182,1546.26969104995,62.3934909583978,1891.31533313381,-200.083708633501,351.192979949555,12.0147373120586
260.790069659444,15.0683170824965,532.581075552629,38.9883543527475,42.3077428748263,-5.6693123730063,1172.70930501058,-114.735389512222,613.032309297905,-35.2780036211372,63.3463552196291,-12.0400996451548,293.201272988608,-26.1800420224732,979.034377663534,-155.124748184082,609.917247552287,-112.409167742117,803.605851164564,68.7927377998097,260.505034807432,-40.3517675562959,700.652888180142,-175.755494972506,1570.08703428321,57.7258538407423,1904.87646641551,-194.621008570742,357.3884573329,10.6693698784702
262.914580666573,9.3102171923025,524.224779736391,42.7926528677525,46.1405373696309,-10.5783917427087,1169.1928525551,-105.909354730564,615.868007772762,-37.9754620177564,54.4350100321551,-4.12121773354927,289.968651433114,-25.0780102091273,969.903187793306,-151.495444920493,600.998416927774,-110.619367579061,782.173691347779,72.8477035199963,254.613108007196,-41.4943473731844,704.874780111165,-174.735809332226,1527.10525687137,68.5528517705966,1861.9125348055,-177.531102088055,348.56974347277,12.7272651019992
254.050864164628,16.9947158232744,512.280138711243,47.3925866105529,52.1936364857775,-12.3232943603728,1143.60633893774,-97.7172889174337,608.225910730661,-34.9338816973915,52.3432140815028,-3.24874894789605,286.980843943812,-25.4883195354205,963.344506362363,-149.695089984689,601.963653319089,-112.374992645298,779.326169582911,69.7501145941892,254.384378141172,-41.1131409299561,702.041969176834,-170.330560660267,1518.38589892704,69.5299269034798,1862.98133217941,-186.125029211732,349.336218526531,12.2663785470353
265.18147234986,14.4338322143794,527.784138631877,35.9841441081409,42.8103136702214,-8.1771163647711,1163.21049636087,-114.296251730917,609.739657815457,-34.0374078163498,60.8349771336905,-9.68813665009407,287.465553119531,-23.9771426684673,972.964413129371,-151.831996072482,598.857841900718,-107.404824943585,786.990226765592,71.9666533890778,261.896905441581,-41.6758856231146,692.217238090742,-168.363405666822,1550.07902614127,57.6686157958044,1875.03980745807,-186.789738751104,353.325759464829,11.9389073687899
266.466804331868,12.7893421460471,522.655843381863,41.355718291063,39.8922712475722,-6.84970035686673,1183.55669110142,-114.760607467559,619.838866368676,-36.0549475968408,52.6508315081093,-4.83664852629289,294.493717951505,-27.0358953292914,983.876602264642,-154.800916506688,614.133709917875,-113.389168287535,800.9342662826,61.0055424753184,251.695663479692,-34.1104929987344,705.337173938153,-176.091059828256,1550.0960944528,47.2505231128186,1883.14347370164,-196.827735214307,351.592977997873,11.3962615876219
267.53757180004,10.7081851506846,502.141337615542,44.4472436748311,41.1585984877085,-3.52682273324853,1135.37420482312,-102.272965749628,603.975735357387,-34.0051708234552,62.2202295443205,-12.4614726323133,284.235041815097,-24.4783345207664,960.723340191818,-150.766706469265,589.697645508163,-106.190555373062,761.766414688003,72.2866786855117,249.787744236176,-38.3880676086176,690.686236551427,-161.751888817995,1492.20533906465,67.9262826355846,1840.96102536535,-185.135302281257,346.842615240709,12.817598772653
259.000014989992,15.0916904243828,507.380768944541,50.2792492184343,36.0329698892341,-5.8679422693002,1134.00034351026,-100.386065742305,604.051233587662,-34.1764058879122,55.5979404407413,-8.08124515780572,282.60201398477,-23.575242553862,963.644712378469,-151.841828859742,592.357234238312,-104.642594446025,771.072781135625,69.0264607699049,251.934849392374,-37.1509533153381,707.298824726237,-178.847195322968,1531.10533907681,48.080567345669,1844.97155471716,-184.38933163589,349.219209227831,13.0646681432727
257.155280605513,15.4210818203761,507.513821594802,43.5734105814919,44.2209053769833,-4.03408557372347,1162.86096618424,-103.752634398748,611.854973810521,-34.1226208524355,52.546224979442,-5.11402373106278,289.219428293816,-25.8687035090608,973.381711870895,-152.96359305014,603.764075278925,-112.941896186389,800.972657762697,63.4059976363855,250.931285153764,-40.8535376206314,718.66051366688,-182.247116635991,1554.20421857257,61.5645003938005,1891.44743290471,-187.53869284325,355.283617448631,11.8257538972897
259.494874332019,14.4443101303476,510.984498219189,39.4201055480744,37.5738239755215,-3.18026153257136,1145.04846301749,-106.756612030032,600.864241967333,-33.2504835424908,56.8720655418182,-8.42395440219405,283.992818661899,-24.1127419908422,959.068714759612,-148.756359549068,604.796476675916,-114.564415149409,773.37404774028,64.9318601536585,248.658465543747,-37.3212370641049,698.993617019226,-175.379838446444,1500.74431435573,71.7762209049581,1880.55781641899,-199.524670070281,345.995043459596,12.9669634750004
274.089235284833,4.43895957087765,491.105913909735,50.7859514313835,37.6273717483937,-0.861791988972272,1136.80776517662,-103.466496639212,597.861199716359,-32.339777450351,54.7665949812769,-8.13221617234868,282.313707549893,-24.9969070283566,958.365241849112,-150.437616478348,607.323880727531,-115.68133138423,770.189238681342,70.4348176348655,247.492426614859,-36.0553965550206,711.144319386636,-181.355049119479,1502.7178152127,72.8947508295868,1877.46073833881,-187.650320336703,348.52531855282,13.2380174861386
260.856596918146,12.7336444662576,519.11328895139,40.8567741219692,41.6590212525437,-8.22437995332411,1156.82723559031,-115.05639339332,603.437056951164,-34.7715270069648,48.5362597385591,-2.32317130662497,284.916921508143,-24.4608178064424,967.254518987963,-150.291934881709,605.91993061219,-112.163302121147,769.179704761004,75.4903650272894,252.984147687121,-43.4136530695499,706.618201062329,-177.767084099574,1538.99439931886,57.7506012317048,1901.48990633482,-200.188267165742,353.547652462744,12.1912355370659
255.680014914779,14.2952883630961,489.614678668878,51.4423444911658,46.1447046963063,-8.31189005172783,1142.81422046167,-102.233923718082,596.848492506739,-31.7143170756154,50.533755029783,-5.95854215287567,281.415112287671,-23.7780675809831,960.368996073862,-150.105492834526,596.328399957818,-105.515125021465,757.792128560554,75.702291558452,250.167454899714,-41.4181579117746,687.508970395772,-167.970924040983,1510.1369237972,55.9860110217348,1859.5089364617,-191.133006493724,347.077497523662,12.9893284423919
260.808303748636,9.79227338985113,501.797398033004,44.6911863236662,38.3432787277986,0.415106264379903,1134.45832654894,-93.8553618429609,592.243993001736,-31.6414870474999,58.6496465416363,-12.0276963611827,278.718910934731,-23.733607088203,957.037260928029,-150.239946425325,592.27075779927,-107.381809851825,757.92603148582,78.7029475575739,236.143835301138,-33.1436744073321,704.53960044936,-173.080110235809,1508.54017721841,63.8581220224779,1882.08473442082,-197.050867324494,347.762899439272,13.523170877492
261.436450285468,14.9154798282723,503.291073682556,43.0343831858116,36.1244972283702,-5.04732295845432,1143.10735960954,-108.042404987323,598.769547193808,-32.8108754440205,52.5556432180929,-5.5540796831826,282.314899923268,-23.4057904353286,971.311908374872,-152.661303144071,603.327940083293,-109.787133351563,771.247611523216,74.2989307048321,241.822943452468,-33.3835310831695,704.527367290864,-178.697387301798,1511.83780506471,66.0329083656227,1886.85180207266,-191.197617804064,352.079358500265,13.1548546955211
266.204791992922,10.6556979005405,484.660680637202,54.5481146584925,34.0065993120038,-0.760494968199141,1131.86073585611,-109.584433205869,594.385106912801,-32.5033119552771,60.6227346920526,-10.9877015682096,277.297525885681,-23.4041779040253,954.769160945746,-148.68547033898,600.996569011217,-114.040365925118,748.483322402695,74.0587676980696,242.317127612238,-41.0253211628444,684.856200933841,-168.177869464221,1488.87578444927,59.9524169623861,1838.92801645571,-185.624622504564,343.810860905997,13.9112235418052
269.396860799998,3.64015563595403,493.695937891516,49.7134159197703,38.2568447929682,-5.36472878065253,1113.36080925719,-97.6409936953116,587.082135930343,-31.9873518356503,58.154300661354,-6.83450815489673,273.423448855549,-21.9680930806919,952.569039317331,-149.358139926156,587.558746844417,-108.577909376752,731.519439247346,82.0559015649288,250.656576068229,-46.319549561952,681.34677761065,-169.372902369421,1469.40285809691,68.0165058622197,1847.04408491976,-188.175133910375,342.784799620279,14.888783996723
250.611870225034,18.7852887118634,490.277027815047,48.7765732752798,37.3971674453624,-0.733438934693474,1123.20171079564,-104.099035981841,589.563043179266,-30.6242320088117,54.1435600848015,-0.993368092141585,276.740049612558,-22.6371048884569,962.804092437287,-151.307548214111,603.012165489841,-116.013837616924,754.093507713218,75.1008411040694,246.838157041479,-35.9778114112639,695.801331603771,-172.5788944537,1485.09645131828,69.9808055902881,1844.39513678732,-186.037666593905,346.525545877419,14.5109195104237
254.516193518375,15.743913896394,489.737615700304,52.4707602672545,42.3338605754581,-9.60824645017196,1114.12555405901,-99.7325931483539,581.975922918891,-30.0209369865788,57.5649240339676,-12.616364445734,272.234258890915,-21.4409862089165,947.021205411699,-148.858189782946,590.01443119632,-108.424274953407,742.667969712004,60.3067460092108,229.486455784958,-26.8966426886285,690.420612174856,-180.544693803056,1431.92686604812,75.7031082358015,1796.25144403891,-178.126383822694,338.507255611685,15.1252105843187
264.214947946982,9.21705739943319,483.792090598072,41.8564521358643,35.1144224986836,-2.53777381819649,1064.44283383225,-77.7972939940578,571.957307933109,-25.9099959258835,54.950861445177,-9.71021527381639,269.63736521557,-20.7967843158979,941.805591803608,-146.343014498784,596.14532835444,-115.717153852334,710.371650143873,78.213159851666,234.759740674769,-33.558937965616,680.723553977321,-168.48706797936,1429.10237244892,82.6296783510685,1812.52968334053,-185.707162074574,337.532708347308,16.2849465726434
259.799526814795,14.2436586174187,466.307041863504,55.9857381712909,46.2809685102903,-9.98986721045225,1082.12814663297,-88.3873282574362,575.075490443293,-27.6479521169787,46.6193521401701,2.05788722981463,271.587905847327,-20.5318157570032,950.135512840655,-147.321645677272,593.328760650249,-108.667258476398,727.880154153234,77.5036179939235,241.119811183959,-37.5528219304492,683.685171389839,-170.719697854828,1439.66817419703,83.1523201793681,1826.79789821633,-173.299407500072,341.323779877093,16.4519307600316
248.651979299599,21.2838545886475,471.346383597478,57.6533174830382,37.9343214956068,-0.791071211637359,1080.47625671698,-86.074683542581,572.625757688917,-27.4505187357807,55.3355793115863,-7.87366803743901,267.316900435983,-18.9722318673269,940.154157122046,-144.769468880095,597.570109277639,-114.764065431306,704.99574844846,79.1941672916194,242.009306589742,-36.154172873768,685.461583986867,-170.967998394127,1425.86642484898,77.5891545455786,1815.23982332625,-174.930496846866,334.393207334386,16.7023580397195
259.814190458433,15.4335543860049,478.468428326585,49.2932864867183,40.7106196128417,-7.70089001920683,1067.23349295964,-88.8433421909509,566.018173658628,-26.183315891827,57.3786208632645,-8.31682096205307,267.631351412927,-20.3277631992891,935.974511604868,-145.486919339537,589.864578000001,-108.50463545653,690.887341728885,96.1212303968938,232.098109629923,-32.0402312312402,682.791770415153,-167.94909485502,1420.15871510009,88.191647620471,1847.39589243963,-197.219051149656,334.598796241147,17.7239628667895
265.766636334802,9.32846454290045,469.540254008795,56.861560998925,46.5041135754938,-7.21987964171992,1071.67423285568,-88.9104283184069,570.907090180641,-26.1646542639179,58.8581649534924,-8.75173916829531,270.460568477173,-21.1460890254081,945.763409918314,-147.133403779035,610.486316566674,-117.545459314759,720.458502028406,79.8094712276478,240.966055396417,-40.704866970784,685.868302393549,-165.506311108607,1455.08278995131,73.4047703286613,1852.91055140433,-184.269393307166,339.810590983341,16.9785321825637
263.023029809405,10.60196110504,475.386609151074,51.3311550446759,42.2772507139614,-6.56211728911319,1067.06910610392,-84.921238940285,565.981230206556,-25.6797810429961,49.8804069750862,-3.61193177820799,265.93610344332,-19.2890784539311,933.429458029755,-144.34835172225,590.052918360707,-109.673906241208,703.430544660881,80.0508554937454,235.337668318773,-33.5734500482822,688.665516225874,-173.402687841358,1399.24053328436,82.4025791662341,1832.84982328364,-193.016924250446,333.238392895334,17.1326382552568
263.052662838721,8.64047923688284,471.344813546588,53.3868430074319,31.3475491447042,0.40926576157369,1055.26428175718,-79.6150444045461,569.704257437724,-26.9289602913794,52.2525943999831,-7.04744537884858,267.822077361922,-20.2662857841834,931.437029053517,-142.337092743006,596.169616084883,-107.439044511946,712.759264113405,69.9486102719644,232.530240738832,-31.904111448394,683.472626889488,-168.968187683387,1409.24306041382,96.4145911078397,1823.58362213852,-168.32716741047,334.991697946376,17.5291593656656
254.717601158076,12.8776027874724,474.279532158172,53.3257249698783,38.3723282235114,-5.30619344998255,1069.64321843848,-86.3473953953626,571.037643697886,-25.0871826056508,50.8066349485103,-3.21034969604977,269.547491849499,-20.0405480342008,943.742440310462,-145.342821371882,582.84687715085,-99.2826781545011,715.130901649571,75.2013328333535,242.367624586783,-40.7148707688726,702.644515672644,-175.985858787295,1445.79875834063,80.2515052675315,1829.23246253683,-180.787157152003,339.947605493055,17.277625956601
245.495842019049,16.4232108511297,476.885076184316,50.5170223275517,44.2108255615427,-11.6047606843444,1040.59188472128,-72.5765294835315,566.781910195875,-24.8219192976289,60.8433767474069,-10.903735876947,266.373700665631,-18.8580693408699,931.311378842059,-142.805806840635,595.036352252513,-109.042893338334,684.830753973506,88.5636978119201,232.365468508375,-33.9993055410403,686.627201586811,-171.444000692326,1396.27043186514,84.463219332965,1805.42631013111,-173.582566253619,331.668202130191,17.8603758952391
256.338669294112,12.8682778796242,469.394731971118,58.591194088183,45.2507325543652,-5.98912052206784,1055.23664539124,-84.118839561922,563.684276896827,-22.7109748547516,54.3310458222111,-6.58938315613712,265.976403147263,-18.5666856978372,928.015888033906,-140.620422292309,593.002774249145,-108.800155905459,683.340910666656,88.9823312789227,234.784584300004,-36.9604866253849,684.335585506136,-168.711632285991,1388.98835830507,91.2082991442031,1830.55429523415,-186.221994235693,333.920609427904,17.4400912788093
258.128564776834,9.32233669451716,487.774203166609,45.2316124599842,42.1515013414663,-6.23182147971443,1062.26745964264,-83.784124015838,578.293566731941,-28.6895418181202,50.8549209809061,-7.44531921862225,269.618772931415,-19.9091150084632,939.275237741021,-144.518509766307,603.49745068019,-111.548124507939,689.101883593932,90.485777593372,241.511365841231,-34.166206592334,692.721651414567,-173.027784413065,1415.85317243609,93.6720524646468,1830.59464268464,-174.727277864978,338.307872447101,17.3503511075609
264.446449928021,8.15048205848859,480.16853137156,53.2070548903973,38.8948783200429,-7.6246634468081,1057.12397656238,-88.864571773839,568.943654888057,-25.6100132974417,58.3934175291987,-7.43768465225536,264.614830336168,-18.4224244048095,925.877627452537,-140.834004435591,594.738268810297,-112.932756001775,674.76849129361,82.6504577254322,238.479604157664,-38.4716916527633,686.467050829995,-171.888883232239,1370.39448024804,96.6231783802948,1822.88734589727,-180.599861081702,330.335229527336,17.9084349550546
256.323613147293,15.8208987166642,464.151932095138,61.454478500643,35.6419967238561,-2.66017963483721,1049.82463290139,-76.1368066061964,567.734209632517,-25.0842528374985,49.224363876556,-2.74140969152336,266.710320179786,-19.5753305719172,923.310219378326,-140.273595820373,588.803355896893,-103.058908759992,680.360663168,91.0590597380028,233.941773982418,-35.0540219828786,683.073272151546,-163.903207617601,1394.76354164008,93.1530905984064,1855.18323535529,-192.542784490274,332.839642315146,17.9103767352492
262.099790822469,9.58940854549364,470.912927034861,56.8181944742431,47.7954515967407,-11.2846932897465,1067.43491045954,-86.5770136823971,570.236088448171,-24.9993702694446,49.5143506546045,-4.8702315957156,268.467210220468,-18.6771699951294,934.993508222146,-142.645326711031,605.977640865514,-111.969577030739,685.346996785084,101.454936439824,239.015709564835,-35.2887845208908,686.711397731618,-161.15669337012,1428.20017406891,91.2056326671654,1860.41043020644,-178.641247112583,338.247252582319,17.3202585403291
262.692890018684,10.3063953596062,476.55824378131,51.1576761466508,44.0520460370424,-8.66705235759297,1064.99892602509,-85.193489183614,570.621811225569,-25.773539622466,57.885511974782,-4.56897709740311,265.447401575746,-19.1343242555701,926.865092750438,-140.771984420334,593.762753574757,-103.553236028169,669.598421099135,91.011217673829,240.890715901675,-40.1156958668724,693.927646474231,-168.588142000861,1400.2612777585,86.9408803894085,1876.37603601516,-188.776745434487,332.731718423221,17.097509852424
247.107758647149,20.646614330253,466.121286546954,54.9767734322067,38.6327830497193,-5.43435365640164,1058.86708644952,-83.1381762959285,567.919260403834,-24.3980716885715,59.6455116381399,-9.52781481869369,264.610756706911,-18.1326222094532,924.233024701284,-140.770468139208,589.751799184164,-103.826561756995,670.14991958184,94.0252810772866,235.6314299638,-36.0146272421378,690.38874036735,-168.251422923116,1378.67495939197,103.86589942885,1875.89679633588,-196.002539939796,333.613233006438,17.9278212316277
252.662284234943,19.7692293114591,477.801893798951,48.0346016071337,41.4134095612497,-8.01322514374501,1064.7300414016,-83.4443174099871,567.340652532381,-22.0876747920748,51.4851831656742,-5.68534620398047,266.376945867155,-18.4622468932833,934.246040064413,-141.705926068792,598.551255196161,-112.219536385389,693.484253083724,87.8583639683141,233.664661035528,-34.9315181509774,698.93803605562,-173.141791892068,1427.61365919074,92.03970252919,1868.15456322289,-177.91913748802,339.761022548083,16.4916148076456
256.364282055142,13.2064446463802,466.255207807638,59.686202940522,46.6447703549474,-7.39330198863459,1052.78834473246,-68.841436214482,569.407189204672,-23.7478420259351,48.3268292752521,-3.22962105371415,265.21173282515,-18.3383325605937,931.319279411095,-142.208932223305,598.64219064273,-108.824844238968,684.48706230714,91.2884310003538,235.629397505092,-38.3307768231886,680.90919906508,-165.097953810453,1389.33638265507,99.9500736739965,1842.1433445057,-181.747365544393,332.778165590737,17.1590727370467
259.102723666162,9.87878797633043,470.993247029521,55.6000711254336,38.4279778205057,-0.836303439186413,1043.26621729833,-66.0657705071345,562.723728792703,-22.435531113644,50.8726768510624,-9.5354846629661,263.493070530198,-17.670683251801,929.430433638045,-142.365006112485,594.416596931247,-106.122579125223,685.914334224273,88.2959818966826,227.354453665204,-27.4453513334237,678.519397434168,-163.044854196537,1394.79999406842,84.7690237691292,1872.31572737599,-194.923981058973,334.77470740889,16.6393114065835
258.4960219337,11.211332694882,472.566255903534,53.7513739609232,36.5190690390523,-4.54495564361172,1060.4709751094,-72.4828734053619,571.979861836399,-24.2161103189172,54.8300351874717,-7.84828697414844,267.722726107263,-19.1190752826815,942.898120463375,-145.274437665707,590.612999137765,-109.421183450625,696.431981731884,88.5355117790477,234.284564343248,-34.4103455220729,688.286936118571,-166.464206961113,1427.10502974836,85.3174264734133,1881.48828481121,-206.391040337392,339.019194948946,17.1654020267021
267.046999164539,11.4801832331097,483.73623380086,58.3647416796,50.8545197705064,-10.0157908576419,1075.24221499415,-85.0037290224745,571.337816525404,-23.6148537282067,53.9246530652587,-9.81004084237621,267.984673070428,-19.3037581056563,938.321371226063,-143.216542067147,614.26083597139,-119.713581019513,697.943222565669,86.4746526020742,235.881624237088,-37.5778254895114,673.827850879809,-157.176403733519,1390.79039244635,94.3250731249314,1832.66125951878,-182.479502728543,334.188032588781,16.8861578151479
257.764591771204,13.656041671153,477.899977755192,51.7401574361318,42.8663165028559,-5.03491021871855,1059.10489067206,-76.8500007230282,565.225278285511,-23.7473122409634,48.875846251168,-6.88266356496771,262.81453128,-18.2543680501823,928.899052822125,-141.447446353312,592.504690799117,-107.89371706245,670.142269372331,94.8152199176131,227.695661605819,-32.5712355096173,666.50633080529,-158.133682471828,1387.3849749816,96.7022729066779,1814.6069384971,-177.879190266119,332.882789086838,17.3496223688761
251.320172916468,15.3607075233354,486.550756901538,54.1727816542675,35.6289776441623,-5.04875945972652,1068.82252211909,-78.6343510880275,568.36182909778,-23.7387696968766,59.7156694716572,-12.6097221506371,267.240964875439,-18.4340725849368,938.514879535927,-143.16588911606,595.081035790719,-109.45491853575,696.170228059798,92.8734631097784,227.892789734872,-31.4014162564829,686.321039633961,-167.808319911178,1411.51455873526,93.7349184451079,1851.85358047243,-188.225692492817,336.795760697658,17.2593462662941
263.640482730731,9.81082372233911,481.426147832555,57.4570132636017,41.0043037931495,-4.75285107508731,1080.63698989076,-81.8388580982036,578.53342695146,-25.8021608261128,49.0145553495567,-3.80632458315479,272.17695632317,-19.9262090945288,954.014802436847,-147.424475495147,604.730613839736,-107.891908268021,710.433901770322,91.7191772659047,236.642347386704,-36.0488966890406,689.527360574573,-167.995042010663,1437.78714952631,86.0744262676461,1888.39719521202,-201.658309913431,337.923893221867,16.4827616606267
259.646815498607,13.4180393122409,466.167588868799,59.4686299055677,33.7804868643774,-1.69369120001145,1073.19487032036,-83.5749347990966,569.37984841741,-23.1050593458744,51.0652840637519,-7.18276479647771,266.429283992526,-17.9876127280765,936.714724342418,-141.56537845117,606.204169806967,-115.677153624994,680.338746020984,96.1435637100462,235.189606253097,-38.6716431835051,700.12924309855,-179.310490802949,1412.53579177813,90.0445868289741,1847.13342055544,-179.414715656628,332.319796569786,17.7444216913641
257.998509684963,12.2722753373533,476.476862001435,60.3952500849119,40.6215445053346,-3.45984379358622,1082.75585734595,-82.6648457474168,570.8106426875,-23.4206775838955,53.8710259237573,-7.60567012756901,269.131994480491,-18.6967215963516,942.959345223128,-141.748146631803,612.342448595285,-117.397444982472,704.378116795956,85.9985002470981,232.618983227092,-33.2497508319787,706.63396023659,-173.241924950948,1428.72996583198,90.7318611825085,1877.38135702819,-191.046919609318,335.48583427067,17.6702767564149
267.824637541513,7.48885073818657,486.992749232291,61.0121194700119,45.4356550287435,-10.4445634861522,1086.40519965018,-79.1154496972364,581.309887324761,-25.4448738957873,60.3297216298803,-8.75088886386938,274.08579661731,-20.6509522090661,956.417673330132,-146.571322646568,608.392826742043,-112.228424920943,722.21617415495,87.7508838762803,234.543595717336,-31.9201664758174,693.13751521336,-166.911304012593,1458.44880686733,90.1135809805255,1905.22242970556,-197.989052112643,340.767062901221,16.863003114329
249.340858336474,21.7184323683,493.462272049193,53.7308725467738,42.415445979708,-6.48700089493383,1085.84301053972,-89.091682233269,576.227388093951,-23.7350873777609,57.5157321761367,-8.74977579249865,269.864836330365,-19.1193182257642,944.484257399413,-142.440299927015,599.339420542022,-113.847195873758,687.60081337735,98.9619341427402,239.487610355688,-35.713465567388,712.978631325164,-183.125740073962,1419.73268857746,91.5940077075361,1858.90162576783,-178.717983624663,333.375941184432,17.2787085561706
255.839340101279,12.5486675639134,491.797131409888,57.6134078817068,40.5081084664154,-3.74041227538301,1088.4323122627,-82.5656971010775,579.916977615349,-25.5673515650618,49.0148333095195,-3.95397031478033,273.790098288769,-19.9160619263771,951.787855382248,-148.131725617075,601.841257096237,-108.206053099207,720.141726716012,84.0088593849271,235.127884554075,-32.8783084573339,706.371325701848,-176.102831691159,1437.75149231041,86.6672177437114,1855.77703729378,-178.570128524174,336.230210495148,17.468361999329
267.574924477058,8.31164236346621,497.253129849213,54.3325143848514,40.903698776668,-6.1348214990302,1113.14818665668,-89.1515935196498,590.244032893546,-28.3993118139011,53.9624235237169,-4.8329856106718,279.148344522364,-21.5636476533176,963.302825749215,-148.899764679043,604.504062594095,-109.551546857041,742.611488531823,83.22404825236,264.482907978361,-50.324374096454,710.41621368393,-175.700729910326,1489.00430751004,81.2365243512706,1879.52330335951,-184.011826497829,341.989052284912,16.4018442532483
262.779379772885,12.3171470232517,509.35148796287,44.7884376132502,40.0048608724764,-6.54661354490466,1124.51161201472,-89.9650718031196,590.895241554093,-26.5707037700302,56.4297176461799,-8.61123475377575,281.373751579575,-22.0432748305677,959.714282788932,-147.612230961892,606.509660796883,-113.059726101291,727.405856656424,80.7730846518038,251.581259171679,-43.5643388171225,696.697520924309,-172.526388684825,1436.95791265677,100.078552250105,1879.81327892577,-185.921049213354,336.362450254172,16.6543026350197
266.622972542251,4.75564861542572,492.735764687251,57.21876157205,27.9858786172742,1.26451905237461,1101.1565690872,-91.2331349506961,594.153098575543,-30.0579654932697,58.0570046041426,-8.98048859092055,276.922621301043,-19.8291256576509,950.991318736762,-146.079994392492,606.834558115592,-111.863154066235,718.981156837105,92.2353203426678,245.868219272409,-38.2346939225089,695.909562839276,-171.513628649583,1449.05060503879,92.9911649617544,1860.99756803247,-186.047471610099,334.965601887176,17.7206922236077
272.213976587604,5.13037829396026,500.675298838332,52.2616868006831,40.969368725791,-8.98198016410865,1124.22409003897,-95.1851991312189,599.020332593749,-28.1057782200186,55.0680228929446,-6.44795830899155,282.299538863912,-21.8102553320251,959.768681835102,-147.445963279119,610.338687041505,-109.635463586847,738.056938986242,82.2170030944036,240.427813424005,-36.4135503807303,714.413821199647,-180.678875182065,1474.17649477965,81.5376125089722,1878.39801492054,-194.397054005705,340.524936795829,16.9148781148938
254.076840408748,16.4197384565889,510.270123484011,50.4089147293417,37.8644824930156,-3.31624216159715,1131.41695447849,-88.6280385271209,608.602366753642,-29.2875695289369,63.3178814898868,-13.8596615321459,287.831117287009,-22.8604892806989,970.923702724622,-149.764357120255,615.67413615564,-113.202136164125,786.772653042922,71.1264463257112,253.996054676892,-36.3301699474245,723.19293754391,-182.945021184932,1508.50565416509,82.0037914177337,1884.87626706708,-183.566518804463,347.383111658526,15.4039631828166
259.404440374529,13.6278790852397,500.550613111211,58.4241201256543,46.5668406889391,-6.99005439464032,1135.29572245702,-92.9755514776147,608.184123135304,-30.5971987967628,56.8626898974966,-9.33221208849007,284.692454124172,-22.6260066703922,956.2985410171,-147.398513304904,608.492768317185,-112.51067061473,728.578947200142,95.8875221506218,244.783361881914,-37.3598629668988,703.532001045246,-178.222313951608,1463.50363675706,90.568259950773,1874.26103841642,-190.166423803183,336.67913474749,17.0820713292088
265.271420915405,12.6563460132755,518.15738149705,43.1689588968453,34.7748442170302,-0.788361597232598,1148.04821269017,-99.78665793816,609.932433527865,-31.1849751820119,56.3459200274114,-10.3775941383453,285.238215223772,-21.8196616737394,953.417976533559,-144.825003869225,609.683856651979,-115.821550368423,743.830901570269,88.7123770698963,244.045049797131,-37.6059439339424,696.190862118523,-172.660412235512,1494.2317796896,78.5589197550685,1878.44956452285,-192.27522479989,340.768692676174,16.8627502260143
266.12767810282,9.78775472202216,505.340418118619,56.1848604621773,35.4285851274952,-3.09295153365074,1146.43401980545,-97.4810770443851,618.126415073142,-34.2090286995072,61.0008870665723,-5.99532054531712,289.995445393942,-24.2490995901116,969.037228741359,-147.206575727045,613.361224121486,-115.658238894883,777.067447247247,79.7933846328174,259.074711044686,-43.374559808378,708.669206021362,-173.027343149108,1539.61062953676,71.8296611779083,1913.78200442472,-199.713166782673,345.853506520964,16.3183758035836
262.110350219491,15.3273017870932,524.692340645329,48.4487685151954,42.4898059978412,-3.50063077599321,1172.3508213802,-106.545669866002,623.719477308028,-33.874232681775,58.3183992982828,-8.76780964399825,292.530341843237,-24.4161146432429,977.981327429212,-150.928697972053,619.885581622489,-119.748808253139,768.326098505923,84.0284396158056,255.630428947651,-41.004471773634,712.106199912748,-176.218377586706,1526.82925116885,72.5369223510625,1929.34019542158,-191.067989144087,344.277904635789,15.2409562181563
261.579643660124,16.6254031074171,533.785447820181,41.2609289185593,39.5825448084379,-2.93635884496002,1144.96999549857,-93.8897034715647,617.450774223899,-34.3980626848993,55.2248719587728,-6.02570016711256,289.475073716957,-23.5735888503865,965.453449385047,-149.320148645026,613.740725245166,-114.286262334079,762.014098018341,88.297652232625,256.566429032622,-44.999745484655,711.496430690527,-178.588456815834,1537.41464347969,71.2067978044165,1922.60047216986,-189.234145835527,341.989280560592,16.8191970100291
262.230312547241,12.2691095505143,523.840426616348,49.595695214281,45.5867221707612,-7.224093514753,1167.56988384864,-107.855001566426,620.534193956572,-33.5224380101646,57.4547309645989,-8.61541871337118,290.799995687426,-23.1447223262635,970.39715659602,-150.028595486584,619.861425361041,-113.478431009764,774.75487241373,88.0294288908141,262.851086616782,-46.3750697737509,716.944471691574,-176.491741427256,1546.90976089679,79.0475505877033,1966.15227408769,-218.492076595097,347.666262096755,15.2481453737708
272.109860203638,8.56553506875919,532.466696727065,43.9953892348101,45.2336040476766,-9.65388522185768,1182.4760793888,-96.6227277622672,630.567679016739,-36.0782731320785,68.2827211246287,-15.6358112838182,298.061804880639,-25.7207994331094,986.945418555008,-153.42043947361,618.147447829288,-114.209189731751,813.681494173321,73.186433252492,256.392991210704,-36.203006002259,732.533877444076,-186.172058501696,1583.5097815579,66.3994814915495,1950.6623351128,-204.356985522949,351.680930392656,14.9893953957242
265.431495842716,10.4095347459485,529.479740675837,39.3382148069102,42.1711957625776,-6.81335499379012,1155.36852569094,-97.9329125637053,624.172277570352,-36.5159395945308,61.3219209372171,-12.2566401329966,293.39176318738,-25.2896310846269,971.365832855861,-151.054095593598,613.741884152158,-110.853339628342,783.058669854712,80.4062602286724,249.126115277498,-36.4153426441728,714.062364113261,-176.909820731552,1553.36578093486,72.4649733621262,1935.10183591224,-201.583181994155,347.639635191402,14.68495921326
271.732941790275,11.6476946005032,527.490284821313,48.4634520920672,42.0106155829395,-7.26088598573466,1192.7601995754,-117.831404388767,628.656243932331,-37.3082688748192,56.4587102519089,-9.01698155303547,295.263429841559,-25.4997863943919,979.105190238849,-152.74959073257,621.768770201097,-117.292015572071,790.527579409775,77.062591227822,264.446043069149,-41.9907897346626,703.395562480951,-171.13832464318,1582.43512873096,61.6567526453035,1943.36542371205,-201.5296462453,351.704524570876,14.0504389017427
264.156440145288,11.3157062168811,538.899248305224,44.0569257537481,36.7371141372309,-4.85116427944601,1213.78043899842,-119.685936363537,636.104460277267,-39.1613290990657,47.5625414269674,-2.5269747601278,301.63886085394,-26.9936717669833,994.278027802832,-155.390112922886,623.193963473836,-116.12292310117,822.035387170523,76.6138409984648,264.900625855353,-43.4586900242501,721.177554939415,-178.646326290098,1605.75584021644,62.2396371283377,1962.76336611138,-210.716245475129,356.73478178467,13.6788038747522
264.935198014285,11.9862572605741,536.344121363656,44.3456723440413,36.4016604248685,-3.77466781124204,1174.52989375436,-107.703781760014,625.54688274274,-35.0176498901604,62.2157732136377,-13.1034137750973,297.175588967245,-26.8395471483956,980.421909801907,-152.174412759371,620.86486365746,-112.829630986924,800.248571919627,70.2886160691369,250.174529637048,-37.4718456416082,702.501391380514,-169.101578009374,1552.01716573185,68.904965782662,1901.04586405323,-194.795515905011,348.614436075116,14.245116529821
262.237446472257,15.1669518510301,515.44920063754,51.6866853094563,36.1603242952614,-2.13922368987056,1172.83300593747,-105.048037402617,627.266545286987,-37.2075418370274,57.7409405180601,-10.0582333084727,296.858481190924,-26.443010595384,980.030166649523,-151.037177920747,621.593613599917,-116.681457867848,813.069081319963,75.7222082559567,252.750113598032,-34.8719944564444,706.158135776504,-177.103914068983,1554.71602738071,69.4813524545404,1899.75352408989,-195.401050200167,351.591517326846,13.9167313442159
265.354183162955,8.69823207206571,539.378825456355,40.2907624678748,33.7353882026667,-1.53432272585248,1201.45098774579,-111.300082227697,630.455120449048,-37.2299782169422,51.6920680993256,-3.47194819385729,302.694586734132,-28.4031293740594,995.085438651593,-157.721625417824,621.955748907344,-117.654448800341,828.828318100932,74.2871832752299,263.08550651512,-40.8724467990477,704.028984680035,-171.362696989067,1605.90896723687,45.9865326305718,1922.73034000801,-202.458699927804,355.612277869014,13.2199527623215
265.841700975052,8.53404580061269,540.19365709304,38.6342489836912,34.8923554190238,-3.64593427334815,1192.02079793388,-116.438986882321,624.305936467335,-36.4882386298338,57.4168000023608,-7.10156574823035,296.2862078245,-25.8347171078399,982.697779671115,-154.289675917722,605.749405499699,-111.520357589207,800.081604658935,70.3520179424667,262.819402399163,-43.8861539878301,709.343889944738,-182.651852620657,1551.00173389186,56.5635883501549,1871.15370102023,-176.557638301154,347.157214312355,14.2043836924572
