871.757703771745,150.125995967104,-0.0585518228920905,2.99723935755716,3.17646388459219,1.27600154479655,12.4683899771207,-1.48501486010301,288.757307333349,-27.7147980016191,15.5832925398995,-3.09316932222036,107.121829568341,-9.45687660210594,307.819419067042,-49.7460759155804,115.675099950587,-22.6260053257182,242.82805409795,64.1863313633847,71.6471391374512,2.54606638666772,191.911767349053,-28.0344633620212,159.971046640026,-5.90890010125514,58.7093638359282,-4.65011057449418,171.316031639667,-34.2994130063341
879.949919598188,141.153840393019,2.16490923342023,1.19046267533866,6.55000895893082,-0.790559972187903,13.7659647602517,-2.80025872306393,266.91506508984,-16.9044009600708,12.0554515975824,0.479143657637571,110.760038994463,-13.4323576714198,303.516683156867,-41.2515606673322,116.313508547784,-18.6919343153206,239.474673017924,72.2535110924587,78.4162402697581,-6.05252570074731,190.717111959368,-29.2970536152049,162.71771778609,-5.73089500760167,62.0913844245898,-5.7781669290101,188.409499925621,-41.8555118499509
884.038980626269,145.953896137219,-0.482621541988243,3.27471839222573,3.33479924262718,-0.330649779265807,16.372365020455,-1.05326199530237,283.005305326163,-26.0492522096785,7.94757256839598,2.12289371942538,107.447374940609,-5.31902557321525,316.815234289531,-53.0145004539745,116.263722691271,-20.7088641106246,248.392270689044,68.30418607706,79.7897796197186,-7.19606283745931,188.908812438266,-32.3107766717673,164.614009408874,-7.64737098255231,51.7644121201185,-1.03990814485461,188.811809660977,-38.7842237020171
875.388854776863,134.000023493667,-1.60956820353219,6.56713236995735,5.81123291099826,-0.99293782471166,26.5869354930458,-2.32920617129006,277.35631763181,-23.0960393681872,4.98240935301197,4.0112113890655,113.753226977755,-14.8951185177581,315.002796297301,-53.9395208288935,121.409345860027,-20.3041360945153,228.513489264865,74.3985564551818,74.366667382916,-1.92504093938131,178.238593975713,-23.7855856934146,147.101939976651,0.996827245902058,58.4539710980635,-6.44950443869663,172.408723029347,-29.8722044205663
866.848015351791,142.895301435541,0.95956969512036,2.7286235582724,1.802898985022,2.78730580508261,30.8254891689336,-7.67951404290477,290.600975078088,-28.2734078564365,14.3325284122728,-2.28066634799189,108.129918078222,-8.40596317625806,310.434221775706,-46.2996283575732,118.573541956346,-21.5135736610085,235.417986311843,67.7889365182341,77.6929161649562,-4.62338738898709,185.287135032264,-30.8069368185779,162.324627485536,-11.9518704122452,43.5859310963023,5.31271264157617,180.968731129191,-36.2770295539463
877.328196174288,148.322704184304,1.06242734976007,1.98005413042817,0.20425477207842,4.92321595628742,23.0763325892864,-3.30192663834887,293.316211645958,-33.4988886182815,18.1197441684191,-3.0179457097527,113.39562164748,-14.4018270872565,302.857839512335,-45.2212653626761,116.406884267567,-18.2368020830172,254.930878324742,64.4659171340876,73.6408701600459,-2.41468639860695,184.639272131593,-23.4380777665315,147.719173524181,-0.96782499869583,56.4601374933018,-4.1414460055761,186.986622557091,-30.3745856760645
872.033925585155,136.432033970918,4.32011356077236,-0.470159939884911,2.76823660534379,2.0476986848507,7.06044333442477,4.28078742933717,286.192577909759,-31.2750871612704,14.9026650985733,-3.28707807154224,107.154606565631,-10.2877015908003,306.663287559211,-44.322688428888,116.10737818929,-20.3698575496781,228.431797731026,69.2442536539572,82.0727287648081,-7.35305004630732,187.65990601522,-28.4566421067794,157.800283090398,-3.96946945541209,67.2432511001705,-9.65620920795635,177.874665620873,-46.0102404725835
868.945026584982,140.789618316786,0.0553168004085736,3.70102126043371,-0.216270879740255,3.15040365307587,14.5362979580192,0.207053681751492,283.676986481274,-24.8801536543441,21.2134315327848,-6.20920770705232,118.942478834668,-16.5304330287193,308.081772544058,-51.9105193700357,117.991378193934,-21.4231852528853,235.234969816658,71.9237009975218,76.7398856000545,1.07004086505595,175.305570527683,-23.9211607674958,142.607543591297,0.218606367568953,57.4153215275778,-1.79389390218371,174.507062390929,-35.6027678551881
877.513101738787,144.535103329348,5.16479623143165,0.570981120533614,6.72996811406249,-0.365612348405997,20.3364578139711,-3.62809392306975,279.759635709418,-19.2498138347584,12.7882179787584,-0.321910246511913,107.218754685946,-7.57670382076342,314.849020889627,-53.568964461909,115.31933041079,-19.569252850859,233.559419001446,77.3594022356826,81.5536779338068,-9.57664189197164,190.866881899677,-30.7445012453724,160.99833420908,-7.61261842361842,66.3427129922676,-6.06633987194016,182.15200117822,-33.0795624729671
858.94397794685,147.109270099399,3.72174385757649,-0.0306615522808726,2.22570177802286,3.68062966548883,23.4090624968508,-2.63875440273648,285.193390000078,-30.499592391498,17.5678608092278,-5.14539861740503,103.663120801101,-6.76099501788557,316.148705054688,-51.18970097237,114.935537885981,-21.6968894174255,228.145800062518,70.6676241832987,73.3996088154298,-4.65694267027865,183.140344829625,-28.3181302790734,164.568205963603,-10.9978202709092,54.0402704245967,-4.88797642267101,184.103892706561,-36.7089906657979
884.245477668286,129.665057867627,1.88537976796129,2.20122182030562,-0.858162651172136,4.26029837928545,9.06146068879173,2.74222058607113,274.525463943723,-20.7907333698917,16.3239826807455,-4.68345197658688,120.248387823181,-9.25711167623876,311.86139430158,-53.245824804206,122.024040944181,-23.8242760453766,226.712942144996,65.758634454994,75.7051323199586,-5.93815737499199,175.063614042479,-19.3116317318408,157.303782139029,-3.37619943359189,58.1050362666265,0.0478378187858428,185.635591046622,-43.8591297481473
876.905288794749,137.614824734868,9.73762009905884,-2.32295760982166,1.48343367911786,4.77698470436418,14.5718028758328,1.0992604451269,278.084338956502,-23.9370968686751,12.4783863568611,2.27398514029616,114.416877688804,-10.9510103710479,310.42186343832,-52.1077190787063,116.709859690529,-21.9267386554812,236.227927945867,73.6215707619792,80.8518495746237,-2.12637650846554,187.642620695704,-25.616694858409,151.283411690131,-2.10843401073908,61.0835043864297,-5.91790397415128,185.463014025126,-38.7356131766264
873.126836506289,143.390719202425,2.69584832441108,1.50463006201226,-1.26868844123041,3.4540984683371,22.8130248924675,-2.4249426918206,279.885066181449,-26.5864195426467,20.199688590094,-4.14516843812485,112.780146587906,-8.5232414273011,312.363059006734,-53.6874478851469,118.895682971674,-25.9883944561727,234.948476576981,64.4759974997081,68.3230364778681,0.826409020298664,179.201621722579,-21.7371835200019,150.291990006663,-3.46187487735935,62.1517187731041,-10.9575392144656,191.102919648868,-40.2189525454935
869.679271596535,145.117400076786,0.943412635277391,3.64182089156429,2.04650195397384,2.29059271697023,22.0393656580804,-3.83288157264426,269.299068232598,-21.3639552559128,10.7458570511946,-1.63366613974995,103.547675878723,-6.33285159707945,315.772003623747,-55.5389103019133,109.703344045552,-19.6996094154998,234.135589327608,64.3751643958566,77.8233585823384,-2.93140188522821,190.9369691865,-30.3142475886483,148.277146915248,-1.85127845381779,56.4343818390713,-5.76450412990531,175.169713614792,-31.5355977566441
890.201610324377,128.921110424179,8.7096538398689,0.567814685590818,6.75940755222669,0.67837509211135,14.3763594147288,-1.89492878414881,287.78356681452,-26.4400527429022,9.59251777292916,2.67630121669481,102.567585127642,-4.6038234961081,298.592645321342,-41.9266081519535,121.914106968579,-24.2151646460505,240.200862502693,60.9813692295936,74.4465680214499,-3.72735429932336,180.84637723257,-27.0741525723638,147.399803923197,-0.766600161811537,65.2703002193344,-11.0806139032199,189.867470786061,-38.3194531297745
869.65058033555,150.635623743259,4.45617665592739,3.35298108899463,0.886367817711593,7.40636238898496,24.2138663401423,-7.53202105807638,277.869447527235,-30.7193108244279,12.2081798619563,0.187053290153404,105.351488148171,-4.11200853787689,318.5880323796,-54.0950180349991,118.307878712607,-20.7236943006914,236.566156992028,68.5274589499745,76.3965109430773,-3.23093682405098,182.334636284806,-22.2315979390902,150.970952929125,-7.30733134655752,52.3260106860145,-3.90501890726903,170.071993981512,-31.7428967275424
859.112045735839,146.523203187635,6.07069332948572,-0.289027340104936,1.04742685376847,4.68932050896328,13.0215543250593,1.76158792709375,266.281751076892,-21.2548683585071,15.8836257802968,-1.93719125234541,111.021688776344,-13.8305991886247,307.623544442473,-52.2277542293109,119.2095645912,-20.4252894019235,221.679915745391,71.7914145353657,71.5634185211283,2.07345382293228,181.917422201921,-28.5929719169851,136.89472406052,4.20001846198081,54.2831460385945,-0.613708054616826,186.280464486954,-38.626972630743
870.746410637892,141.681100264849,8.7038565426816,2.05234205940035,2.08768425863028,1.36813772570079,28.1969228234922,-5.52997467356704,291.24952649209,-39.6261536534006,11.3836933552421,1.09662930108868,110.29308072911,-10.4975752392808,303.504185908389,-50.0113659446148,116.33499545199,-19.6588662140881,226.454976803552,70.4791739702299,79.6694297231732,-7.5439909440529,187.572419504892,-31.3230490820676,148.75876644526,-0.410010742357637,56.8197414264158,-2.40704000059786,179.907772782048,-32.8912413194669
884.196419715378,137.521691229134,4.73658335185845,-0.0875238233625722,-0.797358863138991,3.71004043707928,28.0439477492235,-5.41225535930578,286.494533017902,-33.0509520164875,23.0070007487824,-5.31496946041248,104.543746956804,-10.8030915712733,306.06474941707,-49.911233585682,119.524914827795,-21.1407477755751,229.457400735751,74.5058301410274,75.3888893259744,-5.04526748161011,187.458135028992,-29.2082689041304,147.719335544797,-2.7010524249332,63.311793000049,-3.32189404925733,191.002397795632,-40.0447376255503
854.405024471923,140.071791674038,-1.25437490530471,4.21359417732481,3.8242794935799,2.03436453571711,18.8603909317322,-3.69750117533167,266.046242657823,-22.9314643797553,23.2588092130236,-3.82690250615656,111.066012299395,-10.2524203111285,300.735671807961,-45.7739300648835,117.770569515687,-21.4546441647843,221.074709854477,68.1603534108853,80.9927728563759,-6.89809207657849,190.463538599764,-34.5581340048599,146.333797344975,-2.91576101906396,56.1812873273177,-6.23738672469492,187.438573021324,-39.5075034715621
867.287244590093,143.819676520718,-0.0113241563448662,1.79451968523563,7.02806945306851,0.180300285093037,24.7903274855339,-5.36961589038014,266.236486248916,-20.3202993115829,15.6769048995964,-3.50532109248525,113.51117295766,-11.3981349812591,292.956834309015,-47.9818848708496,109.500569770423,-16.8379082664906,225.719916373453,66.2433195381749,81.2680844209702,-6.30733784467836,182.549324219367,-27.2316969118694,142.808639499371,-2.58333907348416,57.761867335199,-5.94827882644999,176.966926798119,-33.2391587578268
870.457657031219,143.034183393766,-1.0813966490252,4.15832792301216,-2.25517330008832,3.96917040075717,16.0197886944516,-0.98620452714343,287.480758002749,-32.4388674171342,13.0810042360689,-2.16820380606154,113.750673016104,-13.3466647477634,302.266018203831,-47.2886240169365,113.46160663453,-15.3512355378221,239.104851118866,65.3659819920086,78.1978626315346,-7.88851466336108,178.181400252418,-22.2455217829616,149.330517054451,1.07924350997,61.8519767411663,-4.48555407012702,175.114019539216,-29.8125634414467
859.315900463048,149.423572452291,-1.71954990829497,6.35325777553558,2.49059196903596,4.21673175898529,19.5069879822716,-6.24585107799531,272.649550279089,-28.1503995842002,27.8813737610774,-9.56830872290627,96.2532784312732,-1.29341261255733,298.982701576209,-45.7186767370383,119.417822635009,-20.5771462464415,231.751777589099,57.911468453304,70.841000388373,-0.782572996261808,179.335273197095,-23.286609544335,149.341422532287,-8.3704750795965,51.3120483594033,-2.20175696286111,173.548444719126,-30.9911102540727
877.064188206713,129.624854640903,-2.45049300596347,5.18520249671523,0.292827101874058,2.57623053674765,14.2259782294291,-2.38523982697108,262.227953157655,-17.0006249619356,15.0507701399766,1.28980149050427,99.5782930788737,-4.68524705636492,306.314488836611,-52.0663434995489,120.949445705475,-29.4179157304,223.589471808202,63.0500407580888,71.9653289268,0.623849689169634,173.83985776449,-27.1235681282434,151.355296321969,-9.66496372116097,63.5611054646408,-14.0521413669518,181.840322374937,-39.6083487979656
883.456347439763,126.947911972132,2.66720957869727,1.39458976985568,2.80504331216863,0.60136579761226,12.675549308727,2.54500010386958,276.278774857477,-24.5686406363605,14.6766191608221,-1.21225060529931,105.285480578037,-6.77833068371696,299.380980546458,-47.3520651537949,115.299733628345,-21.0963266921582,227.679232589246,68.7298398084293,64.9486407462408,1.91881413672317,186.528458634574,-27.609643586946,138.015278512235,2.48409745118322,58.1195606281462,-4.38070336435007,173.456760286773,-28.0621758397603
873.301922629418,136.725151613616,4.18959901680198,1.61820045611254,3.48556993828041,1.31269951806082,21.7870227522824,-3.36777457287896,263.451097496468,-19.8781521716017,13.4237003741808,0.58813357083119,102.605688926047,-5.61863219883885,290.607004805429,-42.0648621251177,109.495439738647,-17.7801242508408,217.203169390073,65.7845751048291,79.4302634409126,-9.73976526289349,183.966012780844,-29.4317101175341,145.971802399617,0.0876243304865346,57.2578400736472,-3.52758967971628,179.194487533351,-39.531393535963
857.903739808645,134.004448343619,1.6889243609949,2.57260846716739,5.79005705574331,-0.893425156520534,18.2812278045204,-5.6066023991827,269.82015331699,-23.9109871675366,19.2644488008713,-2.45699943097503,102.39997554289,-8.85594502615923,296.625287433208,-54.9825730964724,114.032776984843,-17.0276324148005,217.583267334361,69.4079932017545,74.5317876138557,-5.06984226732895,178.083932061938,-24.7573870948142,154.822063311392,-5.91484014176247,52.7084981801951,-4.98430003014985,168.134032638082,-33.8434508059434
868.825949100318,138.924747787621,10.3666281989366,-1.68138474550139,-3.9493999055842,6.68835150968082,23.7760214325889,-3.94463057103843,267.466695923355,-20.1234401594895,6.71159575855963,1.45047909423675,110.056538315925,-11.574567009977,291.295055541799,-46.9730202300752,113.648322017938,-21.0044258240125,216.210955026613,71.7083389076137,73.6182603206399,1.95969555168884,160.461194234019,-14.9075790599631,144.95616098581,2.49623895151527,54.6384210958335,-3.33963417101448,181.474586453334,-34.6572508854856
873.638197085048,138.085615535471,9.82930311541,-2.3709482981515,0.152847225206411,1.07200204799074,21.7798491521826,-5.47150469940103,266.602176365069,-23.4816767474106,15.1390770918082,-2.88360552125879,107.468149666184,-11.674918317614,292.33350017432,-46.53910452525,121.135971118431,-28.8713515053862,220.668350324634,66.957296811323,73.4897722010141,-0.819258459947787,178.918040213039,-27.4506432948297,135.769272683887,4.27863056127446,59.9286649863073,-7.07410974702428,179.09102665187,-37.8990773638978
840.220667201348,146.424082786947,1.62498861371063,4.73205504938501,0.92310672638994,0.589306121290608,20.9320816894049,-5.60506008381469,267.17948768937,-21.9677596133628,17.8114092661842,-0.324795551572997,105.705522024266,-12.0290210848419,296.05438812123,-47.7015931746235,111.963959992823,-20.3811522521947,230.705054988687,60.9212469515486,67.4965196112561,2.48597008108832,172.926171705481,-24.3360466423505,139.091881641436,4.19122929338449,53.8711767819659,-7.20279116401461,176.61313865919,-38.512336552953
853.443716107367,145.214557780279,-1.75833283753747,4.91883937381859,4.55307190072714,2.30639264467187,20.3947624100815,-2.84622545288992,263.131152673908,-21.0230349457218,4.35823568574618,7.88740097774122,106.661374297632,-8.53380222581919,294.779997177685,-43.9355481290452,114.33637028856,-20.7206122945813,224.587502556258,64.6416525078376,70.1738104586143,-3.29893849545143,175.236477892417,-24.8020434987713,132.912352938498,4.3652651513759,48.7234487854802,1.75400511498997,173.59642318821,-33.9648157232194
868.159992621758,141.201746203469,0.225167080852295,0.306120802129606,8.19728648784493,-0.374505331435678,30.7190671046675,-8.69523347220611,285.125404747826,-32.1412166060249,14.845421839196,-0.898296702413791,109.191889427938,-7.93241857396771,304.089327394584,-52.3456241599156,114.509367800677,-22.134717088749,228.58848124102,64.0466469980634,73.2264963224314,-0.613259809519753,182.239215941371,-23.3583602652074,146.892821491011,-1.33086862136691,56.9724449091714,-6.42283172546304,173.612083325656,-29.5464691938149
852.77577203135,136.157689874741,6.67804890203172,-1.43791539243413,2.01372515102877,1.27394638940332,23.046858583667,-3.94923080556472,268.058725721195,-25.4216266149432,21.7965648646,-6.29860085062877,101.337414487695,-2.30699869263614,282.081896860875,-42.366594979876,111.730778065998,-20.8835831759785,212.019817936254,67.3901878471192,78.1639246506275,-5.5570255903809,165.269532479116,-16.6882530653553,140.179011699603,-0.96210185631209,50.4039297517691,-1.37262007620865,181.146247870453,-37.1074042123398
850.572860174918,146.93423925177,2.53199273414913,2.61110680680888,3.40178079287391,1.89186854968278,11.837409794849,1.90656223273916,271.960350828207,-30.239211394182,16.8956402424524,-1.74813545999103,99.1931547063781,-0.8082899046315,299.412398371269,-50.8255791887849,106.355082766964,-19.9285491250094,215.448544413272,73.6876580970618,72.8135620216813,-2.64227143523812,178.881231759553,-28.5879517202959,133.498318849794,3.36403213379877,53.133631083383,-0.915894131835375,184.154264115904,-39.7786602828283
878.876611102259,140.503345979961,7.35377129975743,2.3733456622523,6.04118997899442,-0.831269452869838,24.6684394344599,-7.82913143289908,269.76409144948,-26.2544862178724,17.7378689400478,-1.50538519878706,102.474644745574,-3.92655325951121,298.506268383392,-48.7498552216428,109.427689183881,-18.3311112561801,222.748341724719,70.4048369315439,72.7369939018105,-1.25478258611496,177.03385074039,-23.9394399084678,145.340947499237,-3.59154114192981,57.8687658607137,-2.68561053739395,184.975243934569,-34.0702662669102
863.28152278951,138.531489531469,4.14516182530598,0.329180406337356,-2.30228402442013,5.3718482885353,18.2820334312695,-4.93825618661413,266.363865767956,-24.1867891883419,16.3804802592744,-1.1605387547403,100.418348088773,-6.52511827965304,283.585031504706,-37.0668461631833,112.79909653147,-21.1146109098843,225.883769267423,54.5075721990026,70.2466050442922,-2.02070191613216,172.292260719186,-19.2674403480067,140.409356785405,-3.28464011451542,54.2646060876869,-1.37443755943755,175.705052234937,-35.5320678667487
855.24039513026,141.806997964769,3.79521483676119,-0.251803087071798,10.8560815974206,-3.00138868422129,20.277290189044,-5.27949158362781,271.034274493408,-24.5010550159362,13.2679718671916,-0.417474244084137,98.8350197983553,-6.80657942916954,299.887954694976,-49.1464509426106,109.753064238124,-18.2253111070626,215.76820153778,72.1490572914183,67.9560130075089,-0.609404502451026,174.489881831847,-24.1426526099904,152.246747349729,-4.06169042792248,59.8758177020659,-7.96451078214485,179.023477889415,-38.2733070661178
867.874687352365,140.337511777091,-1.37259558475004,3.18937657086856,3.37108016143312,0.0174664414034551,28.0652165424816,-7.39844758769863,279.435657306401,-29.3561757284393,15.9301049083044,-1.69366829810767,104.874623061993,-7.58806325035813,290.014838430495,-41.8417482149611,109.203948933065,-19.5499581883964,231.245054694444,68.7246796537263,68.4042776244326,0.759300055912236,184.216481291469,-28.305016329321,139.990114991329,0.984008338482875,58.1027705946547,-5.23592943634246,184.596242565663,-40.3020449751346
860.946289604653,136.964937192044,3.7446381059883,0.309791418101957,4.65353087857793,-1.07910388004148,16.6189770184661,-0.0818412134472225,273.236780715881,-29.2278502473859,8.46398362155892,4.51287795822954,106.621882680732,-10.7832506741917,298.670854856406,-52.5529042342067,113.747229612634,-20.7446455280753,215.546048220755,66.7036246967793,71.9797906708365,1.33604449553766,175.853624529186,-24.8334578881271,134.446715452496,2.87276496154996,62.2486523624693,-11.2632204517397,171.76398389624,-37.3279648566328
869.755914040471,132.083602306843,1.26133492408089,0.784196272880303,3.76260098753908,-0.577272505490536,28.0981398976063,-5.37681132162976,267.132912228454,-21.8257098931117,7.59644330041936,-0.945680916089406,100.006143740995,-4.36237951672763,292.720487629972,-46.3032659598924,116.907314583467,-25.2929003837722,217.578000857295,72.5156008712555,65.3067052692851,0.15815183761489,179.442308732884,-26.8486754282277,140.650302029545,0.355887354474817,57.4635370748642,-5.14026936315543,188.1237079947,-42.4161366881628
873.564221226197,143.20805670101,0.255125000091687,3.04406447506316,4.46190195331784,0.564149333275138,20.3925025382621,-5.00289180505935,276.854752879602,-28.4134780404581,15.5878570518831,-3.10988057297096,100.113306949087,-10.3025584737305,302.600686064315,-55.3700700400326,112.516822444314,-16.8514556236292,226.012245493159,72.2204768318045,78.0321554423086,-4.29338077524905,181.945323431147,-23.5508278070934,141.87068603903,-1.21834940919383,60.1385240896528,-6.0245778974041,184.460988496718,-39.5862698433745
862.293618778889,148.455361530295,1.48066820748791,2.47935250617244,0.0415790273756765,4.14720727289757,23.6251414363997,-3.56556184137036,273.467647258823,-24.5686330017855,12.8287595444903,0.724392663580252,101.75860739143,-4.1658780990052,305.568368846663,-49.4127637320302,118.110756526666,-19.7292045849596,234.685734969078,63.16039717625,82.8421520771629,-9.82267788119379,181.280450012458,-22.637054254398,147.846362547336,-4.53292740092661,64.0464255045704,-8.02685706493329,178.408952965789,-38.5474309175212
860.145736115875,145.174083977357,1.58005198805504,3.59667582099894,3.28514948926649,-0.237687139907593,21.3545642399421,-6.52189353062437,257.955423203484,-17.1943482123518,13.1569199454535,-0.638263902195183,111.984874173506,-17.6838613462236,297.219953378899,-46.2593704256616,118.717860464071,-26.1169144316712,218.513856302838,70.7900666789956,74.478068651931,-2.9785146691283,180.237166274789,-25.7606564052079,141.494723512056,1.90741762436724,56.3149615586027,-2.8505689851675,174.769423088687,-36.6432684879985
877.409326226444,134.939439125608,5.71242484417794,0.828088403502996,-1.11315589908989,5.27530538673828,16.7417096284137,-5.55483035313118,269.888436110443,-25.5454408801677,18.8278463290687,-2.44425619627694,107.754715570655,-8.2979601158375,286.874842968884,-42.8114845682589,113.473873185616,-20.1687811851752,213.532267988559,71.4035159586283,72.3025228137503,-3.64284188612608,176.874408594509,-26.3418469105763,138.970891986752,2.10946804400414,59.6777825231246,-2.95799218335724,183.247126756138,-29.6760873622519
868.672668509033,150.962738582733,-3.04222970130854,5.9610035433131,5.74578220564413,1.8579277796018,18.4194585831622,-2.24441555446906,278.660295023771,-25.0729274908278,20.2138160015216,-4.44959709271276,103.463232925857,-5.66639709927261,297.230842665913,-40.3259736978836,116.973334669307,-22.5357274550322,236.114375492844,66.739229627898,75.5098558296383,-2.14728023636384,182.736274334356,-26.7111676398595,140.688358275674,1.44780661910243,61.6818305638519,-10.132231712549,163.456212097908,-27.2973894905552
867.8830735285,134.171227976889,10.061663974733,-0.379801350336296,1.8813566190685,-0.275483054276743,12.9007966133511,3.06492593902063,267.929294121104,-22.9545142523032,13.3977096317128,-2.08594064790021,110.323853465054,-8.10151132214983,283.875881147391,-42.3374821641326,116.197258685372,-18.855759135837,228.354409621698,60.335939805982,71.3393743897447,-0.360507741135367,178.889067149293,-22.8102640104965,141.637052590457,-0.315446585170821,45.1390360496533,0.0317376916610293,177.317208196239,-38.0304952199082
872.085934355059,138.780953987612,1.10304651076414,3.91545985868931,0.034365026307786,3.61231189485694,20.6772812461124,-5.7335519547759,271.353628361691,-26.3242187898492,10.5310089278651,-0.429930124206299,108.955604708925,-9.25737943169018,291.425612641842,-42.2315456195637,108.217312053446,-20.5866103463695,223.447645132059,66.6069197166902,72.5160038055979,0.520919200570628,169.196655663289,-19.6866006943857,146.718108175703,-2.317707366206,53.1152038896156,-4.03144103095468,179.052493156995,-33.756405140271
856.112944757508,154.88224420114,4.06376692336816,0.31898799171613,1.23160638573294,0.556391002693781,19.1575721256254,-3.66836552192833,276.923806432479,-23.5520991577705,17.7692848428348,-2.45147020724886,110.579881996622,-13.0476920645273,285.281361042739,-39.9148706484548,120.472967701969,-24.4774847373802,228.406188334494,67.6438111549156,81.0290652915293,-5.6900457848838,173.810879752908,-20.0471906230737,145.422481120364,-1.76931516435746,60.8995991893464,-2.87605470927908,185.890714409772,-33.2010454961678
876.965965185356,129.874620492644,6.03511809344378,0.176148664569486,4.77242877678776,-0.83660642107645,24.3595509066394,-6.13761381733515,267.005612507083,-25.8479284671964,14.2424685932519,0.742451530321957,102.077939223058,-8.02748675571174,287.94831132869,-43.7522163531802,113.021961898781,-23.3403726499643,219.420139822018,62.1854799458313,82.3136476706667,-9.32175600267857,178.008515393291,-22.6911306608237,135.604222061263,-3.14296203185944,53.1645332897999,-5.18829859656618,173.537739511295,-34.1502817744995
876.687001424365,132.806465428653,1.00420246544951,1.43680908792336,3.81463519704369,2.66479257377033,17.0778583118567,-2.78118888253323,270.538671411758,-25.6910769420203,14.0070850600038,3.93362415692757,100.973796018919,-7.10109570191868,297.505832231608,-51.4258498286682,115.97564573502,-24.4651041167898,209.867777617781,75.0828758584649,76.3960021183445,-1.6714947955507,169.017646054978,-18.7930512846213,143.590798416566,-3.44944387511073,57.4780764054991,-4.25505181423292,186.044418538534,-40.5706272143076
876.949355165208,143.602804939157,4.70905140036768,-1.26095536369125,9.17804369275347,-1.78814427459089,28.7314208816254,-8.7823329710267,271.021707721217,-22.5807505458328,18.5704025679225,-1.73274745140591,115.976016897207,-13.8704571233395,299.042132265372,-50.9821902248488,110.295519579202,-18.7661960168975,226.968831007467,72.151735118596,69.7672594559432,2.14423133368731,174.984848213165,-20.5172197473492,146.852538956879,-5.5953558267853,58.6362406967704,-3.0428033343436,178.274043487442,-35.397285476773
869.372886030154,131.82248857094,1.94912433269291,1.85003079567741,3.76457155727764,1.55777470253008,16.6305519631364,-3.40377231930157,265.546573385174,-18.8926043408365,22.1288812978858,-5.21559822851475,107.050662225233,-8.52303692975672,285.324705153431,-44.96188258604,107.565650513544,-20.8948355450085,217.282720745318,67.5967330935676,74.0353936914364,-1.86077197053129,182.190405397697,-26.4902443069928,136.460449486726,2.23217576014152,57.3970146546953,-3.23862595682364,174.045543181133,-41.236970561877
864.458407477849,136.720676682141,0.252050402892056,4.01690486597614,4.93981292351336,0.126032988018373,26.016705557727,-6.3103514690783,274.410572184476,-25.0654104337601,14.5691724229473,-2.52039831712121,100.049284270292,-7.21592788966764,296.465442418444,-48.9384226799704,115.259217791965,-24.9661720305873,212.133749445925,70.334343628702,77.9650398659541,-7.56967122526071,175.194424601751,-26.6261743582671,142.409502453566,-3.36397208726564,56.4590429948527,-6.35413080479853,189.423226676308,-47.2385777276243
860.175756445332,150.561626138602,0.306540758215648,3.21007915658769,7.48473989712519,-2.18732280140678,17.0724627623633,-1.19056061779032,271.211923773309,-26.6754618634166,13.0060834277617,-1.91585923738732,105.320604040137,-6.95708716785586,286.354359778024,-37.6439515939037,114.268654789342,-22.6843579747357,226.34314122466,69.001694208638,86.5339103441292,-7.77740346248094,166.436407435584,-23.2123171867597,141.535627306341,2.37550500830272,54.3326024987692,-4.08668039727697,185.843970551949,-28.9854959773916
873.414765064042,138.898100790998,4.1222696247818,4.17868158874727,10.2944999552159,-3.17074989542066,22.94319866905,-7.2025142696487,270.134910811214,-29.3432152194038,18.2118171157738,-5.47013772432918,89.8183226935783,0.154163336789459,281.873587302319,-37.440426639854,107.9462018284,-18.987836620851,214.672718242959,65.5537260068909,72.3851158749035,-0.691422358912978,170.650326234794,-19.2799882456657,141.318355898777,0.471639946886393,57.6013527158379,-3.76153002625568,179.072918669759,-31.4450687657473
860.24830660783,137.850616708324,6.08703437088518,-1.1694988169999,-0.875331748822747,4.38581672865591,24.7566804302949,-2.52018476991764,267.498872897584,-24.5791733505491,18.0399808197478,-5.03400296485999,102.064909168497,-7.77164424056381,282.039807885217,-45.1670443384349,106.01434559598,-15.3327792066782,210.525574862011,72.7609690221808,69.8265684441653,3.59257837158827,176.189075551941,-29.2119781427394,134.879511319907,2.15359608140952,63.8382490258876,-7.3728937774356,185.147383964143,-38.0675596918173
876.509793884135,133.410158090922,10.0769541381455,-2.16152925054335,-0.627366384526151,4.59733842505622,23.6345190644267,-6.2954564255495,273.075235486721,-27.0204514020771,18.1685927957479,-0.706857192673269,115.094895677488,-11.9623876049841,291.656010410973,-42.9910165070861,116.276647716223,-26.3508597552667,223.09061915696,67.7065878110865,76.6007601252043,-7.39904386420339,168.78094902109,-23.1727342260708,145.631029205036,-2.85436971752973,52.977724040683,-1.19069726837468,188.349472290092,-41.1974041632984
865.529139150195,152.170559004676,-0.0416949308425559,3.96464227292953,1.83342022489676,0.144116723863457,24.117172860645,-6.84450594954304,276.665075299538,-27.5784327677747,16.7853459532895,-4.16103601241965,113.282456605512,-15.0280277431026,290.241659777519,-43.5707231465709,112.928624762337,-18.2143492996908,228.828678543384,60.279151383237,73.0675709439148,-2.8964018341196,173.922911740142,-26.4377033134571,140.323570837752,-0.960349776100964,44.3932144783236,2.67755774323779,180.332257537572,-38.6718871488669
870.312431651977,135.636379053455,-0.516422734160506,2.22032699802769,3.62532856791823,-0.734852774642567,25.1699283821741,-8.94604489195487,264.321245743324,-19.6424262162252,18.6097267508623,-4.29395888433335,114.107474578324,-12.1567745180978,273.585152153131,-37.5031814829535,115.857091434296,-25.5514410354898,228.311834160016,61.1990274179298,79.5093509900258,-10.076252792565,170.921948846678,-25.3414217866778,139.112144711639,0.954512020182402,49.5139704611901,-1.82848124152755,183.241583224972,-37.7706169533462
865.450453738126,137.569310373847,3.209351689028,1.12428140257821,1.05448182673527,2.75713701223399,16.0676630705552,-0.343980011624914,265.71456734351,-21.0293740969339,16.8100054914757,-3.73251379735208,104.954745079906,-10.0478071574794,290.038367296278,-42.637261658347,113.026896627796,-22.6749447605138,220.045891832065,61.588000561097,68.1780377808315,0.097518994571829,171.6099569373,-22.5745094574408,145.793988660338,1.57752082957389,57.958857237375,-6.40294644922178,178.332531519722,-36.1392262108773
882.163338481324,143.969785804866,-0.52022341325673,5.94183631682194,7.80932241078891,-0.265859470189861,16.0257240849308,2.77028805461108,280.617487333521,-25.2554071935912,7.09912925082141,4.21981670002419,109.709753010708,-10.379430191313,284.744950536096,-38.230838278503,116.751410067523,-22.7817322633751,234.470802574864,64.5773950167821,67.4140071768433,1.7469796805295,179.009566276447,-24.9489245964542,140.370994498308,-3.61895615149888,59.1806225738948,-8.59106327690659,182.523137044341,-38.7459617228398
863.713988642622,137.884800634402,6.58047554316419,-1.36254505869075,2.0288075713857,2.66734605165883,31.7755060470315,-8.0881074133268,264.434050220676,-24.0153209966844,21.1061148741689,-2.21590594849787,109.387747180096,-14.3184125389077,289.094449690466,-41.533404090925,112.452773704939,-18.8751624114875,207.031615173442,73.2252318899272,79.5411955341717,-6.5651507170711,173.84494606765,-27.4501627103221,145.899213917386,-3.8366232360357,51.9520828770383,0.966149618365939,184.332353376207,-38.6591403898909
874.523772264065,133.035305588017,0.62752780545432,3.39983403106076,1.93606743902688,-0.418637125134312,7.54467577932174,5.15707910080941,266.348361369454,-22.2216182296669,17.5804370575637,-2.62128051240292,117.814106161613,-12.6439743757476,298.124900509353,-49.6565198969791,113.604611247665,-19.7433677019037,216.803472559277,64.3307998805907,66.849825983394,0.7289724470138,176.253108440598,-25.7285664669476,138.917150033626,-0.958601348910852,64.2710196893586,-11.0060356524744,186.077036297247,-39.664313416065
864.752611409199,149.40623314091,3.08661686424542,1.29648037083725,1.6440148195961,1.83651917442941,18.2048553469843,-4.59926567511173,264.346934637596,-19.5200145314917,6.88837720020341,3.75419003914591,105.864636142993,-7.31301050855541,294.069763458397,-44.9960334032866,120.900085805083,-25.7165974365857,229.895391694907,64.4391175945661,75.1380169880548,-1.06361679926227,185.930551548687,-29.8023057610594,133.98716064896,2.82402635497807,51.6071598831533,-0.525254291510032,185.819736829005,-39.3023269806389
880.941249796912,131.149534973771,0.414176947162966,6.16492584906757,-0.181817709950084,5.67940051421702,26.1701175443687,-6.53471063600266,270.061207998485,-27.3918494809543,15.9691904287301,0.292915870473479,104.841853481147,-7.84774568406254,281.325413846074,-39.3595979208982,114.067224687935,-24.2243518678715,209.711076510092,67.4275394599302,75.3806348089697,-2.75695369248813,178.090646417318,-26.8604909806313,139.758618856865,0.803328091866933,55.0621771353293,-4.6330741267576,175.927832270027,-38.01185024648
871.749437750478,133.456782856777,-0.540775200989785,2.26255967188423,5.41644619392454,0.113320892204265,14.8823850289792,-3.62160495740183,271.187352978904,-27.6369125215433,23.3940704327989,-7.00215132762402,108.433625637614,-10.1565423191088,290.660161335426,-40.8762375989201,112.861289926685,-19.8590644794516,215.07066192994,69.9397372598459,76.8899871747692,-6.54754406896549,168.472595297059,-20.5337169028116,149.551972381157,-4.42725075376888,56.275099383776,-3.82928015416133,178.004222995599,-34.381433344863
873.015492787333,147.696770339851,0.511253337126926,0.342557341865463,8.51968658012482,-1.70955072699289,21.8076156257609,-5.96940183029715,276.438025913212,-26.6735472210745,16.0342256922834,-3.51973265140651,111.204132552979,-11.4008389841225,300.166096958412,-52.4423343206092,110.498311912343,-20.7836962452436,238.412866007887,62.3514474262087,68.8761483280911,-0.655230738007382,181.623159532402,-25.1165175211196,153.200218811438,-4.34914185812202,60.1928669528821,-6.25923284033924,188.041577111767,-39.9068922486512
869.567709136892,133.903324455354,6.08996854309475,1.12163973883947,1.63202921860745,1.9003398054893,24.9923481050315,-7.35075183970616,274.552909695484,-25.7907970339037,12.1123980265245,1.87544722067664,112.579048430756,-12.1720543019497,281.762597705228,-38.8097623740514,108.103067724996,-19.9546624720965,226.861800548274,61.0574521319816,73.8082589444424,-4.12973867534104,177.357324548667,-24.7469611415921,134.682808900226,-1.74932103869544,52.6573437494207,-4.30103392147674,171.174845583002,-35.2492393574001
874.094719899649,128.749402406358,10.7398416561639,-2.39277221364388,2.36214432639448,2.14750368411,23.8093591677578,-7.8374170304146,259.307709192136,-18.3516617105358,15.6539145194748,-1.44833590802465,105.788866928931,-3.6911225985888,285.725062991183,-42.6567129194408,108.847717201392,-17.4456165849736,222.688927580771,69.749392581526,73.6286322427901,-0.141047708214635,172.870783177742,-20.4458054356321,139.044521972676,1.1463821551523,66.0108947241891,-12.3465152744375,175.787926860804,-35.6644011007872
869.762058028249,143.480233921471,11.7243529530901,-1.78402064396177,0.163341334956193,2.07686788673676,33.8664963369787,-9.76387298890993,270.989470662884,-26.1771834194663,14.4774421844094,-3.78451877523519,106.636184840897,-10.2063873685639,288.426683338185,-40.5926785772617,111.67990455531,-20.9029830307412,225.039574741885,71.3442083988,81.4786168860267,-6.11208775200118,173.515719285994,-19.9001568851978,143.617423720616,-1.40633957920305,55.6764854891469,-0.49153691934877,179.393775669497,-34.5470539456652
868.0877446616,137.89622466061,-1.15560355443587,4.24856603221542,8.76336004845286,-1.21920025857126,26.4830517854917,-6.29614981358794,276.688657149271,-26.3737306446386,6.8634560282415,5.97775065172655,102.007165115094,-9.16069517401884,293.245458849366,-40.7820994720078,109.08950853643,-19.0143951109642,219.868463098676,59.2845669423177,67.4514957343712,-2.23556096906658,172.644386222164,-23.0455549087262,136.256827108213,2.18213530820034,48.4331995427191,-2.28628850104302,191.063075977785,-44.9851856732196
863.186278721447,143.370156317831,7.26245706456132,0.209274638141073,3.60152890762462,-0.113686192732865,15.0505230416417,-3.64290883186537,274.718429915192,-28.0750496010112,18.8330193485757,-2.86942444465364,110.083384197316,-11.617840871673,277.978492576264,-36.5103715353926,109.27310163705,-20.6224477808581,215.660508959164,67.9326737522214,66.3715334879474,-1.01429462258094,171.003543532934,-21.9954586453689,139.163021732794,0.898439060639087,54.5738781158725,-3.14221933929349,181.711853420553,-33.8750467679352
876.734466404097,140.354691326144,1.28810128279969,3.45133061396698,-2.06646462623134,4.76375185134491,14.8491399607254,0.068279801085445,267.356070473678,-21.2360305900464,12.7870951364768,0.228833234376549,98.8065751715216,-2.90934539158989,308.260383529558,-50.6320255349987,115.497063355274,-22.1206925177611,229.431578699945,62.7456652497305,76.050444114626,-7.09505863251177,186.683482362949,-30.2682703964733,139.31853217136,0.70585681488231,63.252639245606,-8.15595298606147,183.701487344242,-35.1446578174576
868.568752564471,139.669249300419,11.3419589325005,-3.04697019387754,6.02837184178493,1.46809908808957,8.76012355738353,4.26136338215601,260.284181798158,-19.5758688094539,17.6443865997443,-4.10019808840919,104.219435773569,-9.1634940637428,289.874516981704,-44.001576568835,106.372783825946,-16.9256078567962,211.663089622328,66.8526835021979,77.0631861073777,-5.60013397829151,175.538907871734,-24.6820680339725,143.930735914093,-0.24103112209832,48.1238312884083,-0.978182526035407,176.730630515396,-37.2868338401068
861.642959119463,146.440908592746,5.67603632406795,2.86099667712614,-0.594867527241343,5.57014506337943,23.0096618769484,-6.74980450264932,278.960975512352,-30.118086680661,9.05056252288828,1.90249831863428,105.400114953948,-11.9563333870172,292.223665050393,-46.3075377772627,111.078862272885,-20.1871934723886,214.537387030497,69.1086897778233,69.7921663880329,-0.95969200400188,185.061158435217,-26.3321918039822,139.221911459226,-0.588455340103691,52.8649907222775,-4.17628701708335,177.929517233409,-35.066238681633
869.690302589288,140.600439325297,0.472948450522195,4.82665577137105,0.12327059539208,5.9191156159301,26.7150046199001,-6.71764292833184,279.440385916752,-26.8577520651222,17.2002089268066,-5.00533314555241,106.292534826591,-8.58704902375904,292.262033299569,-42.9636852739492,113.121774305475,-20.2270085441767,220.694826921634,69.46475354017,70.6915711430462,-0.661204112331609,185.080146503872,-28.2611875683427,138.060238712397,5.85477580011703,62.6395647761283,-5.31191885796039,178.322299055413,-38.4830739254209
867.709937743081,146.686500455382,11.3101409581112,-0.0958561661391089,3.74701084023777,1.22648678040538,20.8588733128538,-2.07588469797196,275.261276172234,-23.5768883500991,16.453484912865,-3.38884392490601,113.385247683372,-13.7008643104956,302.484310247302,-50.9338287369123,115.242581018218,-20.6657908570043,219.729713521623,60.2386614147784,72.9991910615483,-4.86888455760742,179.222540719712,-23.201761257273,133.778364081231,0.499299708864412,57.1405566521187,-7.20374414124852,182.350662827542,-34.1658189858375
877.765327672039,134.443324296426,3.96751611036291,2.2993195330088,0.34352289284517,3.26368307505883,11.8292002641159,2.27972603425644,276.932884585627,-23.9366248883427,14.0052318795557,-3.53115798907632,111.483010947589,-11.639158241025,294.731045477116,-45.0124139292541,111.802658705653,-21.787854886561,213.701967969023,69.7152660313214,76.1058932934309,-1.24706009965918,171.098586737677,-20.7046968560184,156.874608301329,-8.23091574913746,58.3788474275914,-5.40977405549796,190.388881789013,-43.4472624061937
871.930140346572,143.863070914963,5.12790156031325,0.0993261670329185,3.51368778167738,0.657233437325244,21.6646313660455,-4.17912678170935,282.861486685793,-29.9126748959353,16.3248206357665,-1.74147178434533,105.479522348375,-11.3891245467908,292.311631752252,-45.095823024335,118.423838432421,-23.6907181711634,226.288049417155,63.4927155017345,79.77175335822,-6.80558822325215,186.762726537683,-32.6686903454784,149.384054264881,-2.45398696872224,50.3271638311941,0.581719694445607,185.362527283844,-37.3543947695281
865.188294227483,154.568705080505,0.168617563391369,1.34839070495261,1.37003142369908,3.61813766780312,11.3310338248672,2.34127340477283,275.583193060047,-18.7984964795608,19.5020991469407,-5.91099309516877,117.564547010747,-12.2832058065634,292.563204593164,-43.1099023814912,115.146640393727,-22.1706148163852,220.952235538962,76.0157952918644,74.8153757231716,-3.0915233861193,177.166350576052,-19.8072656341173,138.128669677696,7.03420478169642,62.8364533350463,-7.44230137577386,178.778169585503,-34.1619989330829
853.694730756641,149.187581059192,0.80392445363351,5.47365080772385,7.46057041310289,-2.32011747501595,17.8363850924382,-1.08255736168086,271.312453321005,-24.0870216530282,8.3031695329551,4.9958380438286,112.608887943519,-9.49269666464131,297.375804098547,-46.1739466207735,112.914542528009,-17.2339585592567,210.064001556875,71.595961235724,83.8796936488487,-7.75784016498656,176.091409054818,-21.92770114486,151.459744033491,-4.4717169239333,52.9927258465275,1.61615545627881,173.484321622445,-32.5285343693662
866.872025182259,144.084638149286,6.11181798483859,0.639498821608176,0.339106151115312,5.64559639191442,25.0390384459332,-4.88460626099944,272.509559396489,-21.4812176924791,13.7143823664303,-1.13689635767847,110.610445212562,-11.825220195439,294.879488325024,-52.4124487768115,118.497221312196,-22.0426727571209,215.409903064441,73.1660402120408,66.5128279851302,4.06900423265059,174.793604496111,-20.6195779671115,144.898544419399,3.16825258138617,52.9544236490126,-0.4981829115826,182.396199437213,-39.265456915194
897.544549838378,136.476074439485,4.88443534029147,2.53700165581461,2.39063985699927,2.16857350250183,27.7528993165444,-8.64182506377334,286.846811617954,-29.5260133930097,8.95225831293526,4.06196731528748,113.613195032048,-8.24557275291079,301.889132321559,-49.0924927658797,122.513034368362,-25.5846788090493,229.931119619029,69.6803007685215,70.3118714157389,4.74616702397599,188.530211474688,-26.9234360826386,154.8570684402,-2.28801994924294,62.7857480268778,-5.28819136319239,183.083528375489,-38.5958050026177
866.720000096258,147.052636280352,0.113989476495133,3.6102355638871,7.77885627418744,-1.96457083311079,19.2631403431796,-2.47538249793309,277.791506521986,-27.2623916288319,16.4885011803395,1.40306131309951,111.161896339089,-14.5563740614392,295.682459892012,-50.4347663857085,114.119875174519,-18.2048193476725,222.675883293181,63.5680712108548,79.378567869071,-4.43360929349786,178.918166797906,-25.3514329627027,159.22024886727,-7.47867743950233,51.8667565121538,-3.39677048084507,185.124751679867,-36.9057386884531
875.102054317903,135.446934697872,1.49355636566295,2.44721959115189,7.22215062355448,-0.502778617857115,19.6765200053966,-4.09675467565486,272.70190287198,-20.5189814911185,13.3337624456686,3.86431440425907,110.971920710671,-12.9791213112659,294.035642601405,-46.6364668967785,106.103793670463,-13.7781627286043,219.226839854252,69.7616575262472,78.7828412225726,-7.39412735452569,172.180091645221,-20.8724760071805,158.201120772745,-8.35270404554458,62.828673791411,-9.52176241523057,178.490308425072,-37.304523686124
870.229417247353,153.944438656206,2.47045861368827,1.3609089745551,6.46809642035273,-2.17870175425447,15.8413478036642,0.368433904540772,279.673181820406,-23.6220021443676,8.60413699312378,1.48766029621767,107.174039945459,-12.4750877610902,298.987156448875,-45.4839997177327,111.902561466547,-17.3225666090811,230.388027500828,69.3042554147827,77.1667546326297,-5.83642644717346,189.733968392227,-31.4812588672807,142.429235347128,2.11470761772912,60.8671293435716,-5.51515859236153,186.371280440981,-37.8861345993445
857.691846054109,148.540241102312,5.94674982250582,-1.01436882515263,1.04799916095145,2.91804441684564,13.256125951418,-0.84811095697256,275.475559507603,-27.8864526950371,22.7585454131144,-4.12635505181586,112.894810951337,-14.2411877222319,290.341294651186,-43.1159416029716,119.939691731775,-23.8312698366958,223.279940894937,66.3949342902348,71.0173736364362,0.839119706969851,176.073896451597,-19.4166861399147,144.233838215168,5.57597906167719,58.3287136982381,-4.42679824511755,184.81936025577,-40.0112471714228
867.709369859388,145.05380696541,1.13779894117357,3.42821452590217,2.63933547336868,4.95099987149151,16.5729979734898,2.69314863533463,289.819929426971,-32.4712314711697,20.149068900729,-0.13279758189772,101.405429454803,-3.01956847735213,293.600025318865,-43.9984395765043,117.691264553154,-24.7698787086573,227.496186722761,68.2577654071513,66.7788859223357,3.20037861820006,183.465146984403,-24.1570652301508,150.559428799517,0.498550154611979,61.7519085994231,-5.59326941229757,182.411623559273,-42.3916718568243
856.828202739281,159.066066053632,7.67970761836958,-0.331754734640588,3.60021488173932,-0.357457444670142,16.7359131548334,0.551975832982406,284.980619810207,-28.8183867229362,8.37403822268297,3.56563904154879,113.911338545907,-7.9970678823183,297.661715927165,-41.2431735413791,116.336395518744,-22.6143785832786,238.824427562623,67.0434748031548,78.5953420596861,-2.1931320430674,181.705041952248,-25.8360937007608,144.90663799343,1.33674678883052,53.0782880091084,-2.70629096254786,171.162352265176,-31.9575762907378
871.857417649824,141.092286347497,6.14461382556915,1.75598378243796,-2.91664275055933,6.22858929519866,11.0415911197287,3.14061903766152,278.613694177892,-29.9137055635589,8.18640872673931,0.510962831783965,107.898141864763,-5.70002140350823,298.598910346284,-46.108486684157,112.5342386759,-15.2308435917569,231.178879419964,60.6647443183274,69.7051120064536,-5.08865623888471,183.163799816593,-28.2692703990307,148.043409579323,-0.962064184532738,60.8124262221808,-3.92167197963701,185.693282747991,-41.213408315662
864.707384112754,145.321405918762,2.98561600371721,2.10871934839898,5.47904833470511,-1.19280163004913,18.8000335453087,-4.73929472168524,273.550345896715,-20.7206242497698,17.7163319412161,-4.27189971691044,105.435504191964,-8.20616007751592,315.125568421226,-61.6118046205887,116.74406430961,-25.6510126031298,217.133050726732,74.7269947805912,67.4100521651318,1.27427396475781,174.984944379217,-22.9828271619848,144.94856436876,-0.175911455976114,64.8630534645986,-7.21814147008375,183.31257630343,-40.535443070961
870.048290666968,156.193351081412,2.44223443166076,-0.0102522374255061,3.13306069322206,0.806596484102856,10.0637646622439,2.03397089357451,290.243581585456,-32.2012786254602,11.7982742551788,-1.26349122856269,112.380719481192,-7.51870613587275,295.216879629272,-42.2979167972379,117.304220812295,-21.187751415482,229.212622835632,69.5135646500407,77.6273796389055,-2.73186931033571,203.94600279163,-33.1604511735183,161.93325304549,-8.6194442163913,63.9701904332736,-8.01442603668871,180.090782211817,-32.19593460696
865.276223383606,137.987344027946,2.6659209064545,2.69626025589398,10.1676360444629,-3.18599666022509,27.9926202394744,-6.87239534089816,273.726722961947,-28.6566136235256,12.7891310479234,3.42108536489127,123.635632224173,-16.9055295138522,295.316473723402,-47.541668733014,115.191623503354,-22.6315362598882,210.235749332122,73.8905788290337,79.1093894117116,-3.17451317448885,186.851214367678,-25.4518145056179,142.968692684202,2.41158475543929,57.9191688976104,-5.74282976861059,173.906617955139,-30.3666383123952
869.274324598195,136.326462571379,2.16035283370596,5.18115875339153,0.87936836498642,1.48313102355088,26.1660348856152,-7.23328266824047,276.629050265024,-24.9957517535626,22.3598693794257,-5.40815294768088,112.367159483515,-8.61982234554667,287.872615019366,-40.92326276357,115.061842883661,-23.3278740087445,229.006012913427,63.5020146867355,76.3926712846375,-2.71555240696724,186.749171793636,-28.5752970564197,154.208989764848,-7.90575189971511,52.2990565850905,-2.33573327427628,184.222378032342,-37.8630577981781
875.756135234328,136.708698813195,5.27337467128321,2.23337365602705,4.54220290017682,-1.029394681498,19.847789338407,-1.68650585579332,281.910424557453,-23.293115560341,16.4174218024076,-3.57603234012785,111.247340359241,-11.3023199744831,302.574054158248,-48.8867764161445,112.187569069696,-20.541627809741,236.468409603429,67.948190207898,73.6211184808234,-0.55576787962038,175.384947343742,-20.1236707323963,145.484155763908,-0.384866085358231,58.208211660271,-3.97715491492567,175.131275879378,-26.2167821873826
865.687825119689,140.858004298,6.61301283808202,-0.580453992029881,7.1496230181373,-1.18774452918298,20.1984573948626,-1.18678677269989,273.340713124529,-25.4799465879638,20.5376210692385,-5.47491456654294,107.740873071891,-11.968994784311,286.264950670459,-43.8596724508354,120.912813414876,-23.9381569729146,206.868796971608,75.5556910861803,74.2682557543906,0.965142539691268,170.51442557017,-19.4210127657804,149.456970222183,-3.08078807056968,58.0176316741118,-0.750221360725466,179.811032228202,-38.2586907154814
876.50267427201,127.236477408243,8.54888359265171,-2.43029975438243,8.95351335899705,-1.65210268660592,16.9880877331724,-3.87500517422509,264.373319581523,-18.2347264700405,13.642317482034,-0.758865163833211,106.871360545187,-3.91412962469559,296.734873282809,-47.6989660628368,114.630916904804,-23.6426683810035,220.746270563839,69.0757043239163,70.9736745458926,-3.98646262429858,176.489331781996,-23.8248221417511,151.071154547087,-2.24830179316126,52.2868466038747,0.623092832425487,183.146794242462,-38.8334236148081
871.934356893641,138.275784373553,2.40970418748646,-0.201694949716058,7.2732896201508,-1.25168798461415,31.6819723857966,-10.0802702358323,273.449060018941,-19.5395669507041,12.8257441216854,0.592466339046296,104.30487181559,-7.71565308557851,285.826882994731,-34.8254576446929,112.447472748504,-20.7027272517014,218.53823358258,76.1981871970154,78.2922152240085,-5.13755375187139,181.538779689628,-21.0084999908814,145.964070511199,3.97290055541374,56.7148572107918,-2.65885536022781,194.354637112409,-41.823626220043
