924.705536633333,143.674087943919,2.5818671118103,1.4100446435343,8.41084817014877,-0.382592477815422,16.8805123575837,-1.94534271342038,256.586851390313,-22.6090770003522,14.0352960185252,-1.14059540642702,108.598298315886,-12.8388275432624,267.026749035166,-39.143276328512,106.771584739144,-17.2552247221245,203.447124029344,63.5845801612801,63.351710612274,-0.132799643358275,167.369112593716,-22.6616184031043,129.480974307186,4.63928853289965,50.2603416955892,-3.30196044150594,172.177947766847,-31.9302865118834
907.268186096103,158.125970128772,4.43454992752774,-0.0610874305374437,1.93674230682602,3.92578439120222,18.3909356154431,-4.05066857846591,273.593751574802,-32.2243718514875,13.354703679784,-0.456766133842974,101.807294292219,-7.24800810111156,278.619752005922,-46.7120925426573,111.124071173936,-21.8492978801026,224.627826101888,60.9188510583187,70.6086614380301,-3.71823567389297,178.298359257559,-27.9156027986683,139.257466134819,-2.79045965799582,49.7657172392263,-0.626051157741255,180.134425476145,-40.1356981485397
932.634409955551,131.132416836903,10.5024414239768,-3.08891738774714,5.15934010394945,0.422309845771421,19.1045394377929,-4.33644767942127,255.48982071438,-18.1548091023639,16.9718335654349,-1.35214075665174,98.9963392785864,-7.20789386280781,276.034211696138,-47.4632210210229,99.3648566713457,-14.0542317956478,208.201798563709,63.3329928310354,65.2880317700868,-0.975649313112782,168.986833909005,-23.095705540455,129.702495296945,3.14176155782368,59.1910736704245,-8.82454816040125,155.142220220208,-23.6463033667684
924.702251620741,141.315482477726,3.53304255450784,0.412245343939092,2.91904646429563,0.881268489735954,19.3712822435073,-5.94609291803063,253.681853512905,-16.3273566059503,10.6957204980909,0.309633962999698,96.8035368245091,-2.12604645019749,272.938776053127,-42.0552112043404,110.29024857264,-17.7466568501871,210.496468252087,63.4273449987108,68.01333067004,0.507408958921679,159.005824583293,-16.2200340517055,137.358021877259,1.2263004377777,56.250542405609,-2.06736150529864,175.773458793642,-38.7691159667692
941.062277259779,143.057963959628,9.21742626887444,-2.8503732600685,2.61843989789028,-0.334690066563827,11.518449688907,1.55139813916999,258.468675595665,-21.8011895468881,15.5842187666543,-3.42716748960952,110.281843605407,-14.9199420656741,271.476208197938,-38.198412057214,108.421411122969,-19.0291519657486,206.93717863826,66.0215558571379,71.5845524898095,-1.60588493966913,175.002341483782,-25.3852854992567,134.300110097449,-2.29770981583677,46.5076984086789,0.783989248871929,170.997817064676,-33.4352611956784
917.161617755978,159.080712066761,10.5085517029463,-1.46973695062682,1.28980795590383,3.73403991132331,9.18004147369427,2.16142852563568,268.051599096293,-26.0731890562422,15.8080462073483,-2.13598802273484,99.8416796284053,-6.8563786711747,275.134709173745,-43.0164963557879,103.59537862926,-18.356192777982,197.544264265475,72.2092921794444,71.4221557093366,-1.94444715697144,166.015320060014,-19.8824964967794,134.926480782094,1.31378595346514,57.4302745759395,-6.8721528455873,165.09908147525,-28.1343173144383
925.195373428479,145.766094047722,3.27290705231565,1.17989240319087,4.52287753230925,-1.32725919154842,14.5192759717246,2.20759336632979,259.72768893464,-26.4590947362438,7.77371473292841,4.68861708956691,96.0351943481711,-5.17085755909993,274.056582408958,-42.3123188776294,104.48241437194,-18.0641629174509,198.983696735423,64.5106072094442,74.4131911537054,-4.87795592207825,174.457727304121,-25.7790551461881,137.461694705394,-1.15876110185131,55.2403838179968,-3.93842062278775,172.026683779594,-39.4998366380198
921.531972410066,153.86840515828,3.54620742793337,1.51211653816085,2.88172123920435,1.49140127342138,22.4050004953457,-6.2225018201166,258.402117779899,-21.3680945588742,15.916816050553,-1.05565390691703,106.562337920112,-7.11712476477323,275.625930838247,-40.8705705629705,108.187861010266,-19.8822886729789,220.332799590991,64.8404050345285,77.1119442484796,-4.39507768430924,174.888801285833,-25.3099172877268,140.216173982991,-3.66528170936718,51.8502194954833,-4.43845624225922,174.299215591296,-33.1228148272445
931.393727845879,152.094851149963,5.13628520601375,-0.695258961863128,4.56908026727879,1.18880915814288,19.4567112447763,-0.645499744491421,280.903835772577,-30.5249912591722,16.6095429154918,-5.02912969637113,103.029552076918,-6.98766473134374,265.687743067966,-36.1049712408179,108.803057348558,-16.3188843263911,206.420519976834,67.8066863597587,71.5901155065827,-5.32615146494053,168.580188764155,-16.7358142749899,133.480254240707,-0.813495134332752,52.7206534621561,-4.01043484596121,170.152644190798,-33.8242264966831
916.751469662192,163.20332341939,5.05337949723982,1.480562373991,5.40728781507534,-1.5480652320286,17.4440407921146,-2.81273330810703,252.344200141542,-19.0993993469523,16.660599140074,-0.826815968819741,98.5747202401414,-6.98678157461544,277.514468965191,-44.9894319498909,111.07286891593,-20.8353638380666,213.028170716948,64.0366394335687,72.4060069039874,-4.68277363860392,166.070214961929,-19.975032224548,147.915662086879,-6.59087666104179,47.0879008268385,1.25529874857715,150.413679915324,-25.3159428386204
932.902024391119,148.300937530227,7.98164647258533,-0.808982391044124,1.83143189321314,0.692691156375478,14.2435670743574,-3.70515543357783,254.252686976673,-20.4162730084534,14.2021868525012,-1.14866827404439,109.07615939781,-9.76508603042613,270.289607570304,-42.5793386832259,112.342630944002,-19.6057494476672,201.346211794279,70.2863025202517,66.5035919013749,-3.13754072033825,172.848378464526,-25.4717628585758,134.06729690735,-0.912823744196939,46.411945992271,1.66288520010327,179.284329910771,-36.4566577001825
925.523666901497,167.216715579299,3.45270567033914,0.770712491041297,3.32251909882521,0.342013526354624,24.2439033868658,-8.44338002268047,260.875432324022,-23.2818668320836,12.5492058542223,-1.50041272455174,111.163582151406,-12.3971744693484,277.230898987917,-40.4553939224578,108.793540451503,-20.4106610442374,227.484234206661,59.2242592531659,77.2411472734533,-5.97349236246623,171.566686227775,-22.8487711172309,135.593966949027,0.487348850567327,53.1201352600887,-2.9729681250173,173.48879959145,-34.7893488214535
925.006903061097,144.658664873467,1.30398945722339,2.89145121467964,0.961397949298396,2.66512977425827,20.6074041928474,-7.23032575223545,251.532825775909,-22.7296362099971,16.4380874882861,-0.271554777969022,104.583164529233,-8.61919303843679,271.206605964632,-44.83658339598,106.218785779331,-17.5576130309401,207.076341671174,57.9997623130615,72.0332317109212,-7.17563834025728,172.051800533846,-22.772376475494,132.214834267404,2.89905826534924,48.3711155716928,-1.78503285226466,169.004701821507,-30.1419042113523
920.053896837637,156.664874975817,5.4345179790728,-1.10427443086233,-0.539831965990463,2.44294819146506,14.9274354849103,0.0147189140631732,256.13697131475,-21.72529069229,14.9513443192616,-1.64832892011965,93.1519314350066,-4.82771395160658,271.382338349991,-35.775266121287,103.105857845291,-16.1086981376538,213.853860990434,57.1607375181647,71.9834016044971,-4.15901489912449,168.729126457704,-19.7489912127936,131.451331789798,5.41990236832071,52.2121892969777,-3.37548604834406,182.779690914676,-41.8542681968474
922.280502471597,156.171482677994,9.08801476837638,-2.76251136830035,1.19508201633279,1.22613734280296,14.9803094336272,-0.38709138509036,252.9229673902,-21.8259073014078,14.0178508590564,-4.08156943004186,106.250159265348,-9.19074622449582,262.898247666724,-36.5135660596991,113.378260705511,-22.1045170635635,212.874357414516,66.9751726233349,65.6575458108221,3.06315288323726,173.93178046303,-21.33866700882,128.701620366754,7.40432339284585,72.4584556245249,-10.39829667589,176.060577709735,-35.7794956671479
923.866793421714,154.455693288747,4.79671357300813,0.963551718004773,2.03682507045499,2.67811811160114,14.5851792103504,-0.219171834179324,253.510170004419,-23.9303369978483,17.2844081449755,-3.36163632133112,104.63288787811,-8.58220324994763,268.241771625853,-40.6676280179271,104.984549726741,-19.2153684212219,210.105549262979,64.0856793080258,69.7100808821877,-6.17412906296482,171.408903600271,-24.0746905880064,130.692654099079,1.90438607354061,55.1661577537776,-5.05037002369439,177.918086613049,-41.1846873305818
908.811325912214,157.69522664499,0.461603436887055,5.95386181346453,3.24271500147551,3.21464351861337,17.4975395079397,-4.96811945226487,254.237734012616,-22.8873757998426,13.8211535944178,-1.61762431398241,98.7676743071275,-8.57710444450798,267.112941221854,-40.1767172115054,112.052314439406,-20.9816782029181,197.471624218305,69.9733651087056,63.5257783200425,0.321896678739336,164.121132185058,-18.6833586899298,131.228998190078,1.01493527114391,54.4676309516624,-5.40416186607432,194.468124835099,-42.9337762239851
926.931858493141,154.658716082527,1.13182649394517,4.45189873554073,3.9093560423493,1.31881308981055,18.205126041,-1.49698220341493,268.334488636617,-29.6029974479099,6.78343331213267,-1.37750749497461,98.6463630972993,-5.56987562164659,267.402678436071,-40.4973181003609,114.58002165865,-22.6084179000776,205.286570977487,66.7949331230043,65.0599334703022,1.53650151306437,177.828649956812,-27.8935546190833,137.544705448405,-0.857341889118899,49.9950948236099,-2.14515939918597,177.935247783137,-33.4347638715039
917.558552005062,153.353654110195,6.52227422625606,0.495029531729115,6.59943184978582,-1.27731635476363,15.4659352824113,1.19709966766647,252.747668463289,-23.3910922424928,10.6454742371152,1.9824987733157,107.447294603067,-11.1101566313352,256.401648658235,-32.3760075986285,109.946520852981,-21.7968400621958,208.527997679181,61.1817375595484,64.07629287688,-0.119442371964916,164.173142110868,-13.8035390970385,129.382015625063,0.383550769473865,49.9058984263703,0.462896267168301,167.41137315994,-34.3642855981872
924.098142466014,154.423820364401,-0.386580086538319,3.98369541872416,2.49612205703815,1.93437847248613,20.4830511083424,-5.25786244005635,263.844564764923,-27.1091417144073,12.5329192596559,0.0112089665159181,105.851932559219,-11.1873986258048,271.645388983677,-38.6579649375185,107.061866590146,-20.3612632104754,197.915561371644,66.9772650422089,66.3372062593845,-3.22603720959554,171.380943767041,-25.9099174884412,132.568272463062,1.5328000895065,60.9096606902149,-8.38107788359817,179.298632976875,-37.4490423904399
932.64272885475,157.996459080882,2.13920602888435,2.18626973642855,6.97700078815462,0.101810299741668,25.5286960957397,-8.15545036147267,259.318263506719,-24.5058672521503,18.7467018568102,-3.99937575866414,96.8176839482689,-7.55688855404069,276.133725381833,-45.5196441850433,104.038693879277,-15.7677645478436,215.854522661533,60.6620754890417,64.8055262089569,-2.00583663199517,166.649235934072,-21.893822667665,133.576673835769,-1.70556538112122,49.4514201648169,-3.61125780414072,165.999719075335,-29.9868009774182
912.133823142862,173.222412179385,8.20861424210609,-1.44918294805878,-1.10499044877426,6.0118788356449,12.8086605241224,1.20563206903034,248.686658281032,-11.2510870683602,13.889478580389,-2.11598459507942,93.5098808992029,0.474585903786258,272.643415832646,-41.9942513043536,103.761880371457,-14.1190713031724,209.638314026152,56.6898701977252,62.7539900875362,-0.699732068499206,161.5964585752,-17.2246438105925,126.528126512679,3.82500229120025,51.7327514912755,-4.65713093113708,170.107602725938,-30.9856241539113
903.891116583229,167.465884305175,-1.5659436283148,5.28877330039598,-0.386391557990216,3.00994627966888,17.4395121446166,-2.03223770172401,261.839916902264,-26.8839490185463,6.57429507816671,4.1848996981616,100.515857785786,-7.94675521514506,270.234224918212,-38.9234736425938,110.828206788947,-20.1045133935256,204.931675790455,62.5546217351356,71.0489620170488,-5.11418286489549,163.765896786963,-20.6251358177186,136.493011488769,-1.33921006657333,54.5286212925685,-0.656694973528624,179.80500171227,-40.5068867945302
935.565570107166,151.408911934809,-0.377035594624282,4.91364675440713,1.5889043672046,1.30377730192432,13.7628807082666,2.1741877559289,253.49974116953,-19.2902258214868,19.6038442740005,-4.63397589001629,101.301894447596,-8.85373917931395,278.416087230085,-47.2851541026036,103.763042763478,-17.1602255986517,209.748490322876,56.0013002448166,70.3731299527902,-5.37381653995748,172.709099580256,-22.7176488224486,131.915074494269,0.619664012011583,52.5519931702215,0.485459982861536,177.686391938187,-36.1852530263856
936.296306375416,161.945437562904,6.87865465934149,0.643026975832661,6.68598970579549,-1.6565778446945,19.3658309948094,-3.52026679642591,254.256159443135,-16.7831145571581,8.57020912386661,4.26315998997587,100.007301600638,-2.92564030125214,278.140753852212,-42.3619597022036,105.307564877254,-15.3371540945744,202.414902289818,74.534441528792,69.3566767783482,-4.62423945614215,176.100304936192,-30.590032100597,131.618979655579,5.83575360636262,58.495331910143,-7.29313859391715,163.683028573169,-28.7013989144642
918.54083858641,152.831869214029,2.14838247977664,0.816688124726527,2.35628075889361,2.36971767259526,25.4322233874323,-8.84565054005856,251.820447596634,-16.9945519301945,18.3452761776426,-5.54337337336905,101.401658596431,-7.35583965625824,275.618692454073,-47.0692892213998,110.509051473186,-20.7919320326429,213.697502631536,61.2160358876902,61.7486818555907,0.874027062669853,168.485215932275,-18.6927939837236,139.389467807697,-4.45848271368587,51.8578579329537,-5.95041633527149,172.358685423442,-34.8691790603677
940.878742465118,147.376264675264,0.584424957434098,5.30875467351655,5.35841574393675,2.30987546342128,25.3342849369464,-8.60195441682624,249.29301547676,-17.01308949626,18.5610169987502,-4.73926119551866,109.229281656688,-10.8197292188199,280.618524027005,-45.7225212908724,107.392722937202,-18.858583933945,200.831358393549,63.6888256474887,77.4001670688647,-4.7477955864136,175.594228303925,-28.748535483753,131.148321942119,3.07828072826071,44.3695557562909,-0.122865798329077,177.384549608551,-36.1789127713833
924.036571501548,157.534540868118,2.44136623304084,1.6086883519865,-0.759186820661056,3.6653661313053,18.3572971412985,-3.29560879372575,263.027536511169,-25.4815583012769,16.9197621282539,-0.763472244489472,106.696465678158,-15.3809757808633,284.23496797785,-45.0215721472811,112.319521328835,-24.5222872497877,212.580700893069,66.3180391236005,64.3226228338369,0.18108436206729,163.737198360879,-17.9513588546473,142.55473570195,-6.04804618371022,58.2829479359405,-4.90474636445335,180.123415504771,-40.6168308460359
920.629465220694,149.221878518499,-0.299774648799009,2.60922280584248,5.54911630277282,-0.350255449571237,17.7056215242196,-2.02801699419789,258.1573869742,-25.7193644056746,9.80027148807678,3.32806287315536,99.364067886247,-7.76288547440672,275.866357036076,-41.4797717469481,111.956833723347,-21.5666974830105,208.041708446369,62.6185828410835,71.8456333959115,-4.97228103470146,160.807713434734,-20.1513240018612,131.634319960305,0.0720622325882321,65.3792210335349,-8.12206877461944,165.246544027994,-33.4920255987733
927.073676873888,151.486225797491,0.537580229178119,5.85098801501503,5.55785612245183,-1.6368071999568,13.2811391346872,0.648577975578597,257.596446654461,-21.3182451468049,9.55916808930108,-0.938294150283155,94.8252768887147,-5.14609017984271,280.412957674855,-44.9397668582748,114.244044263926,-22.6228563984903,199.527647769998,68.6327972710602,67.6296977258581,-1.58232957513126,163.237700608312,-19.6981724047635,133.458484080149,-1.18318223237312,44.0641730439138,3.43880087275106,171.940959132116,-35.1810266751676
937.369568211682,149.062012175071,6.32697565320164,-0.944309921692466,6.11233600512211,0.758292514205678,19.9335563691271,-4.19380228945873,265.456860279739,-28.6463786577615,6.69073772898797,1.73812893553984,102.736543365519,-10.5395926680642,261.002193278889,-28.046996355211,105.919221631483,-20.4581468155198,204.657166837615,67.8999606890435,64.3880979160739,-0.874192361871446,176.458094471648,-29.2956238762947,138.221391232811,0.0984534830138472,57.6838594477266,-5.82938221925902,177.223677720308,-37.3255972554638
936.753453767808,148.607839149322,7.0749213211867,0.283345286680782,3.12554071443722,-1.14714223655938,23.9443612679158,-7.03593363657112,261.329448888661,-25.6751853015156,11.1245279254034,2.58463318272562,101.706604718377,-7.01317075573123,268.951259545323,-34.7033897884973,106.913870876041,-21.9265862121683,210.331023047531,62.9888905390541,68.455065858911,-0.195505575835416,162.872716564402,-12.9996943353977,134.482963402986,-0.495734132026113,58.0724224694081,-6.59379584122585,162.878836083932,-27.216980601143
917.082650591146,168.010108443489,1.84495248512388,3.08604394542252,3.89923835983777,3.78544961555329,13.3404826330939,3.28521381630677,259.016946250957,-22.9491264236675,11.0637905370096,-1.18561300715554,92.1910954528721,-3.38934720834129,281.12066362999,-47.0729693592083,110.344296402095,-20.2825357536698,210.186111594098,60.9316632384687,68.2912077376044,2.51707213044496,162.853139271835,-16.1816752162142,138.065843757177,-1.89213589583295,46.6847747511232,-2.6568172450204,165.905691092474,-36.3991931139941
929.927993090678,153.403804751313,1.62701152601103,1.77814520984471,0.795309037688963,4.07222594020396,21.6144560935911,-2.00549829943907,259.054933054954,-22.3129337451401,9.80655955879332,-0.709333487835733,106.050887314895,-13.8311935948203,264.47644228896,-34.6283885417873,110.695297134489,-20.1541665110403,205.425614676541,72.5988376430724,67.0931568466162,0.583432892816114,174.984382947288,-26.6958673036568,132.766445639239,2.38721020093563,50.1859350189741,-3.16202815890854,178.411793328755,-37.9786090255516
915.4239751464,176.684217310487,0.0848379130083079,4.6755976256532,2.30747511715759,1.79235950730335,17.3293434365501,-4.37021361787584,273.182315303441,-29.6491301852762,13.0335708685116,0.71320764327899,99.4954929174939,0.225888532838653,272.444182005988,-34.2285402192105,112.74792477923,-23.4423582953697,219.637956095136,66.2530285362548,71.2371183492858,-6.05887853263094,158.07828470376,-18.4496367908939,138.694138542793,1.0250561942192,49.3374008022689,-5.38053731469235,169.387659775444,-32.2838746337456
912.25310445253,166.117940084502,2.90238955010884,0.997690783810696,1.91855905604661,2.3327833417309,16.2866561987146,-1.55419728991908,248.967118581393,-17.2682462629758,18.0982979727782,-4.74089851794606,95.3588586980716,-4.93858352227242,274.922020210297,-43.0798682361446,105.43580893677,-20.1149851587188,202.568759861879,71.0946112386573,65.9544548485385,-0.459080403960322,171.66261181298,-27.3638953336657,136.143010055295,1.291893398437,58.3767662782258,-8.65774273898583,179.660171541842,-43.6370426361766
926.030692305693,152.289686634315,2.56273246787905,0.271659806162981,1.59067271636022,0.0278947290741203,12.1623478238928,0.786105037705219,261.629304455962,-24.3568010848201,19.1393420461166,-4.60199080281117,95.3276093028911,-4.69571514932957,273.389016447911,-39.5727274429485,107.455437731309,-19.5207510758974,209.799717770278,67.1890099795521,75.6152949528024,-4.30981868493911,170.978786090954,-24.7907909948079,129.538546078426,5.0676123263044,52.1118696183954,-4.55149763717893,175.654183387197,-35.6021455717469
924.814885516806,173.49419486621,3.25554037537015,0.121940856524191,4.77308227042693,-1.07570808077283,17.1678658723196,-3.29144930023191,264.126448559057,-22.8195949524292,6.195370900044,1.35509276902508,103.878499136294,-4.21091363888009,272.907360006081,-41.0435847560634,103.067984781579,-14.9654637300879,215.935261885754,60.9942632087612,65.4527551642194,-0.0325776415386283,172.640852730033,-18.6628167058812,140.109831746269,-0.722640391687308,51.6994342221004,-2.08685712580558,170.714952922519,-29.2440641134341
918.120757060266,155.045870737912,8.34616759287712,1.55716338802893,-2.39924409851436,4.84817570415372,19.0682138957924,-2.74563744205511,257.044835300018,-22.1501708776147,13.7981153475236,-2.97218748681362,107.947254551252,-11.1478954261636,287.617490857739,-50.0296684748361,111.741986100322,-22.9665882745279,204.869604405415,72.2918971901809,71.117326625221,-2.70731187646675,165.876175400813,-17.2296612766879,129.989999613756,1.5059871434658,54.0853408411848,-5.10868431168746,174.405257747438,-40.3061654327075
935.336673416866,151.028742179048,1.79807926451832,2.7716169556029,3.38464201607363,1.15508140449918,21.0692175938652,-2.50327161104261,262.229817531774,-27.15233895769,12.9733483536657,2.36320018390107,105.513730746677,-12.3476298949518,270.65252674473,-39.5218151889752,110.321052183546,-20.3936109117882,209.370881495431,62.3792040142378,67.9639447938045,2.95356681863682,170.470639198929,-23.6139411136785,133.309037578864,2.37606962836555,62.8338493916542,-5.66161644800645,176.352748352044,-33.3139271184409
935.841895500952,161.095838045607,1.23093853429315,0.652772806263802,-1.2513781771336,3.62386871641868,21.1067922916683,-4.97205523629526,261.849416069504,-15.1486589358832,6.83232127111898,4.90217691509992,98.9047560567412,-6.34884357771263,275.055948411459,-44.2284376919947,107.44028240296,-18.538336666519,213.145435961948,68.0190090708306,79.7459407189277,-8.91673026414294,171.070099031516,-21.8403699288617,135.530154689998,-3.93051386747025,52.7973345431819,-2.21810966991181,186.882468341289,-38.0029886470061
931.570367806079,149.084331312206,3.14889848594925,2.4894464218508,8.40453743582342,-2.0252945677539,17.4718254240008,-3.44492150478664,262.78102309765,-24.5585583620962,19.2288179837302,-3.53827856704997,96.3711424778019,-3.49524721601553,268.186602594622,-37.1334452874536,112.268456859914,-20.300228585416,199.559881196456,66.5573915020971,69.3686370842709,-4.91705078144681,166.127940064238,-19.0903913770346,139.184941630684,-1.24685781361971,59.0919582110111,-3.40705908519932,181.743547188871,-42.9907432575544
921.837466602367,154.480821296883,5.18207906184765,0.471815779458246,1.93520776360549,3.5881610429745,15.4981112921105,-5.12355301006316,252.93882753263,-18.9237883077093,17.0490649824797,0.165297085107041,100.664013889964,-7.47722067336813,270.286978440809,-42.6866993486937,106.620356931752,-20.3429169891578,208.861081670738,66.8324112516294,70.1745500081554,-4.8723775306528,164.737764104897,-21.398153813788,133.574752406069,-0.834709597332336,53.4939079112643,-3.06787673879237,169.549442175842,-29.8015293326023
933.637827985025,157.116913078316,9.66838835855731,-0.974635353286968,-0.78966233451803,4.54758481031943,20.370221075703,-0.17551871652815,261.692811582815,-23.8328671969432,10.7014897270296,4.6577258312386,100.532115378736,-5.12306757363406,280.348199290241,-47.1242816103784,103.999689951302,-16.6941820170717,219.451478405394,58.5328508743413,60.5672067712701,5.0519260256911,174.303161944143,-24.1109184681013,142.347280569206,-4.69321168956731,59.0339836143471,-5.92310548226837,172.35620115555,-38.1546284304074
934.659740985374,151.661284745161,-4.11173377161489,9.11612001153917,5.3751441151109,-0.144644506078785,7.83737077486583,4.46840621232906,251.063023249643,-18.0625850724669,12.5806339011611,-4.03828857129268,94.464998562857,-4.09567763664684,272.769585865955,-38.5814583162186,108.277465808447,-18.3302004448011,198.083472936557,69.748340100831,61.6080067692199,4.32577325428423,166.189181062732,-22.6505671439036,130.752986828179,3.45807756199946,46.4345273749061,-0.594314012199003,170.848715941857,-30.2538201977568
941.216843817699,145.078326063793,8.87818800192374,-0.567909845586467,6.10751492193619,1.17375818717017,16.133755443846,-0.190499459702148,261.757156037133,-26.9844374758697,15.7885953599767,-2.28280846517655,100.057153712075,-11.1407704590543,288.995464115589,-48.4273377818014,106.588678805086,-20.0120100215147,206.232770715908,66.1722749099534,72.8081301848933,-6.65829932860909,162.742347307315,-19.2082298791306,135.082421003151,-1.96236545343359,53.0021418896351,-0.966493400124496,182.847837823103,-36.6384620109051
954.129537958611,147.104979631094,3.11255249289697,0.968904050391384,0.163050821326134,2.94603953558115,24.3882330197126,-1.41627957096824,263.64538017582,-30.5021213444634,19.0381240008982,-1.62377378742938,101.711496228746,-8.39107275573056,284.454364842481,-49.5931032998259,106.443955174446,-16.9780817101146,211.462518092706,68.5592389590233,75.6759806778911,-8.54433011304694,177.694258120017,-26.8736917632662,127.917694451323,5.48061215311919,55.0226261881221,-4.04477151679481,169.092967939437,-34.4075516591483
932.508481227748,161.420730035896,0.945615221892371,4.65919838640377,-1.57323129758975,5.78274113310858,11.6066728436341,1.38461438680347,264.413145292878,-24.8709976176242,25.5620540534167,-6.20149937779205,93.9689162971081,-10.1997376537477,281.075759464791,-45.529986580184,106.929559221472,-16.0755125326334,212.513121462104,61.4509994762213,71.3213243196815,-1.41726873318103,169.433108123351,-23.7652908281043,131.585470995968,-0.0967329101091288,54.5435832044377,-2.3213657089134,179.752778699005,-38.6261589106191
914.596952570514,163.338991775383,-1.2207180224311,4.99049735474943,3.76782236033648,0.562596352802126,21.7027300615298,-4.63550772117228,250.3882923763,-21.0629116942107,18.8572479618007,-2.32963678458326,97.7830155498862,-5.80166077301135,270.877964957617,-41.0871904491081,109.024138457758,-19.6062116951323,202.936325525896,66.5599474487384,63.8754105061509,-0.476896644147466,159.347998628334,-14.7032342542538,135.149046640891,-3.09189896234387,55.84692118586,-3.02323617227927,162.425547769696,-28.7136547457181
917.763914417292,164.42458200594,-1.4781342359267,4.85235898703675,11.4374417161164,-0.957282045697408,34.1636244916954,-9.2149753870147,247.920446254658,-14.3198303885487,13.2555198612249,-0.223164395666694,104.040473117732,-12.5828007076612,277.446824765763,-44.5237883147248,111.722084482564,-18.6009493898857,202.891208988634,69.8087969368586,72.1566519670754,-3.10334684530801,174.262703391248,-23.0823491139739,136.331684974963,-0.308299677840971,54.1838305249574,-5.4467036981978,181.444449325673,-40.9822067159028
937.095657708197,163.561537525639,-0.361346788738828,4.88045400189123,5.02913748233298,1.25907036384505,14.9179639156035,-2.95832977091695,259.193934992883,-20.3325110869426,15.5539722558796,-4.42858343412635,100.490699707153,-9.3129599556064,283.510299038662,-40.9396926416115,101.591814482087,-15.4348589264984,217.875711779775,68.5153837789745,76.2760532687127,-5.54627315129519,178.03377614378,-23.2478214594993,136.892157082643,-2.80922340051242,52.945979216711,-1.82454290609928,182.64188933977,-37.6837636381353
923.104120904315,156.985406474312,4.15851551619656,1.04086337130843,0.31558550609642,1.55038915071395,20.4422837982504,-2.99539069378213,242.454003516871,-14.9381453464205,13.4665119427121,-1.79229185221373,95.2425738197534,-6.55541554517343,271.590318694767,-37.1692214511828,108.599569839701,-19.7224910926352,211.338084134483,66.3310776143662,65.3683429853529,-5.542601636847,166.196584194013,-16.4160480888105,129.014728936273,5.89268365596493,57.9068724712563,-7.19505539179783,170.992420533124,-33.9571783590471
938.376048320715,158.443031498859,0.768155174674131,4.15597841715478,-2.15514989552912,5.29523420751132,20.9163068110251,-4.38322020850862,259.049532525657,-25.1337813247548,4.28687783899444,4.94350166743903,104.316971602641,-12.4001514082676,276.448032823315,-46.130529338133,104.778709455256,-17.4731510971397,209.988751908361,67.2095442596409,70.6918676587631,-3.55844203163925,171.549548032653,-21.8334847366116,128.336139617405,-0.41553274027094,56.2313321867653,-4.19338271870524,176.164712119378,-33.1622651759009
932.242816649469,162.275816765972,-0.741200360209573,4.29461178379217,3.37556912026748,0.96947066494758,14.0504657289077,-0.324058461308627,269.161343559064,-27.6959138803818,17.7306396206029,-4.14390613052347,99.9308497737736,-6.0521585403396,269.679225393922,-38.1548407197568,112.579081764313,-21.2277601950422,229.157374524793,59.1644723510936,66.7931245763779,-0.88118652725952,169.97925812003,-18.5776344671983,140.390506110121,-2.86867060991769,50.1843642285109,-2.41728273097639,180.609338034878,-37.1742992253768
926.833186895424,155.542017292946,-0.373812113768308,5.48845291722182,0.389271911867842,5.75113787850684,15.6687170928355,0.173503105392321,255.34246613151,-19.2848778017064,12.117147899314,-1.39488838451374,100.675511859828,-8.38978278522067,265.515626319163,-37.1431540128702,110.870430358177,-22.0675503084871,203.709309098543,70.6803695609175,67.1748723744915,-0.750637829796695,166.051436029453,-19.7655784778511,134.642285915117,-3.84507769658022,53.2411611897809,-2.83109875918284,165.754165536006,-30.6764504846617
917.415688941852,162.666639836343,0.517348318153229,5.68713279760219,-2.13610226030537,4.17198878940227,13.5546579331019,0.27639220734989,262.810385029575,-27.0537054294257,21.9970673495163,-3.78404562369017,101.334669857986,-5.9527012959666,281.334572811198,-42.5650912029779,107.377988544822,-20.5124773556963,209.961650257801,66.8592301502517,67.6642168841459,-2.70671346595941,162.189754310745,-19.1589481223469,143.325208038655,-4.89427739172301,50.9964887239581,0.747368163270752,183.275662993398,-38.2247856341712
942.627870377122,152.29074605117,8.25809889784826,-1.66091505135054,0.79766285119177,4.03244353425062,23.3936057589266,-6.02280550855469,258.754839632469,-22.5175973415168,14.0129039987185,-3.7290225675379,96.2874121034455,-6.85309389528532,281.09130347583,-42.8365333361372,109.831965411889,-20.126627081348,208.720500820902,71.2166859114377,71.0266007337598,-1.7712124521545,170.84859504334,-22.9841135447209,139.072711340511,-0.556631590779974,47.4864449497848,2.17753987262598,174.759983240778,-34.692313953126
925.137807458567,160.227603669087,3.92830272961029,3.64215422979464,1.41849943891428,2.48827061108011,23.470458318118,-0.278997699160475,260.906324372014,-23.9283820013242,11.5030167784481,-1.99911594965157,98.3526696735893,-8.82405513376327,279.229300257679,-44.1538533476118,107.93539024504,-22.9397558995846,209.804850974931,58.2978913757612,74.3208151195849,-4.89827356841516,155.810529021314,-16.2878903997097,133.674639110787,-0.555859205146115,62.9297983616645,-5.27094165608055,168.601898558729,-32.8678837597288
950.952744578381,136.740996637351,-4.70605762795031,9.8008290131834,0.291866778452185,3.41226838522717,18.6001464796924,-2.12410772137889,253.407794520102,-21.4640175403537,15.5237227774847,-0.127392792965584,98.1368137411981,-11.6136843909178,272.891451591325,-38.133460910488,108.503302661536,-22.7363958786639,204.947997328424,64.6542135650031,60.8642982773868,1.40661835037031,168.939719724881,-25.7389446347783,133.358872457047,2.95369124966563,56.9442222016769,-6.31266318827339,178.8248964379,-39.5436244667414
937.511221853675,161.317662939175,3.65941532366427,-0.254924446227183,2.3385290295612,-0.852655396719115,15.7872611771432,-0.120093027485962,261.32741952047,-23.0586828474351,8.89639351740492,0.816698265514766,106.954675920407,-11.3229589573145,272.628299815881,-36.5611968097437,110.263410754209,-20.7710853561426,221.548411112793,62.9099855705538,74.6238154054815,-4.23544842800184,169.01786652312,-20.8789103783954,137.705314033988,-0.750840344150011,58.2921622700846,-6.85994436073688,186.621610965189,-40.938052690281
928.704948606045,160.33754122575,4.54236774407376,0.989225996127941,1.62524652597012,1.1133426465214,25.4233550991084,-4.69820897619726,259.859570153555,-24.5027948810437,16.3875586577013,1.19921916080334,100.823382501795,-12.5395846506044,279.120516681938,-43.7281221798391,99.3643376841802,-11.2503393744945,206.200059910383,65.2563565844027,65.7216168041975,-1.84794164742139,167.210074892464,-20.3292948212979,130.421721547781,-3.15931021422047,48.14753143901,-2.01617597852207,177.967894581743,-37.9170555071628
931.08871621739,151.327678343069,1.43695772115866,3.44663021102422,4.96634662258578,-0.437063726798113,18.2780661498371,-2.27843747887683,257.727188042237,-20.210661361461,15.4665161814726,-2.95507321271807,105.051003568237,-11.122189266846,272.88785501394,-41.2326116522074,105.279147002057,-20.580818569504,210.787426382083,62.9487430358165,68.8282870173507,-4.3250969887662,157.722913398551,-18.0124496104095,128.031599847988,3.61851938717204,49.2028211552327,4.56061891268653,181.059956415053,-38.9962064751894
943.473399086852,151.88063048998,5.54159363669139,1.23620152201718,9.32294333813694,-2.90126438691931,11.7312877683797,1.07874929238145,251.693346657783,-21.5156289032654,15.2931088726533,-0.591037049358762,100.921878351405,-8.40397327881963,273.19845589653,-40.342161723496,112.502023067894,-23.0932990279867,224.650721254321,60.1418176490225,73.2716013740099,-4.11138886576981,165.7120373381,-18.1954845890955,143.973390053405,-6.42834941748915,54.2062536532985,-3.32657374090051,176.630875939471,-34.4985704355436
936.132662122022,161.339077889517,3.65487324803356,2.10895530066889,1.16936543471696,4.55384228147094,16.5170715592285,-2.22672525562959,268.135509373955,-27.7814145763465,7.7019011982639,3.19969277530396,101.033253429094,-6.89830748435551,270.283521772463,-37.0346143508932,121.894011690086,-27.6574377071955,206.801837626276,70.7825493492645,68.9506271025843,-5.57980971085398,168.879196872554,-25.5135851792347,135.426514286991,-1.89311604703785,51.5767592649716,-2.63268835296477,166.235764809016,-30.1762794319144
932.011123529235,149.825671797043,3.51439302621754,3.35760052246741,-3.3384134789216,8.15997964561896,16.7607083104144,-4.91209330921508,250.422062566357,-17.4087554350594,10.276444861524,-1.60484601518428,98.7016764983432,-5.13773359218954,270.783218927671,-41.3286308838644,107.352408693741,-18.1710096444324,202.308621224146,67.3167904064839,71.2600091927682,-4.62138735997358,165.118191185841,-21.6062682042291,128.948880949083,3.44876783790647,42.2597469957154,3.71901358865452,170.795398399639,-30.7405013608255
943.188427065812,149.44255629589,6.35242262136328,0.224370853239613,2.83218319256982,4.97845383783106,16.3490756966788,-2.56921693153315,258.70303736701,-24.2978043612593,16.2919105618784,-1.73267860603876,107.525705745444,-12.6866652831104,270.763420838742,-38.0915340059509,98.8660802007618,-16.0939996517676,201.500933409364,70.2822553775169,70.5200441068372,-2.31882313581661,172.529325596824,-27.2290168340612,131.713294868515,0.605291429085913,55.0984041307119,-2.39475888195254,181.728552154545,-40.760697569096
921.992741589505,171.065526934119,4.69480766857749,0.14566602421025,-0.482342564156551,4.60318640609905,28.5199448255009,-7.94546063213625,252.311375466331,-19.429524640771,13.0895828220832,-1.02569099201779,100.413721192773,-8.10635791395141,282.332486292182,-49.5430815644925,111.163384303132,-22.1550844133451,222.667789645744,61.9143140206886,74.2960455045557,-6.00258479362916,160.278487953292,-17.8260240534102,125.47860170323,3.62368909686982,45.1231071635264,0.256313739845253,179.510287433852,-34.1933543427753
924.029921064925,158.53795388944,-2.35488175160263,6.04845891825775,1.45714402889859,2.01497754717973,18.9024424454427,-6.11258117356858,264.250530312523,-25.4475419070828,14.9008897433228,-3.77712965756857,100.372235724815,-11.8367440410594,271.786376996304,-39.022813641708,107.02597057723,-18.7610862795389,202.649468438735,69.2575271805672,71.6661286138361,-2.76216792337972,157.586590720656,-14.3500330393114,124.920984623269,1.77170720819012,47.5854210123851,-4.71808652250654,179.224546414123,-38.2937259128649
945.728268974485,148.190854941095,3.17408682482449,2.76831529329787,1.01214868038127,2.81565806627041,21.1965094193726,-3.52500253656004,253.580064325774,-26.7489520096054,13.0309340695692,-0.147199733377495,106.753743891608,-13.3394435304765,274.854073305425,-40.9152723628529,106.66828229567,-18.4146758483472,206.329104824704,68.924727604195,65.360240484252,0.241169936897399,148.553906499822,-8.64316519096021,120.00391533927,7.85463654633604,61.796259138647,-10.6307887154813,171.280687603286,-30.2810236245038
926.870246915051,168.395538345572,5.09589050017134,-0.0842249435135585,7.54869815946488,0.177468526156694,15.7704578084175,2.47201210896453,257.695487127385,-18.1820348147678,10.396003556289,-1.48918323270897,99.5440998242967,-7.202052322287,274.220540092922,-43.5943966002974,105.332696416711,-16.5812204531323,216.99334142907,70.3044959851159,73.1508896274664,-2.67955736425577,170.023996212431,-25.199067740445,130.844518151416,5.71199359185499,45.8708363932145,0.667053754143405,181.094787104146,-36.5027512215517
911.977955036381,169.442130931794,2.2365428456013,4.06664098896294,5.60072912950639,-0.678664477207518,14.8359128771483,-4.91594868026669,259.166674041462,-22.2806299497143,16.8279217456808,-2.56348161959944,99.4599203297068,-13.8246199530907,270.649996439355,-41.1303399762971,107.877860601764,-23.7207317579633,202.778468210904,63.4184174539138,69.0362875780981,-7.94259969452306,148.643920409537,-14.2785851412907,126.168876826323,6.26641533322607,41.0546310507232,6.25964024493325,172.144639917729,-34.5990621295069
935.770890876948,155.08177715116,0.410746640786633,3.68096921293041,4.5925938510294,0.917956265404822,21.4366124013377,-7.40861662968935,262.396609655316,-26.5838897716911,14.5681276709822,-2.45930104705377,98.7149713744968,-7.81452274034068,271.280111543569,-42.7092308881325,100.844984288064,-20.278357780628,203.476125353026,65.0470459858277,65.0346877296446,-3.57207601937558,172.921475728577,-25.8247461721335,134.987330591755,-0.775421750969481,57.7014763050187,-9.18494585528625,179.845183536379,-35.2908679265454
936.660724748563,160.778933491876,4.82184447086143,-0.075803005653405,5.74787183344207,1.10727689016344,9.4373855158458,0.762970863676321,262.210815412727,-27.0478668882022,18.2927272272846,-5.02110044507332,95.1320770562908,-5.49985702577102,280.503383582384,-47.8102320860754,111.376988356469,-21.9468812705094,210.122247938046,69.650010319586,61.5485799345394,4.30553277801655,166.839178255585,-20.0139906984363,135.913310065608,0.0397597091958657,53.4913287616639,-0.475963523766722,184.09582375547,-33.8452646570899
918.508554359048,167.274697747072,1.64579033833751,2.07650212496124,5.79759342319703,0.417737697219912,22.456423571329,-0.257118969284642,255.382446143079,-20.6087430979178,12.9203101607616,1.23819312180147,97.060305855318,-1.85070141323802,267.59255986474,-31.6602378363382,107.209420667635,-17.4489228730407,196.63038042328,72.2411370823805,73.9618337887203,-6.89642744055824,168.192553887688,-28.7541001608447,130.067009178387,-1.38809776206597,45.0105225259529,-2.61625263586274,173.301440583183,-32.557751764842
922.125649519875,162.870360598874,2.48629864049312,1.27015611098944,8.35076222484791,-2.27953240499791,19.9599205906082,-4.2247195494472,247.028476243893,-19.5772563934583,18.0635758802746,-3.30156189671845,99.7993845683024,-8.98674765413337,270.852669571153,-37.2592232744309,103.913618900294,-15.4407614546067,214.153217180185,58.7471596655642,70.74019174334,-1.66400975546182,169.413658628034,-24.357796368034,129.641651829842,-0.432278873610347,59.1961102779824,-10.4883986254105,168.955737060582,-27.7394506007553
929.622085592102,161.73942460754,3.42544390645705,5.33494732319494,1.81350171049347,-0.106149489891564,14.9902597133612,-4.20909271998697,254.98165836969,-21.2607300761189,9.81802150423879,0.518586280265475,100.635314388297,-4.74791573783243,272.898493145249,-40.302368955332,111.000278044376,-22.0429603255023,212.573798561073,65.9411894128538,69.9595001305349,-4.29115722701132,170.635532434662,-27.9608632099725,141.301779763338,-5.01187087841951,45.5372968953383,3.52240728575576,178.302755060599,-33.7661384848298
933.457018105694,153.885771210022,5.28001868096509,-0.574483676162783,6.33886369883329,1.45861328484722,22.8619530959614,-6.9920584789301,259.768740916883,-21.9999128985959,9.72741672496162,0.296444088637098,105.137493917798,-9.61394653065941,270.220218047048,-40.1087817639485,111.246846580821,-24.3377979150469,210.154463423252,65.8858709184578,69.2717083402707,-6.73445088992574,175.979568979177,-24.1082626925778,134.176254255067,-1.78091008141802,57.4278739361777,-6.8942952306582,180.870226950057,-36.3805671014783
931.202999359228,163.854829433912,3.05742876154623,1.14930987266076,4.25300773309053,1.52841423907694,8.9926773911609,4.35739039109432,245.927282161554,-18.7047477159731,18.8442938721303,-6.16938750393254,96.6024926819762,0.561316856977976,268.883425779399,-39.6680486563207,101.929346828537,-17.4295354189963,208.73559406482,63.0498869759355,75.9331085038165,-7.27430187198034,168.882532697001,-27.6346558260938,130.528435853827,-0.419936685435498,62.8395335922973,-6.14207261774151,177.829446796095,-37.9423475368641
937.572209021666,163.876593142017,2.58002297230874,1.47888177055915,-2.18788255421676,4.56876974823268,14.6518922772338,0.243082591681444,256.896009496375,-19.9430253365975,14.6879424149236,-1.28583625392311,104.756827552135,-12.5463011679517,276.496277834903,-43.8733189809664,114.176625479687,-19.9114754739565,221.902888203232,57.6302543368211,64.9911595274247,0.303836371084667,172.361532754465,-20.1287043089951,134.492569177036,-2.02898103166727,57.349567633032,-8.96348541462033,184.512801867464,-42.8914481570804
930.255400691785,161.753324609912,14.3752577402249,-5.36894921391942,0.941267229733205,3.13313119259827,14.1715570570918,0.662510289326898,261.580281001294,-27.0722195464395,20.163422167722,-4.50748963231999,107.97779878982,-14.3051321957128,278.573192359482,-42.2197561997991,100.148078150146,-18.4837164199062,201.087629393765,65.628887852339,61.6002672459873,2.46025737931887,167.61238091079,-24.430191782101,135.178574608053,-4.49740633769368,53.2481185352415,-7.0137638972489,179.967272833614,-42.8832668660089
938.64559561758,157.399687186691,0.667678300697387,1.75949106824235,4.81421874482351,-0.23213942139602,18.6097405939269,-0.429353552980639,267.526593810335,-27.9327269447042,13.4708871213838,0.0609086936269931,95.5790147611997,-8.48449814053479,273.062118490711,-41.1902018608022,111.149050620722,-22.5988372761586,213.248354302719,63.7252049426421,59.141778531595,4.19346608382346,181.102386959024,-31.5753764280338,133.949558395719,2.06558612889057,52.8543946148338,4.36784499817686,160.498661047499,-26.2708692182562
924.229319841783,169.821749110951,8.48392616090893,-1.65485680987343,0.970779945551823,1.99184872096975,15.4092209767754,-5.62383832295524,266.834993541921,-27.4905596276319,7.74949256380077,1.54366792664235,108.931892269786,-10.1622627970833,277.82681875986,-44.0848779618759,100.958518410272,-14.2822057457679,224.71048448921,59.2254308877634,66.5059808675374,0.565261396333871,169.342817145745,-23.914985529632,140.119973806638,-2.69820032876462,51.503938380702,0.610571148466964,181.899775243529,-43.7915939476461
933.855261463157,164.58854642304,1.97404751463993,1.55552229547247,5.44299348525856,0.562033898762433,17.1960048388493,-1.89211377340046,247.805985543515,-15.3674544032295,7.81412360669841,4.1425880196897,99.640486262651,-6.80358503979317,284.219236407117,-44.8362567452358,105.48607781409,-18.2986480999038,206.204638381365,59.8649645108391,72.5144282987245,-0.0749650144236017,175.035801890684,-31.0510598224324,138.321306193647,-2.369644192689,64.9551938733813,-13.4510786921923,179.252920236318,-38.6629570159745
928.802180090274,162.133166229714,1.38188490318804,0.97246642882483,-3.29347290713328,5.48805306071907,14.3910030744867,0.995503495138872,260.915598144787,-24.841188146913,4.25972001361328,6.39776918111834,98.1147010454498,-6.36983020636952,286.831952597343,-44.9574798902414,106.732621117779,-18.2726677398302,195.301604170347,72.2510601212236,73.5487437048884,-5.81133590054805,172.866157961445,-25.9137389544551,138.110487829466,-2.93671132298039,48.0146964611886,-4.35993419489788,181.420132147301,-38.2199437481449
938.481388243903,157.511727940753,2.21677765261821,3.09723637473481,2.91085270998743,0.453583151508628,5.88519251305655,5.57311860176783,262.105566966949,-23.8336969116466,18.2830756327719,-2.29667439249233,103.220651547494,-14.0682436036308,272.657299830779,-39.6039563992811,112.534454084929,-22.2338651077172,217.391758835976,63.4222145643176,66.2440293597649,-0.689849961673716,168.857238223679,-19.9528477883326,135.54910832568,0.761881143583189,54.6506665474627,-6.00479283395506,183.149873476375,-36.3704335217547
943.560626353814,163.552567947337,-0.321049057053378,4.1216554310064,7.33340602226992,0.687651278114893,26.3243276284335,-3.86084970750455,259.940283507474,-21.4545416694744,13.1775501738299,-3.20976878653876,102.099646413809,-8.78203034306831,283.746187463248,-47.8159495647526,111.874591441154,-22.7814538886297,216.802752237126,67.2685079909312,71.4405400445229,-1.78930632193988,167.157475098322,-16.9289609155524,136.874069943549,0.0732914741645582,54.353308220144,-1.06887455687467,168.268207954467,-27.7392502547281
940.629394528966,154.040878902209,-2.02000639237505,4.15809002302305,2.09548382375518,1.00794233997199,18.3415411335354,-2.61556624906093,256.338312763993,-28.4083519686792,11.2813691018091,-0.049825658543533,105.016015145408,-12.7381913023803,271.674328145559,-40.5782764968702,108.139240808444,-20.3696820153724,205.129956402252,66.6406375444694,63.5951590525442,-1.38734090177149,167.339240689488,-18.1888874744906,134.38781372589,-0.873472260101064,56.9891541334701,-9.51981714021213,182.429373554787,-38.9942905092492
931.680680856334,161.023112874243,7.03298502341484,-1.02191095042147,1.63426892328384,3.44315735492436,14.9964284461666,-2.25322675792543,249.498898145712,-18.8753938275022,14.5847498460904,-3.04272769006579,98.0242362452145,-6.73090933915775,269.77325639684,-35.0496322154464,103.144363828837,-15.4046375207641,211.969475483332,69.5874250731166,65.4692776778765,-2.20219678643761,169.791785183708,-22.6697602146182,136.934804810903,-0.269524229498631,53.3360489090523,-7.36290089638917,175.104921344106,-33.705886187616
934.66228523104,168.817680950779,7.56745994820877,-0.355533047236497,3.70417337973465,2.03848776345773,23.5213446972907,-0.186129334288131,266.456858474129,-25.5730592278569,14.6060822843833,-2.82689297414004,102.000578876316,-2.01715641576114,279.21150526855,-42.6253637185522,102.965802542027,-15.1147754340763,221.013355481454,60.5006385835941,74.453977238521,-5.58978428477427,166.274827289374,-19.884365588231,128.286274601798,2.61010430193764,51.4007946346396,-3.67003875061308,180.485266061272,-39.4217615399568
928.741052467401,161.218928234206,2.72091900435134,0.400593531139047,3.48889135402207,2.05850541661737,18.374867187954,-4.45021034123204,259.743122478832,-24.0757920112083,7.26248913419964,4.85313186039322,104.254838726553,-6.62640918534057,272.322333463865,-35.5095142004656,110.79210612997,-21.6240647025337,215.968509396447,53.6192553160107,75.8459789430644,-6.22864948857073,160.079527851237,-16.481087283198,134.280444693451,-2.17271736335941,60.4807255990053,-5.29010387108531,173.550052243562,-31.1376267075418
931.166111239334,158.767845080969,4.06679777479436,1.65325968012196,4.45264754031355,1.27988320283277,16.7719722878006,-1.36502645296315,261.198553658745,-23.1627870940064,11.3711673084348,3.0172681601611,107.076631079369,-12.6518968832799,273.56614700752,-36.5210062256901,109.438103255801,-18.037161636172,217.428758036806,63.1401470114162,71.4692507121569,-2.29001061739006,168.018702966322,-19.5202701232309,136.448162751411,1.36351475704979,56.4904530261809,-4.13182448528558,178.973562807556,-33.7456385402039
937.544854529471,166.561626356367,-0.161453718582407,5.33097731495559,4.12852590810705,0.254738879098059,19.4084382651541,-1.91921879040551,264.5951509976,-21.1246271444581,13.0611002151371,-1.26853233435966,104.532976169301,-10.054098047271,274.433357229977,-38.0485840683652,110.224221426942,-20.0182969718905,208.549105255865,67.9300144661544,72.3692721610478,-4.49541019001502,169.192618436676,-22.3628857078563,133.912694550449,-0.823044131303147,47.8544931459036,1.58626856109099,181.674061827348,-42.4241151203151
938.499389959355,158.48812571895,1.45357278439119,1.21789490917084,0.50179219312328,2.27724791701477,21.3461790193715,-2.48066610365618,250.847292698787,-17.9756269906693,12.6945408531031,-1.06911488663846,111.123200632085,-10.249958706021,276.426747350126,-39.5036628962833,106.077243198055,-17.1186393622007,215.064603638382,58.4348392912753,64.5159996208001,-3.18005526401781,163.19391850772,-19.888844308171,127.212357159959,3.07577772391426,50.0209930476035,-4.8711545996066,174.268711503729,-37.8886707927233
961.340570810142,152.895758508898,1.72569905261002,2.51980273870705,1.90242164685662,-0.0146419340905083,23.5924520913906,-7.23370838401046,259.685586718448,-24.0490246459672,11.4582224889996,3.06520335057939,91.0579689317416,-0.960632940612686,279.07105793107,-41.7892967761371,113.07568969563,-23.5457901210963,211.362902267304,63.7088827666406,65.0966763001171,-2.56239835874795,175.870798888293,-28.5168937510689,142.941336369549,-1.07339639318513,48.3546847150478,2.27574240169407,173.886660763206,-35.9353415748953
952.099615549838,167.952170918523,3.17973295674151,1.71162670341549,2.1525036920387,2.69128116774522,14.92569848666,0.111435972092702,261.18795046107,-16.1008949346606,15.6454306792244,-4.31778151942161,108.341404154393,-7.59656707624324,285.975618203235,-42.143739281952,111.036491259114,-22.3972080106636,219.860303919319,62.0867684358368,65.7926224872123,1.52788106837685,168.922464452819,-24.172568176413,145.122167530976,-1.99150149253505,46.2601082224329,-2.43043927799189,183.11120180899,-40.2282772024326
944.946826767523,155.380954658271,4.60565949191383,-1.28165878414719,8.23077953363287,-1.27185248314758,26.9946724179422,-6.04225710205038,264.320479848215,-26.5568085708852,10.9157911582785,1.86896592111223,97.1849054565521,-7.10402465208085,272.973520218636,-37.370416769207,108.655042135393,-22.3843142569019,201.336658274319,65.9372366116528,73.4943306507031,-5.88038484741481,159.127600060982,-20.9352187721878,140.667178420482,-2.44189295766354,60.5509561054727,-3.20100438165655,186.712667339017,-37.1532473582862
933.686553727468,159.137353590658,5.02817539853373,2.71162108255935,8.66138971444736,-2.48488138359516,20.8320552505374,-3.91502440432329,249.827991921197,-14.4200074642779,16.83104524716,-1.79554575793619,105.291961923209,-14.1366952029897,290.286872826716,-52.7773212027161,108.647506710631,-21.647931595358,216.784814901347,59.7984340977437,71.9100448234491,-2.82083429953999,164.739780293436,-21.0405413245723,135.084251184952,-0.399172000650126,49.7517683448874,-0.11930783461624,182.415913618781,-40.5960055961163
942.15805924818,168.948402793163,-0.138025433388023,7.57015294826095,4.47861334209646,-0.30771720011399,12.3503945987037,-2.05516680874475,274.134303849283,-26.3537430546519,14.894066059926,-1.43194750356099,103.862470602406,-6.99093314742957,284.547528394083,-47.3827487833425,113.100608438762,-18.2000856941673,214.523788674535,67.49132469799,68.5047735160701,-0.030671906130443,165.720459215697,-19.6190171327014,141.258457052684,-2.22208337629309,52.5739028322446,-2.70058647905401,179.947246793009,-39.6024889622279
