838.684826175911,127.483655563497,0.824561278787235,2.79278810691462,3.53654966656561,0.690361119132882,17.0634146216476,1.23208404360914,292.212574603235,-28.0524801613608,16.8627178704727,-3.14935868730987,103.592134539205,-4.73693640100685,317.979857195249,-54.8668866543148,110.742342663167,-17.7047308768156,264.812099764868,65.748748225709,91.2339910922469,-10.1958814686024,189.615388195322,-25.3683577291531,159.944117327,-0.712938881088939,66.2823135027077,-8.34389265731926,171.232049765044,-38.0614252655156
854.351409680454,117.308424848528,3.2631266025668,1.80438098759131,2.85641614642589,2.64201001257753,18.265730604121,-1.99401065154379,297.150875951615,-28.3992883648493,14.869839943949,-0.516507877116255,112.212571707982,-14.1900589735249,314.483405575949,-47.8203269028557,113.467270282042,-20.0715261999981,266.768867123268,68.4398069398429,83.6636877664924,-9.18834539155316,199.008499989199,-28.6389502013976,173.330879184692,-10.7317778270791,68.1682592987458,-8.05084833506173,179.259027267528,-37.2148285184872
837.347063026002,115.05630154045,3.87290601706502,0.0851974118900996,4.3221645029526,-0.389461351464549,24.0244734576316,-6.38596554596842,285.972116829,-26.2836282085988,16.7918504892344,-0.922798811343036,106.934739236676,-5.57050492875647,316.075067637547,-50.3982425789572,112.813732055916,-20.1133320146853,263.18386462079,66.7751023144681,85.8957002000637,-9.45615338610948,189.000956364053,-26.0863621790068,159.946652130895,-2.24350994282618,57.2523067492335,-0.11233908619603,180.3278625534,-37.8309793609192
834.028122063983,121.696829726897,13.7835837614383,-3.34417378097668,4.6736529913726,-0.826117401059839,15.9348019812606,1.92442476560583,290.731204316761,-28.6543796923509,14.2458000547771,0.313808515153653,109.588603697496,-11.1998860638542,312.585579830386,-44.1276817518832,114.930169563713,-18.252642504015,259.854383583223,72.3180415195702,85.0715435823026,-10.0467649218757,188.953752092178,-24.5455118575413,164.124129521591,-1.31444829184055,64.2545279350107,-6.37233676585682,180.981184743323,-39.6344454100016
847.717629764095,116.733293158232,2.61505393769489,2.22191550216551,0.496875325056823,3.23515768136244,11.3236109500982,4.11592468460202,294.903198004809,-30.357920037382,8.29257387603383,2.75702711339714,104.888641215968,-5.30498040920447,321.335515865313,-54.0090546292573,116.674993056963,-20.5022461216772,261.311638848513,69.0528027802539,88.2215298210818,-11.929194740834,194.645104739362,-28.8799641511589,174.95948747683,-9.95720677338178,59.9621295491728,-3.60772632718767,178.806624094376,-36.4521719594884
853.624255682436,117.503018083336,4.33831755107603,-0.652881322048311,3.03173972396266,1.172675655765,20.3031000395539,-2.68013453207063,299.091373032764,-31.3892213307346,17.8202140541288,-2.26624666446209,119.720150249036,-14.6969154078031,326.506058912643,-51.6664583674141,119.738894366329,-24.0882494945452,260.96845105319,65.2610264903259,81.5312712206351,-0.205847278369158,197.687170523939,-32.9578572245493,169.689684249398,-3.13549480024809,64.2256837935196,-5.96846965613673,171.906745065604,-31.738146676297
851.874233844687,111.572819040884,1.95035186881217,2.95253586276107,-1.78064807206626,5.14412850498623,21.4939723870212,-1.30366216805241,298.961434333295,-32.1174299969905,17.771636733136,-1.53646802683265,114.644543321663,-13.7688551087212,327.921689253556,-56.8359455203033,116.34805018418,-19.8380796846061,264.547389210982,65.5825926075908,85.4069489227594,-7.0303727626368,192.919399793352,-26.1410283936919,169.459476307138,-5.47184695747341,67.621536996914,-7.639867482391,185.351321256635,-41.4989843297636
836.701800341966,126.325234106584,0.07540216504017,5.00125099074848,1.59660098647085,2.74445822856486,25.0016003333309,-5.49366362259737,299.159026497293,-31.5730136350695,11.3262895065627,-0.480329850485215,110.580405504882,-8.27210099235674,323.360638027567,-48.7678662746974,122.62275210537,-25.0288852425334,258.013902493725,76.2933153647058,89.4900757895042,-9.87068063234213,196.06247945537,-27.5566102673494,168.517022512107,-2.32198596708649,68.7299346598616,-8.41627578371422,181.175397564049,-35.4323049114702
861.090630838777,116.900960662142,3.63725562694516,2.39948043684562,3.53598009233819,5.97433831438725,11.5907609793799,6.44967098936849,305.631818588778,-30.5735637885746,14.4271295966952,-0.472677324457332,114.738230654188,-13.375012197364,331.673902554214,-51.3241619250812,121.286182849449,-24.1033728119362,263.770087097366,73.0760937394614,81.5072728725021,-7.94064715478295,200.179606617864,-30.9319578745882,175.765705327512,-5.41336277573697,59.6691635567288,-1.31398849321678,175.39426103994,-33.949826322341
847.064803845341,119.791818516261,9.94144651024927,-0.46260918900243,5.9168695570187,0.0951252094229968,10.634997005166,1.80650066258201,291.117213766996,-32.7260116897405,11.3124555559957,3.94047961609605,116.282832137615,-13.1274278383846,321.102215076308,-51.5928594285317,126.598284767761,-28.0912317241816,256.364142870635,70.6790373275817,84.8181588974353,-7.15339258375839,195.669566575931,-24.3790185429965,161.07665697541,-0.408762094107113,54.8039973950647,2.20906703550553,181.7245880217,-37.5330268967469
837.158751079396,128.444122884771,3.80261416638745,1.72575629329512,0.79861665268485,3.81632861426831,22.5485122252476,-6.91466029124444,300.429057880388,-32.7014798916543,11.4882712339739,1.90304993679342,108.274492481529,-5.36059637936171,321.839686788759,-50.0297840841145,105.430174653303,-13.8088788802379,262.1956257005,70.589856221145,75.497150859945,-2.63449369683927,193.536116006621,-27.817697358205,177.223808885942,-12.2422374098537,73.2331923764739,-8.83914564176154,181.138793988518,-38.6435321322422
859.978555150573,123.274569281704,-0.446771237909767,3.27544433499952,3.5869449593277,2.88288129499589,15.3291170732136,-0.894353706435038,308.254783628789,-30.8131010328513,14.7009634171595,-1.11964054434983,109.466286114352,-8.74925456731014,328.530801723772,-54.5340988024684,118.072913104947,-21.7424806582785,271.041817786147,71.9963030790412,81.731110283992,-3.44288145114552,194.105442136569,-24.253458194712,168.406574024037,-1.70189158353487,66.5420086788382,-7.94005094212145,176.800955772241,-33.09457334765
859.887501070509,116.978709169001,10.0349631595481,-1.00256119481586,5.32922404842136,1.55879015641882,24.7649049807255,-8.4701369544383,287.282813165012,-22.4659259926588,12.5562752257815,-1.85563579034949,108.825425193148,-6.71810888353371,322.218572886052,-58.2010328861822,114.604852006041,-19.4260688121578,252.151742660033,72.0869162136152,74.6249448647884,-0.379617607394498,202.254331409619,-29.2823957877218,176.514805084768,-7.988122729334,69.2277233283124,-7.63934320838267,173.220909955574,-34.8952820688562
846.123756389651,124.3827048094,-2.59452378077488,6.79516604829248,5.10656516830846,-0.326438172365044,20.0864125991346,0.144166002173637,286.494968494059,-24.7388962939116,21.7543138470211,-3.72146817822903,103.691663199574,-5.71223481484822,334.666113851781,-60.0823156801955,119.317921161225,-21.0924689997375,254.827286385419,70.7116797709409,74.2815039557086,-3.45824445939775,193.635754270983,-24.7214661334616,171.750489162811,-9.07312591189804,65.6380272593947,-6.9012164667464,170.215158643663,-32.5453533840774
857.902733111091,126.001087673825,0.198028351610188,1.70344016133404,-1.4155517174553,5.28533687464122,22.6219917187477,-6.24312538408497,306.48251041575,-34.3434321202425,12.8446029288322,-2.65979607443468,116.376204827492,-12.2834318445158,328.292262176662,-50.3540026708616,115.837883717973,-23.5843435266995,264.236239805992,69.1699986869524,83.4005626572201,-6.03854878566188,201.721805568682,-31.3135447042508,171.3922367101,-6.9246483978919,70.2861913737928,-8.90875967299058,184.108187398929,-37.8938907547758
858.539771932985,117.282806449361,6.41535563827941,0.983769043395243,6.93710166279045,0.0294705974834778,21.0682552480636,-4.52592319531063,288.376805361899,-22.9001154515301,20.9010939993888,-5.65988282557699,108.850949213319,-8.28882671017912,321.506538208697,-49.991004533117,119.080148086529,-25.4457330365375,271.377671312487,67.1103555887095,74.4357993309869,2.91700898237305,201.479897955645,-32.3673668628392,170.418588129207,-5.88380179196003,68.8882225018289,-4.59536981459856,181.200022324973,-35.4972942385797
861.779752066277,119.112642346377,10.3913216167959,-2.9595598947203,6.61921237032813,-1.17236791499711,22.1862135471769,-5.68267558131497,297.127822572616,-29.6376308793611,13.0273861984052,-0.691748627861009,104.525999013016,-6.43826544592488,327.558384713051,-56.7459079781508,111.741647188691,-17.7147658373967,260.96992805988,69.3186994853367,72.3659281216697,-2.60397179288485,192.940687016519,-33.1939454561666,167.656312738515,-8.00835019171426,74.9303064326455,-14.8492896203736,181.554742888476,-35.9219814418225
851.326941240852,128.930159090498,0.131446622215441,2.70696102522878,2.79005231665367,0.395706358888344,13.8051680573838,0.821436942403913,291.183681162128,-23.6589575772694,11.9839638426161,-0.0363747276800384,116.596991059346,-14.214022541101,324.600654722575,-53.0384694748185,122.158754608102,-25.1035110548565,265.174935367964,80.1673550181395,84.8455948662125,-7.22368675416848,197.295584325339,-31.6853983323367,176.097070554566,-6.70144675818198,64.7076098746607,-5.80170956257828,186.230659392094,-38.9717128598151
861.016611841831,122.140093138473,0.07342632076569,2.87616467958982,2.06356888984758,1.49781873351407,11.9048978258163,0.607317491853001,292.831155800549,-24.0527732222872,9.51699226283629,2.29282418326372,109.409035216321,-8.09450169165559,323.340085451765,-51.3534571526342,119.574546487791,-23.3994556585289,256.899464376048,76.8298089464311,82.1450134344131,-2.62619814270953,193.359556483664,-24.5406169951072,170.635905500909,-9.26854723993598,71.3198307197179,-10.6172933017761,172.91438032846,-36.5668397910957
846.517574643356,127.240964803446,6.48061442113821,-1.15933728764042,2.31724025293317,2.4426035127405,17.855425383286,-1.52441360251031,294.538970116992,-29.0013577651329,15.8973739991392,-1.3422708539074,109.673338890986,-9.22031629674843,326.532122648186,-53.267672231193,114.983092442765,-20.4221815253494,263.369142646138,69.7854141423084,83.223339328332,-8.07375593504581,197.081753469558,-27.4214024581334,169.23782964889,-4.61539115426793,61.6436141998224,-4.32863585577822,170.941903887761,-31.6556545994031
850.075251280171,121.84802018277,5.4623305913367,-0.854983901570273,-0.253212833873702,3.8626286433625,29.6338603217605,-9.6814733365409,296.947328230173,-31.9054868333609,17.0861161992761,-1.54820723095891,108.909156647251,-5.42281898351909,328.5452773742,-53.7782646992751,110.180138626569,-16.3422177745227,253.19917180764,81.2441831908002,88.4387440497342,-7.55956468595574,201.759106806969,-28.6258182297263,170.235213446244,-6.58898713591442,63.067668581747,-5.25689848526033,182.336533064178,-40.0433710691828
850.784355502602,131.360343291719,2.15788576351712,2.0658570047467,5.76044782081729,2.19283788761307,28.4747281512125,-8.37286117924136,294.581976790376,-25.5488420833257,17.2509321749978,-2.86054339229149,101.949644994682,-6.78539675553345,334.80480930515,-59.691933412616,113.061964118789,-18.5032740631191,280.833533072353,61.8995133064172,87.9228064419772,-8.74874426560356,202.408983629786,-29.6708082826899,173.514258780969,-6.89827678245428,60.5912650382111,-3.01597688867944,184.397113029555,-36.5919031476235
847.132100977173,129.346694377914,1.72023470410924,1.85089280055024,-1.59333547621331,3.29343218020338,24.4760198463825,-1.87772513686603,286.891582712511,-26.2629734112905,18.3863575936797,-2.29378694937636,109.546957979809,-7.71023280999912,337.423247227603,-60.8671745288564,118.402736061661,-23.0222480434236,265.41345254577,65.0103460385247,83.6871187958933,-5.47477805022173,203.177383356189,-33.3192947295508,166.17650164144,1.23002514934463,66.6483008104669,-7.85795290912824,180.800358925338,-40.8428942669556
858.153982359446,123.158145601139,4.15911100630264,-0.785383268615451,1.34162804309861,2.62329765162926,26.4767572856745,-4.39318112278956,285.306040411706,-18.4493902690004,18.0359127341747,-5.00794435197783,120.551559293624,-16.2699001578937,321.176746300409,-45.0917164409807,119.518624268383,-21.1383672652712,270.702857254996,67.9597241420639,89.3333007435513,-12.4912873697388,192.993341149478,-24.4044237145911,168.51266226164,-8.85807416210433,54.2404935300433,1.7202391382592,178.487616071446,-39.0769616868104
852.066925799017,137.832712903384,4.11910111969173,2.24428255307163,4.26185012245022,0.129931188820467,24.3591432323142,-2.78611605564105,291.680633611281,-29.5847609022297,8.4936472942971,1.38252786163924,114.076274878774,-14.1402090161287,324.900852673298,-55.8907109721183,122.367349339965,-25.5272491583237,270.162392205534,75.0389675090545,73.0228767476114,-1.7173470588819,194.770110596887,-25.1143112013345,172.490061548982,-5.80511800212869,64.7876474998788,-5.48775735670385,183.569320011335,-37.6884229968234
872.73689092314,114.707471488103,-0.520263758868918,3.42191782794475,-2.86128024080308,5.02248070960367,13.8131083409783,-1.60522029881189,289.377054733806,-21.4035844260413,13.1148346613368,-0.0767016498064711,106.595910625527,-7.77844310225566,322.15060350281,-55.1295203965796,120.557605418089,-23.3121622986505,252.251398648753,75.1730587302056,79.3296550225285,-3.80098185142263,200.880404132627,-30.4800806456139,175.0082436453,-12.0230189329485,64.4198704790296,-6.3292206898586,182.303056152254,-40.0286103414779
861.321148629488,123.4470561692,-2.19784610015135,6.39432265260346,0.400486443208483,1.90555281625848,20.0723695547668,-2.21013235744166,290.524236872862,-28.6649789364073,13.7280812902793,-1.5915128911447,110.061817428212,-9.62952978886725,311.522926184156,-45.8825607964336,115.02293090915,-20.8304150962405,272.392833757797,62.0469238616282,88.3924110260042,-10.1807819344919,196.22626400995,-32.5136341230373,164.116462666079,-0.428690465390582,53.9144992198595,1.36160185719282,176.621615315589,-33.1208552283611
863.242112156159,128.144643528836,2.02579054524014,4.69195234560642,9.91515750997429,-1.96078933812274,26.6608399287932,-6.77869112623951,289.313376854231,-28.2698389652921,20.7321080597789,-6.54775373097755,106.913899464522,-10.8638998704138,324.946400165959,-57.3699878581301,114.582298345009,-21.7735852944838,259.308422604996,74.8048919851929,77.2986242031351,-3.08993523522684,191.499693576217,-22.0535091580015,168.609422021454,-5.88801463846199,70.5779874214812,-10.3068772148641,173.816672247599,-32.8725298686226
861.836169764286,125.078081785791,16.6797762310799,-5.91197583362721,0.639866139210412,2.76569052864342,19.0134158676127,1.97316282162076,281.483878845968,-19.441312151892,19.4531444036722,-4.36768307891339,116.123687987742,-12.5499630373129,333.331255138406,-60.9028438085357,114.974261442268,-21.5090050653401,259.520866640371,70.1114590284584,82.0652159069641,-5.97532914710249,195.026186463785,-28.97850855057,166.288366282474,-2.54601478774569,58.8893737699697,-4.43922872724337,176.681233326875,-37.1947317788076
842.226447206379,130.966070941358,1.1087213019781,0.537039887350219,0.494720206035081,1.38902534705478,16.2854538883416,1.3421207185729,283.444076146247,-22.020477989648,17.5815678619616,-2.2683092460052,96.7278070321209,0.681313834707566,316.31371278719,-49.6464618897568,119.067549581042,-21.1589693482932,265.850811171252,67.5047618226355,82.4282469312789,-7.02311261165502,206.844514941892,-38.2741510398855,165.09613275898,-4.46249099101018,69.596125589606,-10.3873076742277,167.482240886206,-28.1434343151189
872.340545610117,125.906931915805,1.7198824952622,1.95417673301605,-2.310956771115,7.20403099217359,10.4230608087257,0.892202033200177,287.616640895052,-26.1877499439156,13.8707478812144,-2.06462573738116,118.499413958787,-18.3558356417481,312.604182879292,-43.161475571528,121.581575990038,-25.072050218708,274.901928108432,67.6106964585606,82.84586228167,-5.89891160019215,202.471380821765,-32.1789111093545,164.393593238796,-2.93584989495895,66.6967902745391,-6.18152150627518,172.124016887083,-29.1728268229927
887.41345025993,116.079175652835,1.62624096933752,3.69896669491371,-0.621055577684561,1.83192776375325,18.7292226107672,-3.29797137712639,287.737915895181,-26.3431934353329,15.8368769879795,0.430761827554763,104.746701591742,-10.1615775939779,317.163383004415,-51.955097380738,118.638031310347,-19.0677594641403,272.860436370372,66.801779155463,82.1266985431567,-5.99468650553635,193.705954773686,-26.1192311556764,170.458969504956,-7.02285918332113,65.7423372966782,-4.25417884339716,173.481258429922,-35.3098176452418
858.001563464972,132.762058526492,1.03147463015217,3.45493333801262,8.14018343890879,0.607484354853079,13.1131919818125,-2.42814446395476,277.687369806658,-20.1925728720029,17.7446424518488,-0.845250491803933,111.084254554647,-12.4467386755092,323.753075081019,-52.1102589382074,110.543424712103,-17.2139919061453,265.544629464236,66.3864825430576,76.7155625166171,-1.48141121617792,191.648978087945,-25.7739999978983,158.256886691305,0.350662164520137,61.11277549995,-3.22811726660963,181.423437546063,-36.0028271175561
873.341993872063,127.846388337575,4.88937104440942,0.299833842768228,-1.77561513270281,4.48296060874191,18.8240450555431,-1.86692169490434,289.083940856137,-26.9845885313891,15.9891744342949,-2.33461930767652,107.519801519609,-6.98924781500057,316.322793454295,-47.5943991064885,112.924045407976,-20.0575116778681,275.994788643175,65.2008027814989,83.9233184826074,-4.99441012284125,202.480766052852,-30.1567062527958,169.253936202175,-9.57424665174554,65.8884990248875,-6.84736697266497,185.546251658806,-42.0727865452652
869.243163280184,130.660523336319,4.62383994820454,3.2197317747424,7.40179323626037,-0.528890580641846,25.4955617302808,-6.47521699626946,288.142917899432,-24.3904711965057,12.909891906806,0.14388232742508,111.941371629023,-10.9872437912863,315.78847979458,-43.3916211979137,106.311123524782,-18.0864294761972,275.53379730533,62.6880784685723,77.7901440548485,-3.68841149695513,197.217204574681,-27.4489574262217,162.534190151136,-2.08201536265573,61.5060632134604,-5.90895281463704,177.643621350998,-41.3054155723987
856.942029948895,130.96748432808,0.896534868138713,6.53160263263613,8.42734184706396,-2.24372275559971,24.5962349624734,-5.41083964568636,288.286113127675,-25.9420952237649,15.5286036531729,-3.1565027838872,109.485606137102,-13.6651394074842,320.199180314183,-51.7194019636615,119.590801345071,-22.5127865537766,268.726152558473,66.6669184782183,84.3562168766203,-7.01112864785484,188.598613029432,-25.3008590889358,157.712836588975,2.0346998360885,66.7315790224812,-9.44061572111499,181.60982828221,-40.7509729054369
870.274868587235,131.980249677451,1.60094745918991,5.34809081066355,3.8869889130641,1.90686241412125,9.31110199674843,2.51180373416087,302.967442692421,-32.7471278335088,14.2138751666452,-0.576721275296151,114.343119138225,-12.511083146187,318.307578083287,-56.0442774487417,119.578377561428,-22.396897565095,273.890577099261,67.9162226064352,72.2116676966702,-0.267951375631733,194.92759403869,-29.5163825543557,167.487452667935,-5.36142800407832,63.3605827420596,-9.79633481659432,176.270669696145,-29.8149104825902
880.135532472436,122.823377806237,0.449955564044725,4.41909803107706,3.77682449389508,2.20400924006865,14.78074249514,-1.1686843921249,298.424125122658,-31.6407121381383,15.0746143523147,-1.60413746379692,108.941695271297,-4.38382258390357,330.839380653459,-58.9382931590787,113.796702654615,-21.762607665506,290.3078988825,61.3574622994261,82.3303037981342,-3.73736197874673,213.118291973323,-36.3819462040601,164.143116029896,-1.73510576398784,63.9442616211684,-5.08672433028196,193.195378587274,-40.468822648488
867.553168531747,117.177875912039,1.0554696515522,0.413046691270837,-3.00551663458164,7.2460632142857,28.1293568281074,-8.28382286507091,278.007394268742,-21.2635813172142,16.7944086462421,-1.26558759137291,115.781917251337,-15.2259306506624,326.820755630196,-53.7869776579823,106.021450831272,-16.9966400264764,253.729788495309,74.2403247079129,80.9831447623676,-5.35401807923435,196.367458493145,-23.9945419259223,154.411689846878,3.95378635119216,55.3817868421008,-2.78339255501786,181.788155024515,-41.3445988691672
859.655296298389,128.420149471049,2.23495193742149,3.42208060162151,1.80377942274763,2.78616050181243,20.3117086635178,-4.31042475955967,284.666938943748,-22.7630328403,10.2082309774367,0.529358869780308,111.677393776205,-11.5844933207808,325.689111868954,-59.4580253040772,118.271619354369,-22.8614425840093,276.172193883886,59.1402355747982,81.1833379587156,-5.40604805775358,195.83956318224,-32.3451155270759,164.457554550215,-5.59044137193191,55.5108126634251,-4.28920690057926,168.030257160796,-28.7502458801492
859.789433247489,139.625953029704,0.0516735025893578,2.03116005651017,7.17869098736074,-0.666082230774853,18.5183719728456,-3.31379659570034,291.699872478499,-28.9218218535423,11.6090475467172,0.599376746225196,101.398179329744,-6.63892007244177,328.779836183019,-55.7754108939878,117.3430052219,-22.8034093603909,273.127543248297,70.6854271941848,76.6437935622559,-2.74594440036131,208.395536648781,-32.9755200705021,165.449496770914,-5.29306148720258,66.1040331595421,-5.83379786248238,179.617370439006,-31.3544659872031
854.209019482008,128.30376975345,-2.30261452298431,6.52537605257024,2.04081966799335,2.83794819691194,20.6910033341791,-2.9260891748487,288.101166862783,-23.1052390310499,11.5084313254627,-1.09242417474994,105.44118977993,-9.33551385344334,321.725477827726,-53.0474471896798,112.235129211079,-19.6809379960348,262.317467644168,69.9977357627268,82.9665991153355,-4.41526245200622,191.3131620831,-26.2130778415253,161.114634745514,-2.70468740917108,62.5207070908212,-4.41471099863156,187.137618286268,-41.341633428143
860.145326245056,123.882813697334,0.206192255629519,4.84749803638204,-2.37286250224269,5.27935541840524,27.6466655744662,-6.47844854068297,281.818896386347,-26.0164437143132,12.7702381943906,0.299064274893012,105.321816874174,-7.08881058010645,327.5835530002,-53.864357347465,116.010388481134,-23.6097801794169,271.894538043347,62.7314521250699,72.2222614439561,0.344066406738068,187.046833156793,-27.5208274740428,164.016173864203,-4.16881161658345,65.4807459852952,-6.80907804037476,172.732246225789,-32.6897498704635
866.911865546813,126.956959505385,0.261020323204322,1.84280420092045,2.12445018867031,3.87297852285519,25.6148065928301,-7.17193090438179,298.704049770331,-35.8141034769237,15.2772487003045,-2.12497361921303,116.78678940748,-11.7660909574695,318.752085817495,-51.2470249060178,116.473510761361,-21.9481450747492,291.024617671541,62.1889021440705,82.4919059232438,-5.27494410109432,194.33994788532,-24.3712322547945,169.88609717173,-5.24481991980446,57.5969971620616,-0.523194604611642,173.404873429927,-32.677943389991
865.419332671157,122.358024590116,2.46133652642156,1.58706004315183,0.65024176196616,2.07209133305076,26.4688300629286,-8.56728390192184,281.774633290956,-28.5034894069249,14.0352521969524,-2.0255666817988,102.643442946399,-7.952250200494,321.674729597143,-56.5815028590124,111.63303526222,-19.4286560723686,265.681707636506,71.7121079336881,78.820330697922,-3.1579480940042,194.800356150109,-29.398862439496,154.308354877525,-1.62298906906942,61.6806021406997,-1.82650238020545,180.370614910699,-34.2768661969384
845.454113638982,128.868087233743,-0.700772910424796,4.52062567730747,2.35630718199636,3.5189517758913,15.5395410382003,-1.26825652826937,283.213456412755,-26.2172687554505,15.3554557117911,-2.04499924880115,102.555891341835,-6.99114718819268,312.927982944091,-50.3600211699241,112.506327305905,-18.6609641627672,266.118980814735,62.9979405097144,75.9757805977268,-2.39623772915412,193.524891223646,-31.8057044720439,165.022078191554,-6.6358350757899,61.6412948826049,0.491609007024958,180.001778806801,-33.8354666626729
850.253870407815,126.479188564037,-4.77457347034426,9.26712890778559,-0.167453358938665,4.51885523810178,15.40533326802,0.638134861670601,286.270204065135,-26.41369519074,6.71328041752208,1.60827951751669,117.194709722567,-17.3282496597817,310.411341723372,-48.4475503190871,112.004197723852,-15.3535234703496,273.821629110743,66.8920901789981,83.4281925420524,-6.78685484647285,185.98867320421,-26.1795480611576,164.590247297045,-2.65643533933751,62.5269544109,-9.31646790899989,188.406542461887,-43.3314850185388
865.958852182824,112.43112141271,4.66175172385884,1.19466752286551,3.92992576159813,0.0739853675427398,22.9664363448776,-4.48828602580516,291.854521101594,-27.0322241893748,13.2464092416341,1.64075849539917,111.016136777079,-14.0601923989772,307.406005331693,-48.8979125344208,111.526621132158,-19.2061102159788,271.495925033177,61.0038805919413,76.0768507397039,-3.02051071213552,190.040673640402,-28.3285614204236,165.546632933448,-5.11426551449627,50.7999733771386,0.158914005352433,183.79785429501,-42.1353214622088
843.026044414515,116.258498328449,5.05911910854905,-0.377878116740107,1.29047935652053,2.47499538138662,25.6899398279317,-5.5449671030563,290.143010189381,-33.3093136687187,7.20853120567547,0.451591399615967,106.178537196047,-10.1533916936085,311.50662768079,-52.7537161875011,107.534099438651,-18.2682866515748,272.868781402551,59.0105898575984,77.3616330395497,-6.09109041543901,180.245936166565,-22.4591140176118,156.972792844369,-0.265905912169199,58.9849287808299,-2.15410345915634,169.538490453305,-32.1876765584596
835.958173823644,114.749106230607,1.17723210812666,6.16356968000683,1.61463417396859,1.43580103732114,33.8041264835947,-10.4094756842738,286.830716346975,-25.7814373176296,13.5067803077914,-2.54863860120333,100.090022133401,-4.70767934632882,321.320379747802,-54.5459732932115,119.925839440973,-24.1100411913026,256.631833629948,75.8633829993815,83.9393616514113,-7.95179115206022,188.592420337613,-28.1716082544743,166.627808996567,-9.93551102486159,53.7499402852639,-3.35961092214782,181.339535951486,-35.2354412957822
823.705508720586,123.028834199505,1.37486731539695,3.2411124449919,7.2889279136992,-1.2885568242547,28.5189438146906,-9.02622470091672,298.71928293965,-35.9614469569401,10.5746249138885,1.75739281001213,97.0252640122777,-4.1665431250195,314.753810715694,-51.9609097462758,109.552271533639,-17.1319517471079,260.708112182368,70.8242286754412,81.3554398434463,-8.04937864077635,191.882740285084,-28.2798651029492,154.979624578796,-1.92738069935054,61.429357573474,-3.5825603556093,179.974117174755,-35.3779560829374
834.640865273462,114.09971927641,4.31966940288392,2.039083934744,-0.794279012569458,2.6484229404056,22.3362711439721,-4.23862487337217,279.542868497797,-29.5815380209304,6.9555223390738,1.55449439514017,91.866878087657,2.10867288415448,315.714828564312,-53.8090988390153,108.78023389921,-21.4942584732191,256.819334472711,66.3312905644757,75.5718937798225,-5.52062962861148,182.257644134536,-22.8534311485987,160.094374342326,-10.2038457393875,62.0338782121404,-4.09685267833563,169.908835813855,-37.9641174057372
843.359073442353,114.556501980129,-0.131973202015902,2.1193811633496,0.721270116907441,0.404814397874379,19.5546482316903,-1.19122395530382,275.929602427885,-23.8820237713323,16.1561431062969,-2.53351122150812,108.921763544586,-10.2019674949715,311.196451378728,-53.9412732365171,120.685814332259,-25.9563888436407,256.62889382233,69.8005993119632,75.8303702508829,-3.98100912052958,184.244654263928,-27.6513348391028,162.098415363798,-5.54126417452269,59.9000995346799,-6.08809669716744,168.78886188245,-31.688592217287
839.008338685349,123.5593219502,-2.32706736969671,4.34708250454855,3.30906789942547,1.89004703253086,23.8578103525578,-5.50500324383276,296.116939317495,-31.539348431325,13.1329778016497,-0.735112656945032,122.862050079033,-20.8834948193352,319.404284207984,-51.1617096211599,107.813089234049,-19.3739552210868,278.834554443311,55.574755722144,82.1681200709803,-9.04812965887794,188.122023730025,-25.0286281717499,156.463306873582,-5.25287346129102,63.5546107199972,-7.95393000425469,175.177732609591,-33.661850267919
843.500873938784,116.048040127942,-0.740789675266967,6.39181593798135,-0.191422942897508,5.63123999049515,25.6645343350594,-6.11337333879548,271.05391654253,-25.2908632504976,8.69143091317258,0.136636887046423,101.491013820257,-9.12736071096945,299.352938610735,-43.9700525907118,108.831850324103,-20.0875094430619,263.609016913274,63.5854684986128,71.60774654317,-2.1659588178277,194.157908808803,-36.2075639309867,154.435655806413,1.01686269636446,56.247001147669,-3.89660676696961,173.290137229381,-37.0369653362254
845.788961895178,106.716689892157,3.10669643023868,1.75887642370908,4.79065531069431,-1.18991933636225,8.66683489696551,0.835856742445694,281.965005764583,-32.5055387972035,14.0562007432155,-0.539273671677136,101.229859255083,-6.41974723896023,304.194932625865,-49.6465147864549,107.679137957737,-17.6513654546121,258.724751592476,67.9902545347849,78.9878571053194,-6.34166163026895,173.385147533533,-19.7697409950298,155.984453735299,-1.08849021945027,65.5637625791181,-10.716515707626,171.51936400138,-38.4157583456383
839.268157680153,116.131229845094,-0.58292762881491,4.90735701258974,3.0991788017908,-0.558032362326938,18.1955229004781,-4.05959441911002,285.821732197835,-36.2290911617053,3.41368927716574,3.88826660547308,96.9403373109269,-5.9999015105145,303.206959617822,-45.1988824247863,114.16533121761,-21.3866082652135,261.860102500407,68.4174733540271,84.5098164883808,-8.98915620063741,194.826225495343,-29.8098673213921,155.653103207088,-2.65526294790093,62.1160379347086,-2.51992984756204,173.621833684778,-35.3727482284556
836.664453330279,114.018290117451,3.33821242461794,1.06753989008748,5.98097594736306,-1.22744807373188,13.8176675454082,-2.37509109690926,264.118991400684,-21.1541985800276,14.6257063954463,-2.05140935113804,111.181485676925,-11.3289709124556,296.945936103596,-42.8190177124668,108.226531739493,-19.8562277082363,253.200688459588,63.2778605657365,76.5872026408609,-6.19249759426883,178.969629217816,-28.3369648228229,158.803026125314,-7.74208057563887,62.3848741558457,-7.65599163874119,183.537955715142,-43.6255847623603
841.698140576309,117.686380366408,7.91233111928061,1.79523895011499,-1.8405729950696,5.01006593034882,13.3410147722415,-1.43764744192008,265.177183183159,-16.5538938049997,14.5234328780556,-1.78828813064471,103.281235755499,-7.26802486608135,295.993575208625,-43.7806014303291,105.118555219848,-18.1208312068336,248.05115574627,62.8946515266867,74.3579385987573,-1.12970337438815,179.913513355943,-26.3362270754901,154.747130174143,-2.37696758659734,57.5520000236886,-6.05087433481295,179.196264979545,-37.3504486152833
845.848361034695,107.278037832668,5.25565614720995,-0.60371031587775,5.25388574550153,-0.63214146069388,27.1244072398289,-8.00335074246916,275.727712396256,-24.0485005869268,10.7411059084005,-0.881139667220631,104.149410044819,-7.28463497462532,305.046604699545,-48.4865744491476,109.953309895612,-22.6060720262628,254.535454303811,72.4380046870391,85.4540735515801,-11.5664929039429,179.795445669648,-25.4855286010666,144.822956254383,0.509740499593574,46.717630047518,-2.96380124859338,168.10812328219,-29.5350871636485
846.856541522512,113.058453460799,1.03015956353166,1.56038408086399,5.69911002776949,-0.531903403549871,15.4887194958176,-4.87713508835893,263.979677443128,-19.5221794788281,18.4883431279063,-4.5027508474831,97.9371360458034,-6.63627905482207,298.0685668946,-49.4260907006652,106.944083870668,-19.1571399931929,237.900721774265,72.2663164560238,80.428953321141,-8.15633749831533,178.414063112495,-28.0106001567417,157.533922208158,-7.08399294687282,45.001831264356,2.8983639336308,176.602729232456,-39.3208072454177
831.685712627291,113.664614847609,5.74500952988658,2.11018180727942,2.36150343245096,5.87665350851851,27.893043295246,-9.06923729719371,266.270293761139,-23.0440457311993,10.4288529521795,3.44963523932006,104.435993481546,-13.3466718370116,300.046693334398,-47.7927960801155,105.953959117981,-18.3447674403122,247.701510561982,61.0967601046338,76.4566641855557,-7.05450165147626,183.82597051539,-24.6271951133373,153.908890511903,-5.97028934796506,47.3649809127019,-1.06722118233275,186.609763108807,-43.3664324931464
829.05867552196,123.105192434191,0.00901057755952749,0.70368729937211,6.68880414694871,-1.09150302298338,20.1438356853555,-5.38820214005578,268.064220973754,-22.8066687989812,15.1743416344916,-1.95909327273461,97.2665464113318,-2.23904906658281,297.254224577034,-47.1554702125289,108.117900266924,-18.4731212889465,250.237293434512,67.8492932867966,81.0904687895875,-6.46376956601612,186.90008017311,-23.3516943396389,151.251001110377,-2.51091427855879,60.665349548448,-5.10771577006893,177.776322307948,-37.8353721246087
823.154143088374,121.397846427324,4.35299061582902,2.30401715349555,1.02282104409866,2.16607191904326,11.672810882593,-0.862086120543461,273.029136843185,-26.7837981185028,15.3332007968917,-2.68182252961792,106.597155083064,-5.97096074537176,293.739032235628,-43.3558521234327,105.802144320451,-18.9145130977555,243.984251055902,66.3722396980873,68.6016224324283,1.37183131605045,173.506652573212,-26.5651625166655,162.028497555012,-7.94209260954145,57.6703702106245,-3.63042384197678,170.954729501289,-38.9600078088023
848.716657919103,106.586028555505,2.65086689564876,-0.0697041403185061,4.49228931009564,1.37343548981841,32.3460394314382,-12.1034126453411,265.473900492971,-24.4704965388858,7.83245395509661,3.29357198563044,94.6668896851392,-0.875375733057393,294.727159140344,-46.8574398539773,109.676554577094,-20.0524060028138,232.288426419906,73.3656617169635,76.9318981800131,-6.856053338888,169.389263098956,-18.3434920567182,150.981542507401,-5.57508156007309,50.985037268931,-2.8671729068472,167.263267946485,-33.5275757105753
847.696667781875,116.033686219269,9.88633360265242,-1.17987292599878,3.58910689034317,0.449845392874181,19.3095386653227,-4.31563824739123,263.668153873071,-20.6400658504574,14.6627884515463,1.04525398036784,105.443310959339,-12.1994883291855,301.074305770167,-50.0291449611224,105.840402999465,-17.1127866507711,244.181248813704,67.0398939148211,65.0636856343221,4.49739195392336,181.508749055983,-24.5802379110498,156.467003274235,-4.48551164459491,63.0704326307755,-10.0405607638348,181.466443330807,-40.7530197702067
843.518046816343,118.017526655263,3.97415495580643,0.301268755334134,4.46581666515996,1.55887196379527,19.3714956578835,2.91669393387519,276.671808100343,-27.9379678077713,14.5755891917393,-3.19557060549457,108.212008943959,-11.8276466269688,300.414486950464,-50.4026599985789,110.987541441924,-20.3762022275357,232.532265152784,72.7159743818147,71.8332419832783,-3.36797693988273,173.42387892578,-19.9768508000144,157.217548098117,-7.18018726469394,53.9877924094763,-1.90064673959717,176.808947207467,-36.1814985372683
851.905933845009,113.907948282783,2.04404292801879,3.09579394953767,3.69130551451772,1.12881670439666,22.6897979792092,-4.69305085924036,265.630596103766,-27.3307537945981,11.0464086896218,0.542412977658004,106.786792363478,-10.1520940885236,302.692475348793,-50.3192582654096,109.052139254037,-21.6575158539703,244.727341979143,61.4345671442092,74.9956482013151,-4.71999267167399,177.513902804089,-21.8715803428612,157.798364989513,-11.2171490233867,66.9243124968968,-9.63206720905051,168.460755052178,-33.1243897252046
831.145008748764,122.53016068033,0.557964218118856,0.507582582031774,6.21404302814981,-0.551890237310081,16.3313207892107,-2.15067099419822,265.550223726327,-22.0546468026784,21.4646055206881,-5.05999700848477,119.233327114036,-18.2627914403665,299.813084015858,-43.7608131572822,103.726806560373,-13.5421135590065,246.486563537228,70.2882730585892,76.8365477328812,-4.99934581087935,180.527577054018,-26.9888477300196,148.704240375737,-2.80466328869888,60.8975243476525,-6.24678242487872,183.486902316044,-41.9455138188584
847.941219594023,122.85158526157,4.39442738483778,2.27559492181394,-0.635989942553064,4.65257766627925,21.8814092919344,-1.13295988288277,273.26290425196,-25.5043537788795,9.43064830195139,-0.276680336933773,113.370439023689,-13.481697748272,296.857413222949,-41.7401800106034,106.452747813963,-16.0378477026385,257.336589427162,58.4835582409194,76.4631947506113,-3.04870815314629,182.171549822914,-24.395593520382,155.988191250704,-6.90488418424089,70.4292077801621,-9.64809989050863,171.183597341681,-33.3945877539442
848.359060622343,113.817321345999,3.52157739998697,2.51471919157129,4.62965566543306,-0.136849464153983,23.8072047899757,-6.34307788196642,277.442313811691,-28.6993413404464,16.3152266276239,-0.805517735128761,100.147067634099,-6.00488797863643,300.099646375705,-47.1564040846482,107.113213136925,-21.0615260004811,229.605180580808,67.2648881117324,78.7124913892545,-2.62411751891958,179.299790446896,-26.0986506702554,158.732887523371,-10.9164044779756,61.7585364004411,-4.41561755577097,174.274414041565,-34.5930686536029
833.478572714157,125.427421491295,-0.856163802042585,3.70071018185146,0.127670685581714,3.12934244598681,15.3350550680716,-2.11280343733487,279.506452883879,-35.842610434609,20.0533490902693,-4.31710268699708,108.215650576243,-14.9330108220764,292.792358597324,-44.4312008245257,106.058047805481,-14.8891576204343,239.570131702725,62.2535579963425,76.6683425941765,-5.94482733476373,188.580722670405,-25.8901490816143,144.323533776614,0.110254795762584,56.6360504389544,0.682460856563446,180.198194035744,-37.4882738890462
854.599684779715,106.909804928857,6.95594481538999,1.39832159986032,10.8327752378731,-3.05546336004948,21.4249326137249,-2.54758500550567,280.571559437255,-33.8441538196319,4.77374761878499,2.23761682678076,106.945321750106,-6.51279525762927,306.789796109575,-51.4719798394006,111.143165368097,-20.462763517423,255.793316463396,60.3543767592556,84.6970617252092,-5.24730374579051,186.185882771734,-26.4850119431658,144.636168558439,0.295867990650854,54.2137089279985,-0.35181243493906,180.173796440258,-40.1674256946953
844.197543032093,112.938182567409,8.87606777044183,-0.91533787670269,0.0248387997972668,2.46811653675532,29.4877872854496,-6.0445081089649,275.569488643478,-34.2801262244267,14.7114586111581,-2.89529063259657,109.29609939156,-10.1466749035978,301.928133673319,-50.6716765181986,114.882040896432,-26.2316717479046,233.019537860639,64.9048855642391,73.1150940077392,-4.40581414142794,178.125668570957,-24.4140446887629,149.463998118654,-3.90284679945017,60.0566038620051,-7.68150821856264,173.700741948181,-32.3224377030755
850.727972154627,107.326420210744,-0.397290900539328,1.78114469742673,1.96416489629758,0.217901765309868,12.5517932335491,3.36352353658229,269.269399172627,-23.8998442326755,15.1573276651027,0.707757527583395,110.550677855002,-15.6431462680242,295.596389580408,-43.7963038424394,113.582214442892,-22.5297340595915,238.751214077072,69.9449925740728,71.8348078005134,-1.07819737607279,176.83944290955,-23.4731366794234,138.401899403871,2.65280377980678,53.8377542320166,-1.35903946797704,176.843366604671,-34.1138775078565
862.020825247488,113.820579137809,1.07659595523791,2.53686893266279,1.52124737809339,2.81430201269526,21.1764031251068,-5.11606263847616,273.871385331918,-26.2205903408978,17.0724463315928,-2.21552280906331,103.884163832791,-8.16521367053827,294.951202778136,-43.6841729309199,112.564862429354,-20.1930008570548,251.985845390479,57.1961894851201,75.393459917392,-5.3391916084458,182.51806263404,-21.643083435049,154.229455203284,-9.78185034828831,62.0523107961,-6.36694302393667,175.015050054721,-31.2451078964267
846.689090067124,116.269970623276,3.0395526892486,2.59276040484156,1.63901225547016,2.69592379301161,22.2652080855263,-5.86735052584509,268.538851937893,-26.5251013629622,13.8229558677793,0.00361801646858919,116.040080579123,-15.6553160532214,297.148638666681,-44.0295507422513,105.504485200882,-18.7265259052304,230.576078714648,69.2761953523977,66.0349254451121,1.01980566143114,174.74035520839,-21.7877418293841,145.668884306694,-6.24284147526928,51.3054764427179,1.41503793937393,169.395122758617,-32.8731512382848
852.721509810412,118.351585603978,-0.981415447327527,4.28823689882079,1.18788676524364,0.389847047183952,19.0019155094583,-5.40711866726017,277.855563752687,-33.3031910122402,11.612952421733,-0.399383092713737,95.0752204295249,-0.0180006918457223,294.102599492765,-49.7852257434649,109.199929351404,-20.4421939328353,237.054788665138,62.8208641774,77.3477693589836,-6.56777404279771,185.463030223596,-28.7826141134731,141.939756584384,-0.897836083855471,50.0508893906459,-2.47604647470786,173.030415452027,-34.0835562674513
861.653712905314,118.150599383307,4.15081950441546,3.1884450045954,13.1412634113515,-4.04789561064246,16.914169769124,2.34920785633951,276.460952841836,-25.3360299414643,12.6192757110574,-1.32064464259777,116.152648717299,-18.0742463404371,300.258396930518,-46.38036071613,112.484817169594,-16.7111293090811,230.789397285135,68.058170623241,76.7383909573678,1.45089570501028,181.140413273726,-26.5190146623785,150.236827174478,-6.66441243098769,65.3946533393356,-9.89608286174949,175.209283316682,-34.0051759672305
851.243323183903,123.49386925065,2.81650168288893,4.14099934345439,-0.812274138108902,4.99775607301999,29.2233495330754,-8.75764757777055,281.238911821066,-28.6060651025179,9.54410375656819,-0.927825805977801,114.747308218384,-12.6345069574334,305.657009305219,-51.622648176825,107.856868229652,-18.2103682415035,234.886630591861,68.4036774043571,80.1366921545022,-6.68495199835212,186.415694291161,-24.8819816320739,156.845852879621,-4.94861927592612,47.8401013601737,6.72553033513665,171.417231708752,-39.1786029146489
848.382714121635,120.888998880524,14.7670602518435,-4.78873673907147,7.32621251157039,-1.14430231954671,16.3702664698703,-0.400325302379399,270.98932443896,-21.4645282388879,16.2604330232453,-3.53067115398006,100.333580344727,-4.00281557441149,288.044965108047,-40.7799162562241,111.864596522064,-18.4603440591758,237.235871905977,61.9430363824539,69.511596349896,-4.33003153523525,191.791476866571,-26.676457423795,141.010663978611,1.37974923913128,60.1316825432139,-4.16117645714928,170.062448436796,-37.2232103840306
846.857603704049,120.650407780437,5.16967993144672,4.02506747893588,5.56804779418333,-0.855431408800597,18.7950821425739,-6.58981161242813,277.775130500418,-28.7310466397257,16.9514260625115,-1.26617812213087,100.184799132455,-6.88123412070769,290.385322067247,-40.168892590131,102.896837760238,-15.4138965812291,231.231594033494,71.2144607054915,73.0938181602875,-3.64218457065463,185.035163182304,-21.8308095738722,153.240217085738,-5.73870151354112,58.8051407075341,-7.81257207863774,179.342051748569,-35.4249425947513
845.771702106913,132.198342930941,0.353766254447183,0.434174436268761,3.76882154339523,1.18421412165503,14.9417959629899,0.781197063543885,275.247645571098,-28.7480442029504,20.4719302951633,-4.85052835096538,98.6183070321597,-2.05116463005338,312.77856154544,-50.8959577003386,110.448505902524,-24.4030466462756,248.67030448153,63.6876649194269,72.4008707883843,-4.21244603952225,189.402338928326,-30.8088476881146,153.284929108784,-6.55774741332775,56.344713442311,-2.78626022461972,181.561081311352,-40.7912892880601
862.206113629718,107.119387722452,0.150911003878968,0.915122236361679,1.90917392346606,2.39868790806437,16.0161614792281,1.41300517673213,254.406494073287,-21.7747447424402,17.4125473542803,-3.77323219732712,101.348874230151,-5.38687540446692,304.620390655811,-52.8546130945865,111.804412748773,-19.4048832539591,229.183224846699,62.4263123412224,69.8225957198682,3.51944215081743,188.146743588112,-29.0129495300865,153.067697190378,-6.85637594630766,55.8057481676381,-1.94949078219587,176.980235325527,-40.3743175770869
841.709118210709,125.628397287758,-0.181385736498215,6.10799512956795,1.78595645981215,-0.0207396429140615,16.3362014173944,-2.83690199928156,271.015803451757,-28.9425074618139,22.108423991112,-7.58749067453204,98.7255544059879,-5.30973729474992,306.028902164541,-55.5812339316864,111.706140729374,-17.9460950370406,231.049508045763,66.2429857981825,76.3026944086081,-4.42385116107355,189.011183022157,-30.4469514433557,151.137104567721,-3.67941090976676,58.9219328242438,-5.94159160224988,180.937649195253,-41.8158707499459
866.160399103549,112.685384857249,4.85108636400026,0.261139896469024,8.28509192220827,-1.08594601332933,25.4175138391161,-8.35557517126059,270.313578161689,-24.5836834757244,12.1694694333266,1.65556837394464,114.288971558595,-17.3748456522518,308.254039225008,-51.9270689473065,119.254080728261,-23.3264551955259,241.472253150972,68.1562490088381,77.4654835734588,-4.38976915981234,184.463257285641,-21.8581592013071,146.691481077107,-1.51941496382782,64.395243816109,-9.42480722140732,175.580036222627,-32.5904289557351
849.070728076098,121.491652521129,1.76083852265085,-0.505139307406758,-1.61762468000562,6.53406075819204,18.1271662535225,0.370728596014694,266.558582985503,-29.3771828068506,5.99722678801125,5.31653024047516,114.419330623215,-14.7291843023146,304.371051718807,-49.0974467870579,111.984078037324,-19.0455760757288,222.034317706159,70.1536757741817,81.2047733929573,-9.31514723100907,187.487400839699,-26.4444347732767,150.080074389122,-1.94789104254674,53.9276379360975,-2.87874625558127,173.70890092934,-34.8040531233104
849.826132585963,120.285652709885,0.923451813376936,3.20430889930793,3.46720777635501,0.494711866668175,12.6647540416211,2.01205933071772,275.845719890995,-30.0974474251662,13.4339851664747,-1.73545679455033,107.400423684098,-9.80322673109502,299.759837986829,-48.6517343005564,105.94804760149,-16.9417039891578,236.446698797162,62.2991148686238,68.8429588420603,-2.3201074010222,177.709300223964,-23.6411746908772,153.781392105265,-6.99435991144782,58.5256875827509,-5.3860776894992,174.573769275163,-33.4606754433096
858.320093991298,125.509906441298,4.86339106897393,-0.206641878261574,3.05234089712796,-0.38185349206867,16.0201565351365,-2.59321144096127,269.772067137281,-21.8064563129775,3.98794291214558,5.64585205422993,102.570258205023,-8.81984602897334,309.542574254842,-52.7531051488385,110.533225848235,-19.9156667029386,228.151965870705,72.9401069624057,65.9452329248059,-2.84323964739511,188.635406934315,-30.0467307685874,154.135159940408,-7.66080336919059,53.5697785411299,-2.6167607993677,173.656878225551,-34.0593740222423
868.035916389136,117.380769536277,2.26858364463308,2.24910260162295,-1.23061462199138,2.39936094936086,14.353877598642,0.336580626349533,254.60015674335,-21.8969980097427,20.3783581779354,-1.66032169755472,115.622348221006,-16.3470341776598,308.962670136169,-48.8258953158782,115.689384692921,-21.529411730146,224.461379366519,70.2883684907766,71.0160618000544,-2.28597402915276,184.586053819728,-28.1209642044469,147.368957877554,-2.48963885577077,54.022466647237,-0.157772071027986,153.096367040218,-22.4485658262572
860.726195161445,118.906303974413,4.19757997990337,-0.356093990368717,3.42980906512514,-0.193080364876487,13.7876702154618,2.01911063074587,269.811449590665,-26.3264769880658,8.04153107062576,0.407350340420009,108.431051787895,-15.6848523152133,294.854257128977,-47.6757520469267,113.764000878586,-19.3843053309573,235.447959920463,63.2368645340214,84.4578373370829,-10.4411861686773,182.676156232487,-21.3998784568279,148.663787720415,-4.33114913135639,66.4317116672106,-10.985385809971,167.397657932381,-32.3177461336807
863.33781356598,126.500243879183,9.46041033378847,-1.682801015612,8.9870616077681,-2.03593836460739,19.6458687203784,0.85510688612604,273.756343613258,-29.6219600962043,14.1138334663936,-0.74284856711325,108.257602129551,-10.222280645049,294.499458110323,-42.5064260381024,111.039961843871,-23.264864462392,233.724516794667,64.4857757542897,75.9324570605764,-3.69799108797664,182.867557439268,-22.3435664837084,147.702283644465,2.17779369270711,56.0130576609467,-2.11916687686632,170.119010976991,-31.4383086293335
850.228048224433,136.292997915697,7.33802315521505,-1.24404137007942,-0.553516658599043,5.58932787339555,18.0726064926161,1.74474293839103,266.702960771239,-18.9935271509441,19.7618831973023,-3.13894464959848,115.261234192757,-14.2583499741456,298.777965844006,-42.803867989053,118.007043072074,-22.7458253421029,251.598525950787,55.5099447244017,74.7286981644103,-2.99308314530666,184.172322374395,-24.5040518866788,152.188305716555,-3.48555056327738,65.5994540886742,-9.60574974606945,184.161684654046,-41.0663513619646
847.085038947493,127.781315441799,6.38599778906869,0.300301573624013,0.582299158602952,0.720983591670251,16.2351155194455,-4.24297913878691,272.836981903523,-30.8548689746305,10.4171686233698,0.391717952162054,118.091047577296,-16.7546760379843,304.024382486397,-48.9603952594546,106.618620976577,-14.4316138760314,227.37309305235,65.7500649172314,76.704342942901,-4.04354952549134,179.252411946753,-21.2362375205597,150.345045538872,-4.30326082725022,53.1990368436037,-4.32194398956867,189.820594919167,-45.4654027642429
842.032496148146,126.860643670046,1.19404896619908,0.679695850645605,1.10864199467104,1.05726153714469,8.54255537503257,0.734199712010683,265.82145286575,-27.7626804199751,8.02140400780882,3.66460489824121,106.601292079293,-9.14979899952799,294.777851758501,-42.6377262767678,111.234160423636,-19.2411882133739,240.764687437527,66.9632725022329,70.2591376964173,-1.44341934084636,187.701088470374,-30.7199018720062,149.943430548445,-1.10687450440747,61.9043618341799,-6.99465219822931,169.982849575841,-29.9156929866932
850.024365850183,126.708340996434,7.16262924853382,-1.01557390685186,3.43956947828099,-0.225198258126159,19.3926439763612,-4.60513025765034,268.16130657558,-19.0205622716367,17.8396448208889,-2.57898230367677,112.862416713464,-12.045639645951,308.447438267744,-48.407041264191,118.383151064174,-23.2577293456452,246.767655724095,60.5035091837902,73.8825094051213,-4.26047778652501,187.783377961682,-27.7471470063642,166.022108305837,-12.1792237103549,61.4690779922545,-7.99388869464958,192.022345292746,-43.0615156629728
853.242112533335,110.343488037814,0.887767477234722,2.61763333563298,-1.51776426021451,4.21790538890937,19.0410127115426,-4.28836489179739,269.809538994648,-23.619686959502,11.470448797617,5.35720309988123,110.132207211671,-12.7091240214234,294.208000041091,-48.8596832181493,106.758513321574,-16.6970649702724,238.629949345446,61.9272933434981,75.2599681315731,-4.12198787797228,179.770767152752,-28.446595979154,157.437583892814,-7.3776412706208,62.9701975022995,-3.41943713992431,172.500036152206,-36.2369345342653
859.148187690879,117.915311397677,5.27694704986356,2.11945350720594,6.52028982565222,-1.64169774009806,11.5959204319157,1.19855823110848,265.749835306302,-27.2992246358704,14.9143297743825,-1.13934143723968,96.1916618869448,-7.39164363165345,305.64727604555,-45.6139150990277,112.208826782971,-23.1518515851355,228.606525542649,72.9103201227561,80.3693113235219,-7.38673500984542,184.140895751979,-22.6278674446394,165.888179513678,-7.375244432198,59.1149686300042,-2.30465065206631,188.229691445116,-43.6914595412386
