860.731974737018,132.020532898645,4.10733091338833,2.53702669791873,9.20912769939418,0.183296791848419,19.1428669123756,-2.64248456326751,278.341522233896,-25.4681247212555,15.1997791766399,-1.98753453397548,116.395163963882,-13.4109685915956,311.096936400609,-44.3091496007971,103.021225371681,-19.9642324057411,231.267470226515,72.7403371285975,73.2054473915135,-1.97435375519624,180.238010738225,-26.2512414395603,157.659675575783,-2.11009065577583,60.5511291049731,-6.27998917600061,182.651164346531,-39.1462638219544
865.863082222501,129.549194828196,4.70662857679436,0.938366595648692,5.91233074327349,-0.718348079792076,13.9282794931526,-0.0775016950493452,282.26810389948,-30.6636495921475,13.6529648114656,-2.74451799570846,111.041501370965,-13.0194583155613,303.749241308949,-47.1409339817482,101.034865296908,-13.1623584515111,243.290701249685,68.4849935352372,77.899460494533,-4.97837929668213,176.723492968039,-21.6975088113615,150.338060076807,0.123574623690385,64.4557585640329,-10.5383824178586,172.012088116912,-33.0507957989412
860.96333235183,135.218379164726,6.38372688202877,2.78131910147463,1.25605519322395,0.818117274160854,24.4492782515222,-2.76150384097805,280.112913871655,-20.1377582595562,17.3694648514346,-4.5950066327389,110.271287812989,-12.7145265738823,310.706181025896,-48.6582520462906,109.223286330968,-21.4983748702803,236.921589931256,80.6905540781736,86.5902429330097,-7.11014583767628,182.800676213614,-27.9380974303386,159.786505990377,-3.49741808703226,54.6582454033765,-4.07943558582425,192.080411328216,-51.3658676254393
852.830343792365,135.768966375957,-2.17094606668077,4.63279788726121,1.77708533136248,3.68219805566156,23.8982901459051,-6.13800697836979,272.168367508106,-13.4751494642379,14.1563278245506,-1.78941467176119,110.74622056097,-13.3358187433367,307.1251912833,-48.7585305528018,109.833296688865,-20.0340773135461,229.014049061608,75.9839702933559,68.9610382581804,4.18958360741084,182.992738977737,-30.7544823848656,146.614556248866,2.77578958217005,67.1711642923528,-8.14084515672119,180.110125266647,-35.7462567306668
852.589795714802,132.61691864389,1.74812426797663,2.84558660098933,-0.25873537112303,2.58941489453546,20.8211546841661,-2.51376759161485,279.087647093613,-25.9820633144902,21.9082677000419,-7.10896833564271,109.122412505158,-7.80395976051546,320.100914227107,-49.4493085338629,106.051433343582,-18.5305569262258,239.566030332695,70.4670093656371,68.7880811281663,1.62001162861677,173.314682092237,-20.9018151452534,153.992208528779,-1.74254331480336,54.1466124387127,-3.74675423712069,173.412736319304,-28.3085872895612
856.185013543649,133.459233452258,1.94201819602166,1.69760618581158,0.771977936508861,2.17987538417855,29.7964188812819,-10.2000212994743,276.816888414216,-24.5635999082235,16.4710781112537,-0.88918538154102,105.602437337012,-6.61576904177526,314.97429261703,-49.5553156982503,113.718345962182,-23.7577429845812,247.818937256429,65.8417921544271,71.0095592582365,1.37810012845041,182.516247455432,-22.2282360320117,154.387992498545,-0.774724252266724,66.1589241294023,-6.83379619457101,175.498796159914,-36.5182167012448
868.664982100959,132.927495929594,-3.26737804510204,6.7979532344807,3.36261109924267,0.329368281443703,18.6296891006771,-3.87056715688435,274.84876147353,-20.9892955775346,11.4125054749303,0.12573344857291,103.317878072667,-9.07269006479399,310.849280451129,-47.9414295306419,105.581688968601,-18.5914294867253,242.367610938949,68.3599604646483,74.6472016305794,-3.70572955639942,180.752163161709,-26.4652727536925,170.011722738414,-5.24626697275965,63.4979454758243,-8.972927807958,169.734625773491,-29.77400197123
860.926953613157,137.94147796319,0.163954016860953,2.70064234586885,-0.655367232044149,2.61895551550736,19.2494091787414,0.378810239504456,273.996659616904,-16.117531764217,13.0158917716299,-2.49457895258016,111.236637039568,-10.5344603250273,312.161203319786,-48.939935416472,110.810988870503,-19.8746861774352,243.116660140817,65.1556769900411,78.8984963934796,-5.63145224083031,169.074270596919,-22.5724202801294,151.543702013988,-0.662413033978481,57.9731357416907,-2.57353659185525,170.184190475199,-31.1971740243225
853.870231273789,133.825013267842,8.83534744490204,0.00194744096349751,4.72460260729165,-0.596256802316177,17.1056994276,-5.0325644724732,272.638327693798,-21.5817361427756,16.523036736107,1.98466654715893,112.91399360627,-8.4775885775056,312.804945475059,-50.475233995769,107.960680680461,-16.9834270611211,240.475543206203,71.9810486528847,80.4972568279703,-2.63449004381824,181.238186553449,-22.874620010317,153.874128048716,-0.549536054058358,63.4331803074463,-9.71746926053377,176.649778753895,-35.9996446540396
858.237927500869,141.900132830182,-0.920805463982267,2.96899269884997,4.71212267673284,-0.414852230947788,19.8361007248437,-2.36524788051767,290.483166065938,-28.9221714080115,15.7984448742297,0.158142084449824,122.387099160763,-15.9091888480219,308.005402505305,-45.4785415419418,104.974779021191,-14.7292648966484,249.225046262569,77.9718715630827,69.2861318737072,-2.63973121573992,185.015836700238,-28.9355527604274,153.94242885231,0.359657728804609,66.1577615244829,-10.137238802388,182.835845635341,-38.0415188202951
849.598834574959,136.878787452867,1.5273238177736,2.8993391992309,0.350990904683847,3.1800958782994,21.6101869212461,-2.42756487836726,281.043871093857,-29.8455525306148,17.026044447232,1.96450212397101,118.079776970528,-16.9954596266281,311.865082684729,-44.545983932864,113.4433821284,-18.2000529819276,235.641888290096,73.2606334141551,70.4014277285898,-1.62045273090606,173.053872495245,-20.5394467808277,152.231678459899,0.0215525957585722,59.1146076673494,-3.10781440361505,173.454971089382,-35.1854356584329
871.719733605398,124.740590326464,-2.01388845052172,6.15175648475803,0.385134969494477,0.948545425797214,19.1553434562677,-3.23486555299712,274.956191319154,-22.3113253037878,13.573559595539,2.5259020979943,105.642261243335,-6.76840110095251,310.346174932622,-49.4743079496671,111.289325138752,-18.4565930556936,231.905656597956,73.5346148614886,73.7829129466226,-2.69499434618384,174.713524972662,-22.7457242417138,147.445152667809,1.0605005440105,61.2724845886808,-9.37376204715173,185.894757867765,-43.1831825841802
862.539912770896,142.659701403493,2.86264182093856,0.0839333421233934,0.133282494847319,1.74570754786119,20.4388960690159,1.59459938596466,278.020207757676,-19.9757632121441,20.3823795470094,0.578252764006964,114.643578327744,-13.0419211438252,313.14272063483,-50.1966690768075,111.804405765886,-19.0663802049369,270.603869951433,61.3323371857979,79.611571039095,-1.71502556401783,186.226417688415,-25.3590081760044,148.401981328903,2.68131606556751,50.2252050918426,2.17884536951862,176.89223694482,-33.010952753796
861.135418288005,146.864339947398,5.44281653170352,-0.198226618295852,-2.82243559665833,4.72371835793147,19.721650712924,-0.061486434729712,289.246130841515,-27.1873271242148,16.5441159004188,-2.14439955824526,113.470941534084,-9.21710132268753,311.47015400593,-46.8801341734614,110.496681940548,-18.2904700399863,247.829330939554,68.570851965573,74.6381751982673,-3.32475188361299,180.736348190494,-24.2593453549307,161.585846115407,-6.58734852766899,66.373360390594,-8.60135324655774,170.733766031268,-30.3774231880406
866.523578264902,134.683530469011,4.32047777869955,1.26874902298366,5.46316504506026,1.45567637737163,23.3010464470086,-6.76068835758978,271.349235852597,-20.9929378151315,19.9884815656735,-1.04095905572413,103.172000147479,-5.94542036539682,316.776395352446,-51.8159256225946,113.164933487521,-19.3965792626091,256.100134959405,66.7874850497749,75.577799016172,-2.26490477373908,177.41079687675,-27.0704329574984,153.335745412163,-3.05837039376859,56.1676909034868,-6.71196010316143,171.644041449463,-33.9786297759683
863.109694322224,138.098141128595,3.11840137681875,-0.405512078633232,3.79056584887597,-0.499604446328518,22.1135120784622,-4.90729357259265,289.17139567065,-26.3603843169028,16.0465192854879,-1.76675385569494,112.58909157237,-11.6385283885883,321.8922483945,-47.9618209351129,111.610236002824,-21.19111072731,250.751206222884,71.7988198004424,77.8151511299434,-3.53668600827209,180.909899806013,-19.7160479639727,156.852300680919,-2.59259331732027,64.4534523809716,-6.72085446632475,178.058084227133,-37.1310436728732
870.000481982948,139.334627444438,-0.359173584859346,3.40594013078129,8.40679013450248,-0.656727409980104,25.9248949824624,-6.60588947800806,293.544247468452,-26.1190701252972,16.6260481860352,-3.67124291722835,103.546301546159,-4.76844974525777,331.829879735143,-58.8310606454053,119.100569649301,-24.9235751355944,245.918297297459,69.444626891853,81.7631511962833,-4.70724271502673,174.768111011652,-22.140746168514,152.662606112995,3.71446392968027,54.7431350152449,1.14120662116572,166.050511001165,-29.7093845521389
862.278677266639,141.446349579191,6.30963444129356,2.7309143543079,2.14963587440501,2.58733186571481,20.0951615145307,1.22399238327773,281.405059161124,-21.817348124854,11.9627533290408,-0.430700465379703,107.902971202425,-7.17072956974744,309.550436754615,-47.3868327356353,110.429583945788,-18.8060320416234,252.387584459178,66.0089037303994,69.7025659147241,1.57977839656996,178.62105027559,-27.0129332056339,159.57742450984,-8.07804389679269,59.3262111067773,-2.24824231854104,188.413483837211,-38.8457996079893
864.610847877918,140.958758353471,11.3710127371778,-3.47610727178036,7.24200366486303,2.16195367679373,22.0712203998435,-1.47978384279857,279.12592307895,-20.3585826152061,14.4485299695439,-2.40365560312582,116.254434850599,-15.3627258746768,318.837381350617,-54.1354174792114,112.751302234592,-22.374840108116,248.574167971895,72.7377544609438,71.1612090015285,1.80255103462275,188.886381735257,-26.7432280877069,159.564051324973,-3.25777419966981,61.5793719019276,-3.70010996088197,188.452734219058,-42.5250027089934
878.795091588072,141.934024198579,-0.0101143889897099,5.62326652824456,4.96971405894242,0.507965568104712,26.2656257031693,-7.94682320084582,281.966714704208,-21.0508926918696,15.8542359453516,-1.3340342112862,103.129577044647,-2.59976610238581,307.743599464785,-36.7371868511024,109.417260397867,-19.6313618484958,240.766074563457,81.5914044793283,76.3181652129446,-2.74163246566393,191.734689521166,-26.9008071057537,151.713728302399,2.28410254081669,74.7539985994408,-7.11903265693562,189.974050280757,-41.6943865845215
857.716436046176,136.641998154581,10.3358435007175,-2.57039196270744,5.94535427817236,1.55149094424376,19.3444875482564,-0.712497389846081,284.711533248815,-24.8186874184376,12.636282423888,3.09930618114353,112.519263011972,-10.9112664096312,315.983918250426,-50.4676534081308,116.475857297973,-24.35608084994,238.153252350797,73.1461698673128,81.9491115971216,-4.63424508074119,185.489699157688,-30.2540431836314,158.978730363672,-3.98786036146991,55.8496387656434,-2.99208037015563,181.115090339585,-37.1442797604583
874.36880927349,125.779337336011,1.08597924278038,4.00833907514011,8.23434071523761,-0.909639786435164,14.6175065578322,1.04296496033505,275.059620598403,-21.4029513016439,21.0215702532341,-4.88484904932183,108.763398263148,-7.17669926206271,323.015582727949,-56.5104407803338,113.859728488669,-21.3100376781712,246.775515546313,70.7509959234949,78.3406917263216,-4.81688380325642,191.253239988715,-31.6845499368451,153.556448056717,-1.45808964498593,61.7540279771018,-0.538215601069296,175.078514874208,-31.7874441349872
886.684626530301,125.375320390097,2.10999141494427,4.07021310599243,4.96893490826658,-0.451939525743159,21.6135566925094,-2.9767240311277,296.774288853889,-30.2500650331836,19.4750585724892,-2.11587277480917,117.765774519411,-9.60519076379963,318.892068918282,-51.6910771451224,119.003540344369,-24.6677168875297,260.869514710415,69.8692704053531,73.5798910014768,0.589064481360292,190.070000376118,-30.1652431812316,159.030719478585,-5.92625400596829,55.8176327439915,-2.31084145431477,193.82590334109,-41.9849442928235
875.661330242997,124.515358529579,-1.03072590462855,4.63396568404987,7.76020045777261,-1.15359958058075,26.1131701190031,-5.7846795840148,272.120942373525,-17.8309468866708,13.3640997639102,1.32353101668629,109.805588314547,-11.9553667952908,316.24353383252,-49.2944032799824,110.910951342993,-18.8771766729903,234.743244722828,73.3489231839617,80.7679586087977,-4.899660803151,177.663316822419,-25.098592811222,149.229772634094,1.67511927735312,60.4264223403084,-1.66796765433094,185.835982511412,-39.2306085855987
857.676680099583,144.66529625645,-1.67359355702991,3.55944127287855,0.834700762431812,3.22507361918988,14.4831463201922,1.57543855912233,284.141567350882,-24.9573790163467,12.9156680715947,1.86297444992092,109.9212578952,-13.0402431733078,313.724326980156,-47.8262183407773,115.985946092354,-22.0978816102423,241.109716626898,69.9409249815836,74.8212912930043,-2.17299476464381,177.34915577527,-24.6121973269269,154.26508384342,-2.71548048811573,58.8512875296568,-3.29641160185831,171.648776190343,-28.6293047278451
860.358371897307,144.485246832204,4.63301321596714,1.25850318520699,4.03760722491617,1.97610454012296,13.8718365381921,-0.284713420302381,289.20197997983,-24.3329621244143,15.6197607176823,-1.0472765802847,116.752008628731,-13.7622847389522,316.845568021053,-49.6221155027775,110.215043360272,-18.0373718069667,253.378284750085,64.9514003030183,78.9997809038632,-3.18149112959611,191.374299035048,-32.5990091416421,151.882682191691,3.04638369020259,63.6928361630262,-5.76041124286834,183.119241158213,-40.7383593297377
868.174669059979,132.506567744693,1.9375786427652,3.38083013473756,7.62923644742536,-0.46706437262923,21.7973220799935,-6.020904256361,275.281285613465,-19.3330776002512,10.4747279556762,0.306680026376954,121.342078645219,-18.4734190031273,310.686792062934,-49.3550089902223,106.558287612138,-18.0121598638172,232.600662099492,69.0200068274047,77.6130468099812,-3.7254887471465,176.054175322271,-23.3125365324036,156.077809482262,-2.50106002601864,60.4357726307175,-8.20065908682562,190.264155956336,-45.8451155968428
870.020238477956,127.694212793985,5.42474187552024,0.987921024257844,5.12240860575048,1.53896807047766,20.5248005029789,2.31040400302779,294.587936988552,-35.4215540807006,16.4925082543786,-1.82723472454037,114.687266010671,-10.986885784252,313.05490919296,-49.7974402454585,105.474925681349,-17.3492488925719,230.868007008261,76.4091525897195,79.7757096393562,-2.1097906514238,189.538395842988,-28.1765421643996,155.41049992063,-3.50276907789864,55.6312637703567,-0.988827472879701,178.211254709009,-31.4927687104492
870.232500900493,137.662103053282,-0.426286729963105,5.36748953749499,6.81408964669189,-1.26181555652709,21.6673200143365,-1.36172729486853,294.925166870618,-30.0914360153519,13.4256566259786,-0.239446752608287,115.033505242005,-14.9499865722297,323.52003532904,-53.7590173903989,112.683573171553,-22.9645720887757,239.424810005404,77.7076405586647,82.7283225948407,-6.13180721614455,180.226598287,-22.0568871755834,162.428504773258,-6.80377335674207,66.8423514632554,-10.0429314653663,181.393829012092,-38.2485591917604
873.321907564159,138.767747874954,4.1933916434705,-0.780517866031116,2.929181219848,0.928416505541079,19.6314424761685,0.852367279935641,296.621192896122,-31.5668776180848,16.5802274891325,-1.72787332769509,108.504700264262,-10.9817741636329,302.27927959692,-41.5806533848835,108.95586369042,-19.8226715783051,246.021623777156,64.7370061681536,75.2308739606589,-5.8415984400094,180.408192265807,-26.161462792345,154.157612512693,-1.19801920559711,53.2177068799996,-0.899651740773931,178.577244327622,-38.0243914052001
854.102471769218,144.193660641722,6.41703895182342,-1.17272757895739,-2.53508066950911,6.47112777115853,17.2986840657147,-0.891264902015005,286.453356019493,-28.7086372534867,13.9313026455126,-3.19813926462787,108.938558186261,-10.0207093242065,303.351555343407,-43.187136196059,110.520607954866,-20.7075936784146,244.599556322527,67.262577289481,78.5267513843075,-5.27085568562118,177.945172755056,-20.6535815055023,151.492224016079,-1.92480623278018,54.9644736659665,-3.42605254950765,176.695105413723,-33.6777191810031
872.696058219248,138.324026478038,4.88397119323902,-0.138867371188085,11.6552782077511,-3.14979270380471,24.5749845835091,-7.86057541181081,289.892256522006,-31.1463284180864,10.5984927431808,0.441268870653455,116.902158932977,-12.0114779221688,303.055754095341,-45.503969584599,113.874236640634,-21.4424655903801,237.662699649568,71.831440976057,76.1531504036256,-1.34076488364888,177.403564522266,-22.5502732530491,148.296486524566,2.49331904614385,57.509636854317,0.375250213705602,199.166322791284,-40.3967631854677
868.781943276383,142.456088055633,1.51333724613305,2.28317989690538,1.55472994075326,2.728901230247,23.4170344503596,-6.22766884093275,281.324442706322,-21.5220318577113,7.62601077351626,1.16054538271043,111.334947658029,-8.20162922992284,316.966519942329,-51.659653779791,117.843435195711,-22.2481011323328,254.59174552486,70.0594798426303,80.0360990011797,-5.46474274482682,182.122652429974,-23.6833893978642,156.158978477094,-2.59005172793918,64.976168334336,-5.34250751575313,182.460635507741,-37.894981349911
859.875605063327,139.582605317785,4.38581034672691,2.82186477225049,4.87193297870857,-0.00980170208655949,18.750169958012,-2.94237822884002,282.09407959213,-28.9595401986162,10.3107931279601,3.90015504582998,106.985196928054,-9.33362184216283,303.968350415543,-48.9106366442949,117.003711917861,-23.7163094052487,240.254080169276,67.9781780004679,73.8531593948793,-4.13654790653951,185.640169134866,-27.5699997340155,158.905405797703,-2.98716114159068,65.4464100407995,-9.57806097888533,189.314812820698,-41.6013741709783
866.660364313609,137.610543557706,0.182074795035098,3.00844430792152,1.81450260674825,0.736184580601985,28.9756057265617,-3.53683131356251,284.923917985355,-30.6579746489595,16.0718542181064,-0.97674471544656,109.903450783457,-11.4723370515657,305.742569529056,-46.8745685682938,114.069306777091,-25.5633912656327,238.328179806555,68.5962442893258,77.3001568783369,-2.40703103641259,178.170397548636,-21.8090459221604,152.795393966227,-1.78747752828712,61.2544150426272,-5.12002255629592,169.430865581824,-32.337975371303
864.792555911597,148.190167849779,1.17495601458873,3.30136346925184,6.25167903969081,-0.583818908511749,20.1831662242011,-0.102184027603879,279.022065658188,-22.8074417996989,11.8926949364559,1.84305911012658,109.249891306392,-8.44240245735778,320.88371816447,-52.6361824508593,118.633356064225,-22.8541979988525,242.253454629218,71.0135745877544,76.355030286542,-0.830681456706179,179.098037908559,-22.8032294547659,154.38893896433,-0.289879547614913,61.8091022189562,-5.29818124058566,184.843777826463,-34.0133298449346
872.303846336093,137.941140762702,4.99855010521595,0.819697072658986,-1.87429719541783,4.20285464454988,24.7273617747596,-4.91712009424817,281.260404611138,-29.3838706945417,13.062314976674,-1.2597122165616,116.366555755372,-14.3762114521852,317.557783616022,-53.627298613426,108.030658327265,-18.6388139142064,243.816333328796,64.6308708519717,74.2972408141329,-1.8194010507477,185.174979867944,-27.4128791826666,151.205496728804,-3.06726458671949,54.0177194116258,-4.28599189944688,168.371049092812,-30.7164337948704
866.811222935196,140.915011802266,-1.44364249938604,4.32133727379705,5.00736225774299,2.61913431334673,19.3044355909106,1.18629427798558,268.034482073782,-20.129519735152,15.8569543110877,-1.56169472256086,104.657384709842,-7.14202738507313,309.964699296558,-51.1877358873003,109.33799892337,-20.3258739122897,231.199721826046,74.2368098041203,69.1593133079812,0.10555906554333,172.752764314465,-23.0599290275142,147.029229373927,-3.8935069379337,62.0721058535223,-2.2115810932111,169.006324299936,-33.6162049551077
882.101295436175,142.930015183354,3.78917857112167,1.62769002234488,0.297363789987158,1.82203677605363,20.8530896552659,-5.9147557854298,282.819089922245,-27.8438460406626,9.19733454266306,-1.26671990523756,104.781224327309,-11.9209258641947,303.985299515576,-44.8866133112152,101.366757758187,-16.4608004985481,231.946821959091,78.3455294761569,70.9606871246134,-3.02332445158328,171.691651077243,-20.0234033283017,157.57917034857,-6.65391479011877,53.6947634823066,-3.32753136014388,190.425035538597,-41.3967623954245
877.644413147218,139.310564745103,5.50580242084881,-1.0694263952643,9.99068112359775,-2.67768867952812,16.2140959452075,-2.2162192582157,283.442210572409,-28.2578188722974,20.6942689868635,-2.03681071241476,98.1955174770371,-5.94267055508352,311.281888336898,-51.4413627397208,107.431943663942,-18.9840176272236,236.582912915501,71.6821048719683,77.4849127228885,-8.21128715389217,183.471302485535,-33.0263604502232,148.046474098664,1.20914311125869,55.5308148855374,-0.659743681498986,189.807049818966,-46.7664457524418
876.820463496602,131.922270682263,0.526816147839198,4.36574777597497,3.60864247824074,1.49261773324615,25.4317578157624,-6.41727930593874,277.985599389444,-23.933605959261,12.0918591914421,-1.12982559638353,109.653254418243,-14.2128162782526,298.692016676746,-45.5101985798005,108.07287282259,-19.0155949873631,239.034852836413,68.2900604773485,79.9960960829762,-7.52260364749586,179.640596240537,-26.5179306166425,151.991584374225,-4.48187985675041,57.5554665944271,-2.79723229660047,189.254668984473,-45.7218045589224
870.536886070301,143.888783358621,9.34569533745286,-0.520244148118941,4.59628357219111,-0.698211001459619,17.3663147365071,-4.44292614963561,269.853223209296,-17.7415869130486,17.4469888655658,-2.07188379228361,103.303103724946,-6.67915019268734,320.494949071679,-54.5891847149906,114.768230806929,-23.4355629155434,235.285454676217,73.2397152240097,84.8082904118119,-7.26902690961414,183.872303318256,-24.3683359139578,158.754169599223,-4.02479514384112,60.2402812729541,-6.8186531405708,178.473202524902,-32.269587015074
875.07056103417,146.177160024804,6.16666002590749,-1.17769370644939,8.07964601206752,-1.12261905913818,19.0911410940483,-3.62948765528666,280.110980186501,-21.4286078362241,20.9508798644549,-2.92687483451161,110.856153020275,-11.5241919028869,318.828006599683,-57.6476723469972,108.269909584687,-18.8783406300672,243.856220285803,68.7316606545644,81.5059991690936,-5.11013326277078,180.792102503117,-25.5670512979475,156.24572858942,-4.21631299059552,53.0166116775072,-1.46843224346998,174.320545923373,-34.252487260818
867.014596154612,143.31141544896,11.2737618705271,-3.92835654230958,1.49300677377684,1.97848624518226,7.71131950180696,4.84273252396857,280.324693808071,-26.0809378771935,18.0362054980295,-4.870134955635,107.687757425043,-9.29157660171341,303.464163699433,-47.0074300775446,116.498043418818,-22.6771679099784,233.956207740829,71.9439034462618,72.9821196677828,-4.4008588184018,179.623149663073,-26.6585493705195,155.126344917246,-3.86107587386388,48.5662377695589,2.10054613861083,166.691174132043,-30.9044152510589
881.014842547968,136.093231100822,-0.457785790374066,1.99682176685372,3.55568822808222,0.93090630511163,19.4579004553464,-2.34732608133792,285.294480689037,-30.8077595569924,12.1356112261736,-1.38195358009837,111.667017129089,-12.7636836935981,307.789741669024,-46.3953648372922,109.299108329407,-23.8803097600708,238.324737371239,76.4823166304909,80.7137539457633,-4.35912579290869,180.663261062408,-21.2865063869998,151.040103735917,-0.166006974396807,55.6582103730702,-1.09655595145555,177.75376567086,-36.2066555561349
870.759945552752,147.314186473338,11.4699685982698,0.10923783184243,1.23599724369954,2.01122664497788,14.5682762408293,-3.24214696213754,285.259800801197,-27.2781818385547,18.7983663751103,-1.62814012310611,110.793436268252,-12.8993094643221,306.123124386297,-45.2983538476557,119.640255785974,-25.3517137836164,244.480355909086,68.0919067194675,80.8494220919208,-5.18622706069239,184.909469171453,-23.8985940481494,158.424897133121,-1.8135539339628,58.6898890990026,-1.45683076961984,185.026016849229,-39.1487805975313
894.489320383973,129.405808478776,6.12066160947243,-1.19341458292285,-1.34639616224015,6.46399602616128,20.0131334202078,0.951454155751443,269.8310256607,-13.8668028885533,10.9646717195949,1.77222834521616,114.699033568285,-14.5514391266985,304.468835229852,-41.8628998049704,111.637061741245,-19.4439718146988,236.199498642715,70.1970876035544,76.9830670547165,-4.22757479780097,182.85360371724,-21.9688200645577,150.795858106,3.4668482371768,56.7587058887212,-3.13342136609107,178.018948922034,-34.7432256022696
880.439781062451,139.012330855485,6.92645817185534,-0.128251188516079,1.00460064687841,2.82943297813857,17.93481498587,-1.46548786204937,278.57793990358,-26.3849155696622,21.6667588747476,-3.75891278857121,107.113460519971,-7.6286017529006,308.60919508915,-44.0588980485123,105.820161914181,-17.7858736942196,242.667776104626,69.2899713976401,75.044280454746,-1.39097839746133,178.565907321074,-25.6934982700367,153.976722249332,-2.21552186558316,63.2380559851782,-4.16644295339866,180.909705881718,-34.2968496280325
886.65998983778,139.537418639495,1.57574707228014,2.10998842658651,3.54228309008784,0.853593802109272,19.9836508001045,-0.397182518312714,289.058269526841,-25.4000262209898,13.9332269547705,-2.33397169085325,110.987591106646,-11.6608982386353,308.574305277764,-41.8660970559108,110.815413079049,-19.3951722086923,259.479964333971,66.2546906922955,73.7345179980041,1.14112157655641,194.867730411779,-30.6846529097862,154.823051919341,1.86148682108391,60.3248244926162,-7.31677379461492,187.110537159691,-37.7998446288348
877.334288512379,142.326480697119,7.84722600033758,0.405571344946305,1.79579612414719,1.87689689334096,18.973618632985,3.64572439910492,275.031874028027,-20.643299365629,13.2836494966908,1.36751208840879,108.858581394325,-5.46361215367015,304.389916944472,-47.1345334812728,117.061045599855,-25.6162745564607,241.390228051645,76.2479469028287,80.3801181241268,-4.70788998469035,182.040832933931,-24.3670031111273,156.392648026648,-0.499292859450025,56.7048538770323,-3.26776576154959,185.989568410888,-38.1129137375994
878.250973151234,132.545964228313,-0.239138092998826,2.23970791714065,-0.478660339360529,4.10982696719433,20.0755666746345,-2.03584209524326,287.157124082661,-24.3397738012856,17.0794471015232,-3.54416399071921,106.687414186036,-4.04483627515558,318.062385145857,-51.8819666049005,109.98510146747,-19.5518475874942,240.639947032917,72.6460542174238,73.7807747786189,2.56158830133471,189.570351774627,-30.4558818503572,158.230057311236,-5.26561086067847,62.8458331704802,-6.80564623009518,188.444402424031,-39.7808873904891
881.026402922825,135.531018177607,1.0654595590248,1.19713333538423,-0.528002415405035,2.95723762839801,19.2507603059918,-2.27204116899414,288.067538637648,-24.5039588810662,20.4702087975152,-6.23180309863923,113.19611175459,-8.42149026580703,315.421359509854,-50.3961283470118,113.600316117768,-19.6017788659488,255.424094107512,67.3488400796278,82.6232967014154,-8.0866947072175,189.117476546388,-25.3080195250403,162.304702027537,-5.64742050900432,59.0175171999096,-1.0536886325519,187.461119058576,-41.2348222676477
858.745331575774,159.34544164338,1.02351966075486,0.81236780527514,1.67757540065919,1.76615825890555,32.133381477038,-10.6651380378357,291.451503252491,-23.9272932563979,19.4291462898677,-2.46781798866979,112.683484634101,-8.72356776709343,327.668026845829,-50.7287147006111,117.21262515576,-24.1037298671012,257.786774405837,65.4798661291418,75.2304427352252,-3.91226063464247,193.644777108585,-29.6554790021929,171.192411025933,-9.69197073394384,60.7700364622869,0.682249508603839,173.34754080712,-36.5007080118975
876.385693209009,136.290346994119,1.39029504899961,1.50409388273856,0.83660339352368,3.94515778294573,22.5953506373284,-2.30201795885021,284.09821987007,-28.8843371809958,10.782446610629,2.55283816859938,114.10968871959,-9.29335491235927,318.27007368627,-48.8159690050744,105.930876536381,-17.4068589951294,249.357935730724,69.4290229112274,79.002609451745,-5.63866809893209,190.22936218793,-31.9210919931509,157.441293247994,-0.658298819044303,61.2299778228428,-4.58821647803792,183.508673368261,-41.932375734062
871.213746543027,142.339922714151,-1.11605473191614,3.61524982786813,8.8500539902401,-2.27194358111345,15.790374283534,-2.21375567166179,285.06192288051,-23.4730660374757,13.8182133498986,-0.521748891044551,121.320992385359,-16.2039777841635,313.445922665386,-53.939475294107,112.870884606177,-25.556415220169,251.619443421101,68.3671388737825,81.0645554958671,-1.85930939223671,187.996359395268,-25.7898104090216,163.710665391237,-7.8048166455395,62.6859986764988,-9.22182225140711,179.617772195613,-38.7343489634973
885.692645960668,136.834293757838,2.76011166137158,5.28403283008663,-1.7387101346551,4.49904334975601,30.4979290145571,-6.82009601943218,297.270738037312,-27.3129935918646,16.4873795268165,-0.683195553117506,103.341030297599,-7.50910102254535,317.862919860699,-51.7189741547986,117.546519417958,-24.4192560955457,265.416961358263,66.6988443621821,82.1004615506766,-2.68406907354069,186.14495089225,-24.6558988422344,167.099242036343,-6.50721152040947,67.6210515027987,-6.98153852153636,184.936333103828,-36.13345866681
861.334410552452,143.832547925634,2.79656738335919,2.60427476431456,-1.74715349890514,4.62838829014752,16.4721854073249,2.21011649744238,296.786375067756,-30.2561587873425,18.6361868818987,-2.87922250875399,110.01735296,-12.0403897849919,316.256969272106,-51.4752853377078,109.12641417307,-20.4057751612247,248.78152207975,73.1928127578864,79.3825455021151,-3.37425031855898,188.968684393488,-30.4481570005155,160.073469541353,-1.41328100410003,64.6455411621926,-11.5304953411905,177.329007393893,-35.386873422925
876.321044206879,135.058908941226,3.96192315674521,-0.527284874814238,1.52069736058782,1.98623505800791,17.7698363796665,-4.29038745907324,280.055610796757,-21.1568515948366,17.6688381265712,-3.47569941114492,109.708821107218,-13.0840588171646,310.021114655796,-45.5124903156145,107.398341168153,-17.9380920838179,243.329731476499,74.0951600810659,78.1151710529705,-4.68699356283412,187.155318523201,-25.963978876601,167.340627811988,-6.93039071863601,58.0335653551613,0.62288558035657,183.074690940898,-40.7374192796788
871.963937742994,146.134151099666,5.00186480610986,0.142811502586512,5.47032577388978,-1.04665739760665,13.8981161396209,0.243143249222529,298.528224744858,-29.9680225653143,15.0215167343133,0.00825310564378233,111.743408386508,-9.99043823437176,325.448208706506,-60.7637582120244,111.780335360169,-18.9641326478086,254.383176052652,72.2345132705867,74.8255476150228,-0.851366231656522,187.278550062724,-27.8754483246984,156.794584482926,-1.06941414363566,65.2573632666717,-7.10433960479256,182.329540425857,-36.9913906128353
868.393633954069,143.960723315139,0.0354193183367995,5.22822260562344,7.11865974196161,-0.506296561657355,19.1509977329929,-5.1677111434807,292.410598709672,-37.664881508575,15.9339012299978,-1.87244303976421,105.512141097286,-11.8585595664294,315.339011113543,-49.841102107162,115.157084684915,-24.4879654824038,248.442228233962,69.7805446467819,75.9612343456151,-2.99039543508441,188.2092315068,-26.4024933987284,150.063327255768,2.84719975050457,66.0472165694776,-11.228920370863,175.190353431557,-40.0722113024114
871.553353319028,138.753568005242,-0.553782565145333,4.34356881909533,1.02904938185318,0.512669152330283,29.1581365160531,-9.20606624110667,285.494912615001,-24.1021547439751,18.3212685195611,-1.89115208899505,114.399794307503,-10.6585649767648,313.932744578855,-51.7763586197196,105.072644673327,-21.4229068781398,240.75234054655,71.7478598303754,81.4042210488096,-2.60660173971208,180.011649722723,-27.1159931880011,157.401131564931,-1.14075855759166,57.0600410637631,-1.36804906219845,184.339565919993,-41.3473434041387
864.93151307822,140.644666523165,4.13923174375283,3.58837018980013,6.50585162592104,-0.69832226855611,16.847557688699,1.28075281646935,286.446313882069,-22.8565073045149,16.0812381666331,-0.184445290810313,112.92841298988,-11.3902975447053,310.604330347717,-50.4338510547,112.353893028353,-21.2996187229336,250.430256433951,78.618236494794,77.1971759460838,-0.50952519966668,181.484951057283,-27.2175131154688,169.247001969163,-11.3033340635877,69.2931389732826,-8.41335950954283,173.965571932426,-36.0880975392413
874.796666982806,140.893817119984,-1.30320516078209,6.82989582950996,-1.90106860723745,4.13872151384424,24.6855389622387,-6.87500500639275,295.792401561887,-31.8914321261315,14.5777196565249,0.28525650266998,105.173918082439,-1.93991169465769,315.094582882411,-54.2402584622692,114.452363507417,-23.5919560711011,251.508763727769,71.1632962378801,81.8698497943391,-4.41987872901808,187.054396355482,-29.5947866400652,163.939424883261,-5.33754706404122,68.049962712235,-8.18276878240983,175.713903440175,-35.435992466282
861.074108200691,149.631253281037,6.35046849694043,0.216689883415722,5.05544003590963,-0.24961084829056,21.6549335830648,-6.81604698944206,288.603678874883,-32.2748025819097,10.848334038716,-0.00974161945151301,104.628475121032,-6.83804941994106,332.331968982652,-64.8675977546621,109.914641458381,-18.5875818431625,248.066455074634,70.8704783854028,69.0949778769798,3.14539973845498,186.567991860227,-32.4632164392355,154.909671472694,0.137270712784209,59.6119881611787,-1.57744300889121,167.005446591692,-28.5364474282726
869.109162951669,139.107590446555,3.6023304839261,0.62933200558227,-2.43696673522909,5.58605240575263,17.9684589859723,-0.623542827601625,291.108264441847,-26.7080208717777,16.2089152866888,-2.84311396890657,105.278470751225,-8.70588418277321,310.176723430308,-46.3080427498656,112.850710403526,-20.873797298791,260.669270649528,64.8387633282423,77.220877120956,-2.69949806448525,182.187687370096,-26.1336672589435,150.144452441746,1.97446334582711,57.5576803414273,2.9905201088621,181.810940997266,-34.7987267060144
877.90781622516,137.209815449615,0.610107009739366,2.54100254931571,7.18180698727291,-0.138659650644341,22.3132477061276,-6.33547064722687,289.228134348686,-23.9315860688494,20.6443744701245,-3.94506595761997,104.189408684751,-8.23230277092488,315.039318817081,-49.2058901988573,114.97676031529,-25.4263731634011,247.845925539004,70.9567553540461,79.5475629096453,-3.67688941200133,181.118815276217,-23.0682188372116,164.934647160675,-7.50251522822854,65.8160574146346,-12.2901806669447,180.9391831879,-39.6227353332048
867.538547359961,138.685986274385,4.65747970227892,2.40262600336832,7.97889675626444,-1.58773841040452,12.1809412745646,5.59435374956786,277.214517693039,-23.2109920731557,10.0890084661449,0.739469157569305,105.252725317473,-10.1079128030574,313.250726983571,-48.0328633820273,110.848387863307,-21.2511838690898,250.445832837401,65.6699283281871,78.0130900881107,-4.79427890912759,178.775715455155,-26.1994445328334,161.599923552498,-4.99606106003264,50.3388645675899,2.72678352284881,177.796542055976,-36.8795207722661
869.407803874907,140.227920938672,4.09758149915385,0.351617853380599,0.268659652838576,3.40796635964718,17.1707514684121,0.0490521952988006,286.905134372141,-31.8847867739296,18.4168682910676,-6.07438517337739,116.015449482482,-13.5108034747672,311.068965390087,-49.8477174663907,115.241459813687,-19.7645434250501,247.120007746946,70.8857658038298,82.4030924019902,-7.06586848303631,184.741382397056,-24.5110714241436,162.068356434597,-8.38919498586075,65.3787817410666,-7.32425616772768,177.414484357027,-34.7419844620582
893.634557479672,137.905094302477,9.72164837304599,-1.81556367830756,-1.41607515776112,4.53585530947555,19.424979231583,-3.91281791670498,289.497115689274,-26.1200350810433,13.0267314875158,2.09976531075679,111.464704927276,-8.36397410446751,315.802519074514,-50.1735016863375,117.739483993692,-23.1973615799029,262.534497834179,66.4848158689268,83.1921714241388,-6.58917001527969,180.289330976116,-19.7821744808088,153.633958185687,1.06878034448705,64.0758510440921,-4.03845264969744,183.955600479113,-37.8305080794437
867.328138456897,139.413052845019,-1.32721620356384,4.49432701605498,0.611565418935909,2.26205576599905,20.5547923180975,-2.74890126295836,278.151266831024,-25.1309925235764,5.57601129425133,2.57509296804385,110.277605478325,-12.1383332022098,313.754960897714,-51.1275650751714,116.814435362788,-24.5958207298724,234.359321731045,78.0671848692166,79.6093118921674,-3.90681124052213,182.080870478413,-25.8501237647308,159.789810444706,-2.70481594984856,56.4348037431184,-1.87613774888549,178.349309519466,-31.8625716107149
884.740348798733,132.698935864184,3.78234830383429,0.410415879110544,4.51122127739394,0.54142501168274,27.7387693092964,-7.15347960382277,282.341053784969,-25.5382848294317,17.8452950884541,-5.36097847718903,112.048495246391,-11.3532832165108,317.829147642026,-52.8990825852585,108.29606233185,-20.6184547495635,250.803837003327,63.3863386057868,80.6266228461761,-7.21746040813798,180.827948755423,-26.1012177014806,149.289715357537,2.08881797275355,57.2741125831582,-4.67063289826745,180.134714883634,-30.8922914608582
885.703508575258,141.694708842606,2.21342656276457,0.12995961650806,-1.54918003769014,5.26750649238855,27.123877209783,-8.97737534666127,284.76210225775,-20.0892866156091,17.0377273136122,-5.36748222632968,115.861399726356,-11.9021968884276,318.569938944028,-49.429314672618,119.779358136796,-25.8624700792989,256.586992035544,66.6978126039049,79.0124811291954,-3.99451411096082,193.418680955219,-30.1828317550332,161.978795715289,-6.70568586077257,47.0734720306404,-0.778914986425573,179.402680298819,-31.8350225470933
872.824749960597,139.495856639838,1.00238390228362,2.69015165196304,5.84332490688788,0.110052676184744,17.2815496348077,0.965504723880295,293.229269509516,-36.6806091971598,15.2726637656207,-1.54814544117286,120.048932533862,-14.8783358132866,326.19802099505,-58.9277323605606,112.216609721794,-22.2733847003208,244.285785237206,68.1885547129076,73.1903271173761,-1.21505369928401,192.382847364195,-36.6715240374969,158.244997541666,-5.25426389242026,53.5372712698365,-0.879451080949522,170.994464866726,-32.9244057829664
869.386663026865,137.111594250228,-0.349642270656985,3.29630190351859,0.946940297087451,2.72889329878391,13.6860664467998,3.33879974543316,286.777974881553,-27.5368600529845,6.73962122371569,3.36207227072123,115.961623422072,-12.5791832824329,318.788320802821,-52.3115041536324,108.351506546328,-19.6262337238652,240.109506927514,67.6177060890548,80.3114720324192,-5.55831419354895,178.846655271589,-22.2584994760836,160.14605097782,-1.43211095762279,59.6180090494978,-2.82316256138162,180.353283640666,-39.905417637927
876.743546324913,145.363767863126,0.661668830109274,1.78060044903059,10.2290809167946,-2.00685595558885,21.9569892781734,-3.6328558182904,292.22265259123,-31.0356385325962,9.26035799920058,1.16398401637456,100.497739107037,-4.79856350831502,318.221654971741,-50.1453595522714,106.296719889492,-17.2886187874958,259.597534820185,68.5979307124084,77.3143913953328,-4.4517789634696,192.421661913945,-29.9290517331689,157.487862786571,-2.46336313213518,59.505377620469,-4.70854773920795,192.117494678798,-48.4457285616294
870.376608247101,140.327278376799,4.13051373031325,1.38351420369593,5.9284079367957,0.599147707305848,15.6396003211786,-2.312588230998,293.905979799117,-28.21015976526,25.8953345955136,-5.85588323398836,106.168961028666,-8.83592907917961,310.970859296436,-44.7341644818377,122.555940310636,-26.234837565766,248.810042452474,64.7099803180163,84.7351064962853,-9.41397195228504,184.642503445293,-27.2643280538196,154.767925320558,-3.0975042947994,60.2805882178202,-4.7071392989293,178.78008527274,-34.08913306017
873.231148185537,136.4118354804,5.91788940408637,1.97540158572883,3.96556399168376,0.593071073512791,13.1701135080775,2.92600375344909,302.336879825837,-36.3262498536796,23.5894733917067,-5.4756267526236,111.820853929653,-13.1863782091686,320.034184006277,-52.9027267314992,105.672295706336,-15.8848517024803,253.68392530752,65.8042068690887,78.0784267984773,-3.7325023192088,178.529132726951,-24.6289197563772,158.347134420579,-2.65470974352881,64.5962481280564,-6.64615525027421,183.302700706338,-35.5280760235582
863.078813918507,145.242160858125,2.40097486614564,2.99030408594475,1.49221541318011,2.21800102079901,18.4440964854591,-2.32331877261214,286.922186686175,-25.3715552548724,17.5739003823779,-4.15823451910988,113.301987064415,-9.31189793169263,314.900190041595,-47.7789265113295,114.240664110339,-20.550305533084,249.672475475963,73.6386795718681,84.8999988152429,-5.79512082514077,192.520536758895,-30.0879204106644,158.599395550334,1.02144632450087,66.9013907129782,-10.2728398171103,173.090155384265,-29.8284355527571
885.844155134455,125.917161463672,4.05002116773062,-0.408722754626634,12.6729366806536,-4.21464782371171,26.9654249598913,-4.80401770924928,288.157268980863,-32.0330172279618,16.9045914957085,-4.05461967588555,113.238381146162,-14.0014048082385,314.034742871541,-49.6639142555201,107.97556183748,-16.9987639701946,248.392085212498,64.8685804335285,75.5865138868869,-1.31461587418026,190.99016338176,-32.8808441033182,158.898147975522,-3.87308951845993,59.7289920135923,-2.65009261168531,172.961622629837,-37.9975884420627
871.264274341078,137.501574319379,1.73493273305758,1.91923131145757,-0.756564126027234,2.74189228694864,27.8858663951534,-6.53728079062187,288.68163699794,-33.6375772168934,11.5802091717151,1.55334048692122,107.238831998549,-7.35401881012317,311.619238877969,-47.7571445235567,118.965225357542,-24.7429507626608,246.474332959001,68.8862329864426,87.8292854688731,-10.0382291816133,174.463016229468,-18.8108929844675,159.029177497312,-0.955272990125588,59.8095654140797,-0.124548936343342,194.197621494548,-44.7969860523151
872.118356902604,141.326600802685,5.16723342360782,0.4724479534644,1.72982258127843,3.79717730349132,19.779182659954,-0.987128024294146,289.492917932735,-24.5644448920768,2.17080623790972,5.40688422591485,108.047651649979,-6.34202399360296,315.21150946857,-47.3642971062456,111.260622885152,-18.7992157088593,246.892117799367,71.60248716136,82.7785855614254,-7.9435421739486,177.720818070649,-19.4017850165246,166.522309256085,-6.36470671343183,59.6700588528995,-5.36681881147416,187.343117834589,-39.0504849427457
857.334721558663,141.661171217463,0.587261665774441,5.05152190178098,-1.43058120549371,4.66740429015313,26.2065908904327,-6.89851620321141,276.867689317913,-21.9382094455379,11.2024045732022,0.193832848373626,114.900108761725,-14.9063459782708,315.302898750398,-54.1726259437414,113.223746361404,-20.492910305042,246.135136225006,67.7107437465149,82.0275013826879,-4.81082526787945,180.28704532712,-22.4504239028642,161.330043559848,-6.14862230025591,57.8461176058366,0.800159006138476,178.295369702945,-34.3369700050784
884.086344826564,130.592986021655,6.80137891085023,3.10556176137131,1.40634661095784,0.0268133307351135,24.94829522636,-7.87498491676534,284.777327492563,-26.796374990145,9.25703536356593,2.31117083219232,109.743684688386,-9.07115769652819,305.650010025027,-44.7413734292719,116.494773670109,-22.9473438563551,245.191151451294,66.5882340944025,67.234851934085,2.62108436989624,179.354257563065,-23.7550281643911,152.363055415952,-0.436908849451082,63.818301060674,-7.77612848163314,181.148905029885,-39.906407260492
868.947939095277,139.942103641215,-0.714968778406649,5.28539039037537,0.999063533866051,3.78162189146608,24.504478645101,-4.97980103734426,287.252752516784,-23.7455887356594,17.6664032412556,-0.94062227824241,113.326880779528,-9.2018883413667,314.621810086573,-46.4839488108993,119.466446599807,-24.7144224825863,252.622570716944,72.7129410015732,87.8902141426917,-6.15702584681981,193.094392261298,-31.5996265584538,170.072153026007,-9.18694171822269,60.8615971332402,-5.63114629798434,174.063902260552,-29.2411555551474
862.388307884745,135.737959340767,-4.15928932277869,7.56458664500694,1.93156814662919,3.23112147310258,18.9672688123774,-4.82374281817104,277.387994988544,-17.9520159768596,10.876520554994,-1.60631999021882,119.462770697625,-16.9918081184758,319.02116605855,-52.7473773089524,104.563680717603,-17.6881367914725,237.69218955333,76.8387304926336,73.386316074653,-2.35908559203165,187.428390463275,-26.8821421318787,160.370849375853,-5.41662241206413,51.5595589215343,-2.63096343686546,177.630278282747,-38.6202595539433
878.254420441561,128.253041475207,6.79841144377201,-1.11484692897493,8.47931424101139,-2.99168419921089,25.7799306380095,-5.9891870402688,287.716719413871,-26.954253910984,10.1717326616323,-0.342157626229183,111.157462968659,-11.264725145926,319.096676618664,-52.4198338647972,112.379315561356,-22.3200580107487,236.207275782487,75.8635959494911,77.3968760165567,-4.35380585272106,178.500840624146,-28.2922142133799,153.392008264872,0.989423942158709,58.863200192898,-2.82315819243155,169.922715229209,-30.0559461710335
878.44064012259,135.792252698363,1.05378470748896,1.1566792074112,-3.63399548158852,7.14451873186416,27.0623559609637,-2.64606085398102,296.093850677666,-30.337396663829,17.4277615176231,-0.872704826912016,117.897827838007,-12.5194206474026,309.846557645976,-45.031576985142,109.112487879912,-17.383799004217,248.254561393726,71.8260665079276,86.8075671586915,-8.53180869852784,197.350259337997,-31.7332713757825,166.163587175557,-4.40387781196864,55.0581193036555,-0.454115769766121,178.560401737415,-36.1077492685892
868.725086352077,139.252934960904,3.48559609231449,3.26988999630637,8.3144420611626,0.33796825356552,23.3590459356873,-8.15882826307245,282.206623659581,-25.0947053886497,14.1887237475532,-1.09164057763628,108.271347832811,-7.52412968341284,315.794846604766,-51.2284224460649,110.166735994365,-21.939344627056,245.278076159092,68.9701058819542,69.9846342622675,0.106886253746011,171.965828558287,-20.1792410466864,157.826889047134,-4.66102195319923,60.5834097861323,-2.88948650014896,177.265984025568,-39.4022409378831
846.65506511476,144.622776589278,5.48689831452806,1.34919233052995,1.79037956484154,2.90853799179926,24.431327948863,-7.97650477211891,277.606042845588,-23.1005350422026,10.3709520356733,0.891332202446412,107.899524938915,-8.78466209013266,321.358473790311,-54.9051075180211,110.134238650591,-21.1598019068636,244.900266869522,65.5117208479601,74.3280421011357,0.543136874470374,181.634334542114,-21.4608804682918,155.701283070395,-0.961602990627786,60.264517395428,-6.02061007156287,177.632427184639,-38.3694631075737
872.639310332164,136.821778362308,2.25555303027509,0.608498366184921,2.72125558536096,2.93435875658197,25.2492576332871,-2.97770540336349,283.868232492064,-22.7999629155062,9.94433263385984,-1.83954649976359,112.270562390877,-8.49217497835047,318.788097725993,-53.7416484596337,104.494657028125,-19.7171974825568,255.512603349537,69.6723515399768,84.9261651719951,-5.37554967012203,179.222817192334,-23.0611687170964,162.246923623162,-2.026854060173,64.8807258348625,-3.19908532033852,186.237407786449,-39.5234233278208
879.12717694856,133.122158961276,2.12110559602857,2.57059981217161,3.45004381376022,-0.843758561264504,19.1154768995309,-0.439697333208974,285.242031785982,-30.2982484719249,12.5143330716107,2.51493836637316,124.537540930112,-15.9197504645302,319.566314674371,-50.2104767510034,114.030154408241,-20.1537673361942,250.679579621917,67.5836624285215,69.5139410231785,-3.22377987091329,178.243495118513,-21.810830092145,153.808610614267,0.263473456791331,59.7641249638043,-4.65956962445399,167.385698786865,-24.4517380287877
863.901310556811,140.746398641342,6.40560043653642,-1.10757219772894,7.15511036688409,-1.39826595478104,16.2566363197447,-2.22101649062772,281.891299609001,-26.737188492863,23.2506323717974,-6.10221559233893,106.947889110437,-6.33505608060776,323.316762637707,-58.1708166016893,107.209298379448,-16.3930209517575,245.033379948925,69.5206650774447,79.5360027008508,-5.48768440183179,173.863065589031,-24.9759001325394,152.040930857195,-2.26400224923107,54.1534557218093,0.894097439938749,183.316077876819,-42.3161377494794
880.679625020979,137.415350477675,3.46940550944147,2.45136572885686,3.9598927961548,2.27351423741849,28.6048802747223,-9.67643041326293,292.421270504004,-27.9499224615518,10.6497098179077,2.43484063019469,111.711297260488,-12.9299451051126,318.73513521236,-55.1980867872267,104.961986825036,-12.5170199395223,248.5321542786,74.8770106345174,85.0884784215759,-7.56770201861215,193.080652530443,-32.6307367301061,154.212589310216,0.923269101202345,63.909409397843,-6.62011685397885,180.719478101098,-37.840636861828
884.814090448278,132.095325235904,7.86465994037474,-0.491711452933616,0.370762755003937,2.18651605830392,23.7303940622281,-7.4011365531896,288.649451931062,-34.2719482312956,14.6696065845527,-1.3174640721577,107.330544904557,-8.65175204679794,313.340909620821,-47.1513968941084,110.708609771686,-18.792347207556,253.233261510114,69.7751213719052,76.4919815883,-4.94650189361205,189.485197792129,-28.5342488591012,154.742881582831,-2.23708108244237,68.4231749199569,-7.09730532212131,172.182484820796,-34.7586549876957
858.546044156658,137.955096058702,8.85184005781035,0.538825945864963,-0.366973854295489,2.17314995670473,24.329104716454,-4.78734968474899,287.541342608842,-32.2368314778709,11.9718683059874,4.94567393119751,106.382037763083,-6.00605334197595,317.790392368977,-53.19775752007,109.99365293012,-16.9512016565474,246.390768942033,69.5253202595448,84.4809652707627,-3.97047540607801,184.759663640585,-24.3860995188216,150.458399918412,3.25426364646069,59.6343923337378,-1.83263065185604,175.349213763447,-42.312763163946
869.490430204373,142.251053162974,1.44505449564422,2.57182687527334,0.920786818758775,4.75700602868029,23.7170165034298,-5.65037961437206,280.796093111149,-25.0036838043137,7.63586968238239,7.44503849201644,105.107310521963,-5.49152606847676,317.383151700115,-49.6979780931444,109.721499223114,-19.3652550481675,266.922569348088,60.2865670095227,73.3970914044817,1.3862721648066,179.054915126223,-22.9279340349555,161.023881922155,-4.28859623095602,50.5527171807418,-2.40891236876202,181.748801467891,-34.6543187973918
870.9625363356,144.353492086713,5.85372396505823,-1.51452948401532,5.05142105478761,1.53199314183635,20.5303603175455,-5.19178244869478,285.254549456949,-20.1527370230229,21.1212685177302,-2.54345424572936,108.298695180354,-7.38844828935681,323.927245792251,-53.9670770093292,117.969090194774,-22.0324971125286,259.975711681821,64.837175063981,71.6605912138728,2.47069999655854,192.321068591637,-30.1017041750742,153.357621948694,-0.194251676367143,69.6874328942223,-3.68644606953964,186.509428836106,-43.0987763689039
869.552800374786,140.798746071123,0.599075762538989,1.69869913453349,4.35063701418537,2.26632425282083,22.7392467078793,-2.04425012082335,292.64633037462,-30.911400003133,20.8687464862248,-5.26521115059768,113.143552679166,-8.78464518500232,328.089307100009,-60.6596847764165,107.00685756391,-18.8054457869752,245.406003333462,69.9878792537515,78.7935979448254,-4.27697163309958,177.52639994547,-20.0835624054616,165.951372238605,-5.97764196604165,65.4415031746751,-6.70006700189414,176.151855195216,-29.2396210919042
