233.166758307008,-54.6749001749604,666.772402903719,-170.140658109729,796.504805486789,-14.2998179083601,4362.96107614336,-479.949735625267,218.30255344556,-27.3505186185932,347.062274278179,-55.8381243647396,1228.18540130103,-15.8390262858754,555.016016892099,-105.789765502048,2088.27799477581,-292.40533033515,76.8070657384009,-7.03474142937484,2224.92188419602,-439.805054250361,1953.29513708577,-376.55337648665,1270.56312125052,-38.3874612071268,1868.78461071388,11.4368671028459,906.594671804177,-137.247433786851
238.212359077422,-58.3603084336543,670.015877948806,-172.389940179765,798.879431728874,-13.796894258035,4373.23566444257,-486.847887883231,223.579584902712,-28.5724915136733,346.550271522158,-56.8339734557644,1233.41035724583,-17.8393021110073,556.482467637595,-106.355239930435,2097.43382178809,-294.464197435516,77.4361873935446,-7.23829119579324,2239.76713720681,-442.695036128336,1953.61971541378,-375.817017531435,1281.42213599643,-38.34634029097,1874.30140096164,11.8443167516229,918.386874586126,-140.955897916275
237.298585149553,-55.1116246617515,686.921084798277,-182.192608396373,801.827516512319,-14.7537106135425,4386.2856364973,-495.521917092899,228.542944305886,-29.8314561058862,349.758838422526,-56.7713096328861,1241.23523576908,-19.2882372873655,560.202992396866,-107.272759608089,2109.97173499661,-300.527367869629,77.9855175369804,-7.48048090955218,2256.89328463881,-446.978826810128,1970.86835910133,-381.334135870962,1289.26282452308,-43.4110050859314,1884.29492483353,9.75620273349403,914.566390852338,-141.40265836299
234.349515989959,-56.8611510957839,670.923037959126,-171.810970906264,795.697029458157,-12.4388290372321,4372.02498093595,-486.219551996902,218.803195624819,-27.3829783774795,346.090492035147,-56.0344022926745,1231.19624778361,-16.5997067082069,557.020397615525,-106.405610402247,2103.94044987096,-296.457204534763,77.6092321576571,-7.51017258967784,2233.75080987135,-441.093786187411,1958.56230909159,-377.86160888815,1278.29913403951,-39.1217823618689,1876.11997853062,11.483507283194,909.407649835252,-139.018099970221
233.777641493215,-56.8558909494626,664.855584048404,-166.125099952463,794.284560473792,-11.3924963763856,4375.97920601633,-488.042447446803,222.994210589245,-28.6576887352822,345.88687473353,-55.582239390989,1233.8428436437,-17.6429389336249,557.567999885589,-106.219803933432,2103.59540345463,-295.334541208424,77.2491092662929,-7.05023743529707,2240.54238420182,-442.546208626898,1960.26737267632,-376.306580231472,1282.34896045971,-39.3191925315435,1879.91038377798,10.4447899502925,916.710887110426,-142.340177939628
228.430932697573,-52.100667007232,674.449491713444,-171.826672862036,802.164133167525,-14.7934760235036,4383.82892870332,-492.484350209117,227.556416353837,-29.6456335499308,346.972943095433,-55.46437141871,1240.96906584437,-17.9708455654188,560.539811915073,-107.086119879947,2105.55092502545,-294.358816986572,78.1304156898939,-7.33695171773337,2259.54960193077,-448.138325365599,1960.75497447142,-375.842850587078,1287.45830840515,-36.9995173285718,1883.68936263171,10.0670196715749,916.89324075305,-141.242466065833
222.024763532073,-46.6105528991757,679.992134080066,-177.977052865805,799.05562682464,-14.5312262754725,4367.93106003036,-482.196463678928,218.565518850122,-27.3808706894555,347.488667837255,-56.202531872887,1231.4072400991,-15.9773031627646,557.728039816506,-106.544741806208,2104.75376263775,-297.806025105991,77.5270814423054,-7.21785861914989,2232.75499990048,-441.962363627647,1954.96067767912,-376.131258361074,1275.47003465204,-36.6220250944748,1874.28650014407,12.5605089063758,906.60944985713,-137.992572975603
237.8184128235,-54.2542054016873,680.465598943294,-177.856854661481,798.967189483814,-13.8677324210238,4369.28717408194,-482.543569779883,222.383876734269,-28.0375979207351,347.179367654555,-55.2945720176359,1234.19522271476,-16.4299862888953,557.700175171974,-106.274708252135,2101.16044206282,-295.390023518764,77.6937837777919,-7.23099963135116,2232.90406608575,-441.316470924646,1958.11773811243,-379.781865660134,1279.14257240274,-36.2782785553906,1879.9706686536,11.1409021374669,915.722800996097,-140.334709410684
222.330535003791,-47.5927095994158,677.006554198193,-173.071874238028,803.016242022985,-13.7108732351732,4388.51395664559,-495.479028315915,227.118936731248,-29.3812787563326,350.517743974216,-57.3646478707126,1241.95247982234,-17.9695046068544,561.52838171239,-107.569335852769,2108.14460486571,-295.942924510833,78.0329424207105,-7.31569978759558,2252.09830255966,-445.959316130145,1965.09683897827,-379.254533386747,1292.106035718,-40.1707624191224,1885.40021242661,9.67380160458997,924.712304928227,-142.499534814412
247.057177871458,-62.9246082359027,675.890677370949,-167.823897864185,804.649973251991,-15.0345834369087,4383.3533644492,-491.537900856996,219.847198544223,-27.7552557957974,350.957755916614,-56.8587562912994,1239.51403203864,-16.948366023467,560.958128078232,-107.282964853544,2105.90358349869,-295.203838065087,77.8290298429287,-7.38934153463061,2239.94332505949,-444.939986503017,1958.59194596815,-378.627630829861,1279.97202293748,-35.6973979827047,1876.04588452337,11.8394773202429,906.881942361881,-139.465262708105
237.121709430012,-55.1012682104751,673.746730793847,-167.16303339759,800.788649275387,-14.5760596637348,4370.63426632041,-482.863219161393,216.848529263284,-26.8427302208395,345.898316183582,-54.9370672196697,1231.26417328986,-15.7167662019881,558.57729430931,-106.792617915018,2093.69497718886,-291.197700921669,77.4502637011681,-7.22602925036937,2223.15556563678,-438.080769647917,1947.90070673377,-374.867967983642,1274.44207960754,-34.5434015618447,1869.99577190954,12.3259197707512,907.721062154056,-137.933940351517
232.440398067154,-54.8360464299177,681.714856772868,-177.941156957272,803.249142774193,-13.7815031406024,4381.61167320284,-491.62567259719,222.168061019728,-28.0254142297049,349.337570952652,-55.9900583930387,1236.57009493855,-16.8506535521425,560.389658747862,-106.870673264387,2100.49199292223,-296.983237446372,77.6123221918983,-7.26781327928877,2237.80997510283,-443.196085634273,1953.71347047728,-376.319494028699,1282.76208450751,-36.8479607921114,1873.87481264649,10.980094738378,915.452946264958,-139.649502696525
236.248845472083,-54.6097024152948,683.890703284384,-173.218018009935,808.747431102497,-14.0311312114985,4403.3938834192,-506.186518116724,227.0630929072,-29.3196483770638,353.654451132278,-58.413823898953,1245.06220106939,-17.7948986048762,563.749997456021,-108.104203270021,2101.08994569825,-296.389148537477,78.5428553189129,-7.56468754505619,2256.60429141912,-448.300890052618,1960.39378532484,-378.512499438452,1296.06232656671,-40.9499849101589,1876.30176671471,9.86041256890785,926.569487507384,-142.191080974502
242.158544882226,-58.0866482562088,678.642199996847,-172.115997090198,809.837890417454,-15.6577324313645,4393.79152785042,-499.186216055364,216.236542822752,-26.70309984287,351.029043724964,-56.5382086271628,1238.24377608452,-16.2638772962172,561.639764179257,-107.335602521465,2104.14244819893,-299.678141023359,77.7006137667366,-7.36767161151213,2227.1375421275,-441.304090608064,1946.24962429597,-373.215000846315,1280.11844378756,-39.0274040521269,1863.89791247124,10.8230498244773,901.983743860094,-135.265211336618
235.90455953623,-55.0576472029995,674.138182799481,-178.310839349826,806.017870926296,-14.2984940338638,4375.63002630116,-486.655327736606,215.163884916708,-26.6731657649884,348.623283142667,-55.9150552140293,1230.21272905928,-14.9955428991846,559.571385867521,-106.494136843878,2091.9020069917,-294.333198599189,77.2531099090128,-7.09138043258071,2211.14841750484,-435.220118332414,1942.74904182722,-372.901374127221,1271.32885400706,-34.4096854668357,1862.57521202398,11.6548954601729,908.493778989434,-139.038675301608
246.31878298698,-59.5813116270925,683.628621671243,-174.897883534454,813.317882416082,-15.3626776987669,4387.44777029792,-495.198649683835,221.19215913636,-28.1520680114988,351.208747507056,-56.4686335418836,1235.31944629078,-15.2717795454375,561.97837368901,-107.847002891179,2098.47154200283,-296.701282100437,77.7623759678492,-7.23383069535543,2227.36944545052,-438.980107808357,1950.43960816266,-375.530615105521,1282.33527872699,-37.7514017517947,1871.41832273369,11.6284084273169,915.211489205643,-139.11167207335
243.881680918329,-60.1929688379838,682.646462139528,-176.126207367007,817.697380546933,-16.0648462736952,4400.72164991027,-502.186012211752,226.561261539273,-29.0224725455843,352.832406326998,-56.2140857076552,1245.63367284361,-17.3737277323429,565.546106591996,-108.375772464322,2111.17456982202,-298.491644999538,78.218217474027,-7.26801123291172,2249.4259210575,-443.882880757111,1962.64576069823,-378.501494326286,1295.66055181141,-40.7203941366688,1880.84075514129,9.56308749476033,928.927510560015,-142.291929956022
241.961952646784,-57.790633363351,682.635682682337,-176.120133822022,819.959507786746,-17.2203865699874,4385.67572412592,-491.460243900901,217.020171665036,-27.1153837974517,355.504884812746,-57.0221160848794,1238.94401859366,-15.6958970912535,562.893302906291,-107.568182486619,2105.86711205396,-297.234660513392,77.6916395201537,-7.45145943604527,2226.40001879389,-439.54083740379,1946.93281341282,-374.57595500666,1277.98412419127,-37.10403756626,1871.43304024103,9.36668270968351,910.866472652894,-138.504044503749
243.126859806098,-59.6251574348935,679.389731218009,-179.143782304335,818.877595153543,-17.8457878733475,4376.72619771927,-486.259899556809,216.111480746232,-26.9910457458502,352.245796748857,-57.9918550358993,1235.21293660231,-15.4271216060727,561.823614130086,-107.282814616014,2100.26961705831,-295.988811444675,77.3911978737971,-7.04005809286508,2216.97857827664,-433.939432402495,1954.83780457372,-376.771283878672,1276.16105708734,-36.6941539946969,1871.9968862986,11.2025510266005,910.557874536432,-137.128305115025
235.434170076725,-53.6513489422406,666.40531467838,-170.399830809797,822.053615818913,-18.0185360458995,4393.10927676468,-497.201507710763,222.829275919626,-28.2603262848548,353.00363611672,-56.7686704179417,1240.37139847459,-15.6984023225036,564.308008034874,-107.908546836152,2111.17775222263,-296.709847789704,77.8929247789246,-7.20744996680482,2240.76690297479,-442.462983218672,1967.94655673359,-380.23040746879,1286.55326952275,-37.934719022966,1880.8066200265,10.4185571357191,924.55595200568,-141.463764815045
242.719368090737,-62.1597103992357,686.402129211103,-177.287854927875,828.071514925108,-19.9583824690399,4408.18473273243,-506.646464217076,227.223521034441,-29.0916636080636,354.956717046571,-57.2778146202444,1249.90891157226,-16.7303441021652,567.880846259955,-108.666925434124,2127.33321425583,-303.771821251465,78.4533388855829,-7.48119446965034,2263.79381642658,-447.162333810079,1979.47121379765,-383.416259785487,1299.13734054896,-39.8465513232471,1895.17337694794,8.05420041200314,939.326802937185,-145.515033789798
238.612741881335,-55.0759122294294,672.947056764369,-165.711133937726,828.508050285029,-18.7606560802515,4403.17731534614,-502.621594570763,218.682435843983,-27.1670376958526,355.956194292721,-57.6359505720112,1244.41795130213,-16.140629352859,565.504075055608,-108.112755084664,2125.01748078459,-301.003767761439,78.092544200699,-7.34976335255649,2237.6822325374,-439.270303570605,1973.19479561576,-381.907138690841,1282.11039816338,-36.3637900698394,1887.66803820886,9.23823284704683,921.406407621288,-141.685858323468
239.093113191381,-54.4906019792436,680.773744566489,-176.357179597137,826.311902189965,-18.5818920062525,4402.53268669402,-503.741321927585,218.976746703039,-27.1626739909191,355.786195466716,-56.7115755866104,1242.029632525,-15.1932901159473,566.275949226351,-108.326354133076,2122.85538807816,-301.205674546457,78.262990460868,-7.38614428369023,2242.07998609614,-441.927843035548,1977.43820328242,-383.644735121608,1281.7736319219,-34.6180060687556,1888.98661826653,8.84645626052531,927.158679824956,-144.131741789896
240.870068931701,-56.5250682643015,703.945230768466,-187.9411836659,828.977419151057,-17.9280867738879,4410.03791765347,-507.65477174005,224.931982399785,-28.373665095203,358.373998781898,-58.7321646628421,1249.71118945689,-16.0921369864939,568.628084758765,-109.438168563618,2124.06458319351,-299.25672826838,78.5852443279143,-7.43013824940578,2256.69490995743,-445.563153077254,1979.71819194314,-384.755773323366,1292.01448476435,-37.1884438135336,1893.90183482529,8.01402245492679,934.145755667571,-143.993480415146
239.345879234609,-54.9204888650114,694.039605925258,-183.292314590953,839.747153107966,-21.9314438200819,4425.16926585579,-517.423018749813,227.279382205334,-28.8977203182895,361.713533961513,-59.6598145069033,1256.91397023215,-17.5545030162399,570.621618212607,-109.617897638078,2139.29828696818,-306.010664680331,78.75468849013,-7.31663529569523,2265.04624877312,-447.759473751052,1981.37918265181,-383.570711727521,1292.10625238781,-37.973203599509,1895.36679253015,7.18999314396486,931.095549440916,-143.506523976179
242.996962088052,-54.7354777440694,688.968365308639,-181.629939306687,834.174628496885,-20.1864874950818,4411.49527040992,-508.968101829766,219.619369209716,-27.2356169016791,359.142277403691,-59.7254427428732,1247.53792088091,-15.3282366821606,568.766348373307,-109.129812442392,2128.73015046075,-300.452059162577,78.2638770040756,-7.23404364546495,2238.82379400618,-438.358423447403,1973.80102771962,-379.919865501504,1281.67308791541,-34.4030408498975,1890.39923126932,8.20750577770388,926.967473839439,-143.739278086315
241.95838596301,-57.7342397543285,689.43730495792,-178.471344490199,834.718248511518,-19.747291564392,4414.94039528998,-511.448807166051,224.219566113653,-28.1630233539458,358.642972940455,-58.2381702898109,1251.01029134382,-15.274037743654,569.574554226721,-109.247501869831,2133.16747109036,-302.371339287773,78.5745959935407,-7.31753590288063,2249.13243322009,-439.871648138782,1982.37068035598,-384.833595246478,1285.16342716916,-33.9388889111794,1894.10269415909,9.21907390875475,934.796034471128,-143.56705726041
242.238434680168,-58.7346354204771,701.793036685671,-183.947348977464,839.262264276754,-18.5908667966586,4426.45077223369,-517.274001813826,228.705454768909,-29.4879779404103,361.32091465245,-59.2096006560467,1260.07465688072,-17.2463132196839,573.718726869114,-110.601549912938,2143.78277349895,-305.440455706395,79.3387223085601,-7.49009393011796,2279.73799052046,-452.801186158259,1998.69068994407,-390.41420972184,1300.4628693577,-40.1802493147352,1904.39513065052,7.00838408135762,950.174457862228,-148.842587579353
250.800921619677,-58.6982567452555,688.916525671166,-175.607530298114,837.335771745292,-19.3879013354734,4414.7434177941,-509.82556573438,219.521844412605,-27.0922011378316,360.703830210721,-59.3737498194885,1253.64450401598,-15.9865399078487,570.514107484114,-109.30914670026,2141.05151284607,-304.881338533567,78.2618242631785,-7.1394599865694,2244.96486375852,-439.383670283657,1982.92203049548,-383.380948292669,1279.81663002573,-32.0207090302325,1894.15174619102,8.6970895033121,928.846907419481,-143.257860061353
244.04002473357,-55.83052023911,682.691049589214,-167.575039728558,834.637757050916,-17.7275816531063,4412.68359468434,-507.526182204883,222.577656044278,-27.9662015567373,360.33689896825,-59.0593432903848,1251.28912635769,-14.1404154223173,570.150373264275,-109.223072320517,2136.1906044097,-302.762514173996,78.7896554325363,-7.40054854538891,2251.92887002416,-443.564642807246,1985.27454243851,-382.825302492238,1278.06647006162,-29.6678753553785,1895.76717000107,8.36564347524095,931.024868075291,-144.369051773258
246.471306712734,-59.8381811237898,686.107550225722,-174.039092120075,837.837822816838,-18.876396748538,4425.96784927381,-518.223027720215,227.659279333033,-29.0627634697663,363.097264940842,-60.1860932948229,1257.82823969127,-16.542892655103,572.693607378383,-109.879757016308,2142.49567865337,-303.019863929145,79.2363738779048,-7.43171097185369,2266.94686542212,-446.635090773479,1993.94763777727,-388.617032826739,1287.92455199978,-33.882176672956,1903.7466128497,7.50866408897374,944.947314179135,-148.309210029276
243.401193296776,-58.4813711136741,687.513696692902,-173.177960381944,845.019652442773,-22.0869648548025,4432.16652180117,-520.778944790251,223.036842868525,-28.0718946128966,362.671950573519,-60.1193036674419,1259.39563684862,-15.7222020193808,572.965942822256,-110.007136082726,2148.93883666568,-304.278989035837,78.7305984394593,-7.27733577560824,2262.64798952149,-445.281478671498,1999.47174231917,-393.041612737459,1278.72330738001,-32.4138206689952,1899.97765438502,7.48555889653127,928.115772847502,-141.590413430452
242.843958023828,-54.8873754598373,678.275938884382,-172.002434208729,842.466706469912,-21.3823676658761,4419.16135638688,-512.873840900128,221.59039355341,-27.8084385178401,361.063257209823,-58.4571458083559,1253.62737363297,-14.8776097106727,571.729322526077,-109.746215211892,2141.09612026952,-307.47885905589,78.283132705531,-7.20441576857313,2251.03561168251,-443.576444119995,1987.20994411038,-386.5259402769,1275.21260366189,-32.0711405837377,1893.11474352903,8.91805024531389,935.303845601971,-147.493891934511
245.327860311362,-57.1815180730734,682.184811951815,-174.03263904809,842.70284720113,-20.4046902027627,4424.16163622257,-515.901287156653,226.179974379052,-28.3594230682229,362.816296456898,-59.8878711997473,1257.3038844512,-14.8267247230386,572.900087665505,-109.82804149598,2142.62874942309,-302.755729270638,78.643924380211,-7.18992398192546,2259.10953514053,-441.85516367072,1993.15841385449,-386.635440637789,1278.33391296412,-30.0382761624025,1897.77215969799,8.43412458310488,942.326136450815,-145.731583858432
253.923696052805,-62.7450745833706,700.637934635542,-182.377122514946,847.994014104514,-20.7258199601883,4438.93671626391,-525.105934345194,230.086468894338,-29.4630570516631,363.738382911116,-59.6262177539293,1264.6635395572,-16.1171961155812,576.460959397761,-110.901529814746,2154.47268910535,-306.173838676942,79.7669783229876,-7.62870536498975,2285.67143426999,-452.60472143609,2003.65343131365,-388.194624712102,1287.6716778657,-32.3258737310889,1905.01841886786,9.03117273886938,946.969518427273,-148.057291919288
242.540949810399,-57.8456018017628,693.664167766455,-178.050541981038,840.873532999498,-19.5632705166568,4423.46725173655,-515.412380419381,221.835734677939,-27.8239781499051,362.464381462305,-59.8323414245884,1256.52004317687,-15.6296150745087,572.140008880403,-109.593825823135,2149.35168391954,-305.138699192796,78.6884904482567,-7.14577105345207,2251.97186707712,-440.973346312392,1995.00986149784,-387.470575819827,1272.72660699138,-30.6035341340292,1897.27418301724,10.1828533717079,931.911876251656,-143.741124605058
243.250516287565,-56.4646083074594,686.097274682445,-170.114592618291,842.782136265525,-20.4854077961762,4418.22657410655,-510.807417665583,225.783184265445,-28.7252050992048,362.277018355172,-59.6077680507555,1257.25123572405,-14.8643446366279,572.900333166171,-109.667663887812,2147.9078742737,-301.624315954701,78.8864693634639,-7.25760612519075,2253.87959295253,-439.410816339552,1990.58887489563,-384.282184323962,1271.29691745245,-27.1865596797092,1902.03905682264,9.64967325865307,934.91667225797,-144.030421755347
245.740129160539,-58.2478307692831,697.30661990825,-178.782558856306,846.853854641946,-20.3604068048124,4439.14558982771,-525.104207552992,229.306764867084,-29.2537693568131,363.229200052781,-59.609761145515,1262.62016719974,-15.6724723065409,575.447741609579,-110.561531106822,2152.33655610967,-306.496331115798,79.1681690498227,-7.38375166242109,2277.16147808482,-448.800854154682,1999.24733402775,-389.008145605909,1283.18724351984,-30.6375754954314,1906.36536185994,7.95399062343755,941.665288103614,-145.329044143199
254.522423519471,-64.9691098612885,694.96557407499,-180.293375709263,846.450847765591,-22.8064210732949,4427.43517234367,-518.734868851174,221.666460368658,-27.5821867973626,360.793120000725,-58.3141388005989,1254.05315271315,-13.7295654045166,573.633445612648,-110.232701782108,2145.88516876688,-304.108254449558,78.7624468106738,-7.49947627745369,2246.05390004525,-438.856112630621,1987.40495429383,-385.445889945748,1265.3993707579,-28.5846603266084,1894.60693885783,9.80078431918135,932.092785630154,-145.052260509819
244.700607215322,-58.2278448419758,682.438350879636,-167.764821314609,843.599170015715,-22.0074548832977,4430.36999681102,-521.316625477221,225.638014065359,-28.2904814927477,361.898600010901,-59.1585011444055,1254.57842558005,-14.424736810821,573.744591484036,-110.591034649207,2144.38580857253,-304.456154035974,78.4761019271484,-7.15366738529871,2253.54538148785,-442.153102924295,1984.77805261523,-382.144869101566,1270.24620744772,-27.62370734541,1898.21363148597,8.50789812785967,935.585071745165,-143.018217885755
248.025607815141,-61.3815155780051,701.474086123553,-180.848908912258,850.540395368537,-22.9120423277445,4438.65454812307,-524.672861761506,229.218446609406,-29.3224058219521,362.575467092617,-60.0992230560053,1262.42819287231,-15.8893877597959,576.247062437326,-111.433153082955,2152.64981584172,-308.474074855059,79.3994963884449,-7.51841247739902,2268.48805052367,-443.128683058321,1994.36080998061,-387.268558845327,1281.72900758049,-30.3983003348791,1903.53780339753,8.28366640755272,944.409054587017,-145.261037975002
250.172585801878,-61.4805827245838,690.381358454032,-175.87135498639,846.232566291683,-21.2177809688436,4424.71368039824,-516.537422545433,220.528632127239,-26.9452063942942,363.189188660518,-59.559969482044,1253.01896895329,-14.3927705726751,572.455814492707,-109.91419440278,2144.97921350912,-306.946350831271,78.9144296637668,-7.41324020831935,2238.39203936392,-435.933119999802,1983.44764926665,-385.277681545241,1258.34863167242,-23.1566313563805,1887.44038444834,10.4636602648207,929.150064768354,-144.389118358234
245.315026923082,-58.5474347624958,687.19065054474,-174.44065561538,846.036405985592,-23.3303250297854,4424.04238878903,-516.01238255613,224.730851932022,-28.4459710642783,362.350520269014,-59.5743703506909,1252.12464979471,-13.7760651468091,571.691390396543,-109.743369424065,2138.89336579164,-303.043264298395,78.5382802507709,-7.27241556469068,2237.60833255212,-434.24703024367,1984.75899062394,-386.33204026551,1266.08541965073,-27.6511362821217,1889.16620650405,9.91722912620522,933.289055020358,-143.341535253497
248.299532830938,-58.966151202261,690.367004019446,-176.744309936612,844.440760164826,-22.1043150436184,4435.77533420002,-524.051182344696,228.994636938617,-29.2177330722074,364.720214901517,-60.8202664566154,1258.09577104611,-15.3270375085604,575.512384128612,-110.983912604818,2146.4840893933,-305.722616947015,79.0430932746932,-7.19038941833645,2258.77945682713,-444.190996642332,1988.14025906508,-385.58823525408,1269.58618042552,-25.8772347498621,1897.81301396854,9.63514021930635,945.493804159665,-149.185701510401
258.564613448583,-65.6741133677383,710.910393326396,-187.676243212763,846.429322132814,-23.5213352827955,4420.43673984233,-513.544609797147,220.851208996794,-27.2963663055269,361.654797450398,-58.682787782018,1251.74109093943,-13.917440025164,572.015259466994,-110.053217832037,2143.13860520427,-305.013558413037,78.2617311431767,-7.19403683653784,2229.13693578932,-434.003363238586,1975.4697917844,-383.309859740791,1255.28431035671,-24.3116588424261,1884.2764395928,10.1865942852047,925.913799950481,-143.465617749267
248.289740025686,-62.0721540717329,699.856753827106,-189.347585796268,842.087504873858,-21.9880964480275,4413.47168496545,-509.332121646087,222.126620126781,-27.7032310751828,361.038481485459,-59.4152545960485,1247.6350176074,-13.1778912884141,571.477593105485,-110.355157092984,2134.79734216986,-304.342041129481,78.5365926061563,-7.33257765159098,2222.65714223743,-432.129630577756,1965.22017252732,-378.424512606884,1256.32195655548,-23.6461941660054,1878.40173052689,12.0066723973926,925.184421104172,-141.167173424567
249.605286744109,-59.3996437311495,692.30281730517,-175.808290899101,842.934340045123,-21.4839853443713,4427.7193286495,-519.132020484225,227.529181310892,-29.012010996541,362.136462370768,-60.5664184077493,1251.8110569549,-13.8153668482034,573.413137097964,-110.626834261987,2138.00208805828,-308.205762009705,78.8566626848258,-7.50820395998404,2235.38205007382,-434.16230755345,1974.34175593118,-385.142508687626,1259.02115910883,-24.1402556710277,1883.92995158093,10.8072186608411,937.928844877074,-143.47808077989
247.774118388487,-62.9952324760012,694.285569110176,-180.147615359794,844.60582998767,-21.0417208439185,4426.35460471072,-517.839340113565,221.538064245973,-27.6140507867363,362.589285786024,-59.9113641467729,1250.8823735109,-13.8206990535069,572.470622470731,-110.465810441579,2131.36428394993,-302.60324127232,78.4981018111447,-7.29434288205168,2228.95832196538,-433.208285038085,1970.06608519023,-381.609524173752,1252.94001064127,-24.569473997957,1878.31513245894,9.99498524200748,926.701092308854,-143.459362018814
243.334089801417,-56.7669423102676,697.9996413915,-180.147674904353,838.596993575154,-22.5225365600868,4409.001359504,-506.742215484624,220.549297940148,-27.4731988767683,360.355704708874,-59.452551252993,1243.56280279201,-12.8831664281698,570.020996447713,-109.594397870932,2123.98364602277,-301.116712862356,78.0279548401219,-7.1285872611303,2213.82695533375,-428.768149622519,1956.1015248613,-375.662370351945,1246.61908663146,-21.6844515526573,1872.09922927073,12.02572784618,926.018535951043,-143.369987359132
245.516633225537,-60.7161172659618,691.760763910666,-180.584531349973,840.398003942846,-20.8308819331836,4420.03042605465,-513.73531348912,225.565069235048,-28.3612441870214,360.629462448794,-59.4206970147466,1249.052916944,-14.4881504086767,570.682248773388,-109.63335029052,2130.44617091249,-304.606917051615,78.7164764988904,-7.45319957381616,2222.15523090164,-430.777462104023,1967.06640734697,-380.766309710797,1256.39133147511,-24.6145792184877,1878.65957790474,10.2954281081483,937.928010277102,-146.809455079088
244.203670745483,-54.7018759873822,696.900786656284,-178.770245375466,843.614840905311,-21.0424471393242,4435.37203910999,-523.996840700516,229.219439049622,-29.0041203906256,363.634435523388,-60.9036786054695,1254.92706230788,-15.2754215103711,574.021029399499,-110.761658129674,2135.72824926357,-305.357273826051,78.5905179978408,-7.23149151611121,2239.02176669543,-436.201426403415,1968.32599360292,-380.752160592938,1257.67230693435,-26.3122951706723,1879.00327090265,10.4691585884832,930.958405498988,-143.655658177796
250.35424811407,-57.3486679923633,687.931199359484,-171.580842038551,840.724984949077,-22.7857766079379,4413.55952864326,-510.684606456818,221.566789208947,-27.374443740631,360.984670958714,-59.9282678224628,1244.47706842294,-12.965207843674,570.229029138407,-109.870942354155,2125.86276634477,-303.067825203833,78.1419892202377,-7.34372004112525,2216.4288779097,-432.568906584834,1961.73473574487,-379.350598953113,1245.37281477155,-21.4828417786821,1872.43565663914,10.8291600742088,923.591305421626,-140.402925062698
252.111881604721,-64.0848716051584,683.406358294707,-174.046735804988,840.473594452695,-23.5755871701704,4415.69211574909,-511.195808457631,225.23574141076,-28.2324922604222,361.018740542525,-60.4024270327578,1246.32474833316,-13.3925515427499,569.933304574194,-109.691717434308,2126.27067165154,-302.523476645092,78.3789458636492,-7.3413208759347,2222.70678992568,-432.577255336083,1969.66590259086,-383.447199051522,1257.4979262951,-27.5116326602333,1874.89670559503,12.2681587010608,941.042634344395,-147.491985334805
241.98878261093,-57.9828825108957,692.211779267687,-175.136876194041,839.355634570654,-20.0807125968614,4427.11311971039,-518.180450021813,229.20391966554,-29.2364560493798,360.229749304548,-58.5757477748753,1253.10275372399,-14.7683267682878,573.403045116883,-110.80302880089,2139.41017738801,-305.166997418166,78.9398040844413,-7.39711080533634,2239.95951636286,-435.032410814907,1978.07350131206,-385.49207520917,1257.95706627983,-26.1758630545282,1882.17312121338,10.8869702945877,933.034284983531,-142.036560503071
240.156117393336,-54.3260084838142,690.415327406042,-175.489777594381,837.344118880499,-21.231511011292,4419.0592937467,-514.299270021204,222.502429315849,-27.7985435633265,358.457215247417,-58.4565706715931,1244.82097438637,-13.8341882568604,569.350994266521,-109.552025707075,2126.27937664791,-300.057318428426,78.2630485654369,-7.46162432731745,2218.34449218722,-433.144454431759,1966.1445844079,-380.305149555163,1250.35399261111,-23.2801171659972,1874.42978091015,12.1829234888581,931.005160820167,-144.139820966174
240.61507523509,-56.3996063416256,692.660378768405,-180.322351927937,838.513585062927,-22.6247021893749,4426.88015311596,-520.459546942765,225.966058495778,-28.7047283510919,358.228622668222,-59.1765578730923,1247.80745816034,-14.678696039917,569.797211676546,-109.417533670737,2131.07221738755,-305.552245188649,78.5649527945906,-7.31931530418005,2225.36857167134,-431.607911137266,1968.42319257324,-381.477641681657,1253.7560365703,-22.0314285039004,1878.75532808206,11.3551964077814,939.144130728386,-146.327813178292
243.278516518695,-57.1902333913299,687.40972458672,-169.12992122441,839.906454237205,-22.3599800909921,4436.47008471813,-525.313469670081,226.365996944512,-28.5470773768491,361.341695395614,-60.9094558435618,1251.23686198776,-15.6319697955662,569.965458388394,-109.369806943178,2132.0251578338,-304.934480529036,78.6462571791319,-7.52010789837355,2227.384900556,-435.465712762719,1965.87842529914,-379.215633620625,1251.63141309183,-22.3482828720503,1874.064393492,11.1665871949253,931.878508810446,-144.286659755156
238.113637225956,-55.8003154147576,690.546074184921,-171.306090367266,834.246986001879,-21.5837402621064,4421.81136628052,-517.462016818554,221.992248176855,-27.7040618805397,359.14952315195,-59.1730134057116,1243.69661312624,-13.9831592646665,568.281815163636,-109.120060363496,2116.97533109771,-300.369331191285,78.0058501879437,-7.20881764638156,2210.36720443698,-430.931859320962,1954.05965305039,-377.872692368357,1245.81089970655,-23.5068868939972,1866.9959125801,12.8162639667311,927.183067935417,-143.289445971777
242.928017813417,-57.1951150935551,684.385139863607,-171.872158505218,834.486501153674,-19.9996011496522,4418.62912189011,-513.797779904858,226.535858761606,-28.5776999297967,358.480536628367,-59.0767571059691,1247.70897751444,-15.1654004681825,569.595178600248,-109.776890116211,2120.46090334929,-302.943861209479,78.4109483987459,-7.36135727266875,2223.19204949023,-433.75711514583,1963.86410426214,-381.356573433223,1254.46645178008,-23.7026924741848,1873.51791177733,10.3465399088926,939.992872425213,-146.080011870761
251.568109949578,-63.248435823845,693.607273953452,-183.442703556,841.97235649551,-22.7966186913685,4432.30487897566,-522.238516872572,229.788987963428,-29.3020591342774,360.595171306908,-59.2402580111711,1251.74456902276,-14.9424886015998,571.883050015887,-110.352356294616,2130.7419630355,-303.995112006175,79.0416194472577,-7.74724413889628,2230.62090954496,-435.849447553127,1966.1973580098,-382.24834413419,1256.17373898983,-26.5621428590247,1872.37611467618,11.6370521219703,928.634566230236,-143.539273127162
240.639697301993,-56.7908021907613,671.512431208802,-172.370498603111,831.048620170578,-19.3056348406251,4411.50106200307,-509.803143590845,220.26120755829,-27.1242322698649,357.624179719711,-58.4031214376383,1240.80854550237,-13.9113664480962,567.121003699509,-109.467388808738,2118.10274513068,-302.646998917307,77.7194531929907,-7.26079955884364,2200.6311098392,-427.552028099525,1953.23074741227,-378.297292603692,1241.88738974891,-21.3016434880214,1865.0146249725,11.9818321856537,927.583196151542,-144.093539891683
244.236161218078,-57.1196791747198,683.484193923432,-176.795778138467,831.788796108149,-20.4398191060145,4416.24906579538,-513.555341451743,224.46682115524,-28.1223951451473,356.531829179571,-58.7815969192877,1241.26915785992,-13.6775491364671,567.01832192695,-108.966120065362,2114.49754324796,-302.19475840423,78.1998532073605,-7.38266319015825,2211.34323383323,-429.711054168381,1960.95618599721,-379.997907237417,1250.79393998866,-23.7746188600535,1868.39013982315,11.994536546337,934.374749577471,-145.45807795002
247.893551461036,-59.3825373781704,682.25816652417,-175.883871308274,837.699705977399,-23.2089616340079,4431.32230228144,-523.198668429328,228.37682602084,-29.0740528248692,358.898936483446,-59.9901608765567,1247.75427493115,-15.3040350794427,569.604372319049,-109.550195045058,2121.67340372216,-303.735754403688,78.4380660601007,-7.23894340662808,2230.67260987486,-436.948604593983,1965.99337974807,-379.401789668017,1260.60076449376,-26.4774582972114,1876.56617119851,10.3746819546464,939.575041410255,-144.530581614302
249.298821844969,-60.4952665826751,686.459688965998,-181.053418316232,830.035369719328,-20.6556258320025,4408.37862732827,-507.640328289133,218.412035426768,-26.9103207492049,355.11113067119,-58.0192941908178,1235.9944728294,-12.8981381023883,565.6277521766,-108.852143222675,2108.7852150394,-299.856664115956,77.6343151502444,-7.25550716239533,2193.81606587148,-422.738851427672,1950.09774774816,-376.328934237562,1236.5239362086,-21.1292364207813,1861.06450425228,12.8872323724816,922.849689851179,-143.883051375481
255.648708011365,-69.9750663873038,678.585352478347,-176.582036267197,824.905241746875,-19.1911493830259,4402.2991253051,-503.854916529053,222.089459781887,-27.8331360952688,354.81086591269,-58.3393486056935,1235.46342898181,-13.5129929618093,565.167354121577,-108.875193367886,2102.28404156643,-299.32895218985,77.579328301786,-7.07042815951128,2196.20642806791,-427.86206387561,1951.23361935156,-376.42258295536,1245.44173208637,-24.2928608528373,1862.83091249431,12.8115760833065,929.127692097806,-144.175980340068
239.364535390943,-56.9629994665484,675.600381292116,-172.278375379959,829.251842697833,-18.4159796218178,4419.77738532558,-516.367120933929,226.510788949567,-28.557572736153,357.321303934383,-58.8267346787005,1240.84629522555,-14.5746997680491,566.117525169591,-108.848026550775,2109.17029687117,-300.04419077146,77.9509355734711,-7.23591711563478,2212.40116322122,-430.044126351704,1956.22460441051,-376.977395924684,1251.02532359638,-21.9646435168164,1869.44860814169,12.5420053105941,938.61749824194,-146.839141700037
245.966107865569,-61.3112210601579,679.105800686225,-170.855968562605,836.503652225402,-21.9826615829051,4415.26195151642,-511.436872933966,221.823151818609,-27.8650341675665,357.115419636072,-58.676031528596,1239.8352480561,-13.464656013578,566.954304652343,-109.430905901495,2111.14295181746,-300.215431007718,78.00476289904,-7.31513319306598,2210.33551956181,-430.70640513716,1957.74583338401,-378.364414695025,1244.36881117497,-23.1678995563727,1867.84041988638,11.1263510762011,926.118346637563,-143.978746643919
242.615755681,-58.2464942044458,685.288086033502,-177.567829547341,827.787802900827,-20.4448607971809,4400.19807397141,-503.617569135705,219.720769131681,-27.0007116631141,356.285947630092,-59.4099056103488,1233.03056409013,-12.6633405658633,563.470985074619,-108.315107313462,2101.32549367357,-297.664229306324,77.6960579977095,-7.27995797945386,2192.3727697242,-423.997203700274,1950.75266056688,-375.530892260791,1240.31936499773,-22.7344412135976,1863.18041839121,12.6714854262691,924.078494458446,-143.236013663496
242.16757444505,-58.3824295108254,679.796215848492,-170.264446238801,824.465168143141,-19.7366654433706,4409.6975118791,-509.384770165782,225.58255614181,-28.6611166594526,354.436548041248,-58.626356389116,1237.34113744232,-14.3941341623009,564.092110892138,-108.334966206328,2110.60462163947,-299.60152810283,77.6411831920922,-7.22662011194091,2209.96074333059,-428.469307387809,1965.26458109712,-382.065846536362,1248.34479967929,-24.8704340716088,1874.41361357765,11.8876408988682,935.978591137527,-144.983801107279
247.142012832394,-62.1050657911312,687.165650311021,-178.989434182627,833.555404171657,-22.3759828375356,4420.96168784364,-516.151737135366,229.753733426582,-29.5309436924728,357.920434928304,-59.4616029221346,1243.63083564039,-14.8280435958682,568.316751900392,-110.115430347649,2116.74361530354,-299.291768636009,78.4136899746248,-7.22255306477847,2230.21028562475,-436.180987065815,1971.11763287887,-381.770424686089,1252.45337745405,-24.4376853281685,1880.32272884077,10.5290421487294,930.87234437527,-145.532995028153
236.76378286876,-56.8172792274614,683.357528183917,-176.472628427292,825.337840082615,-20.0328881405613,4402.82759694749,-504.026872588901,221.15512108645,-27.4487235200045,354.93356419566,-58.5221685471838,1235.63925035359,-14.2477935382422,562.817304436849,-107.818128928567,2110.03026546337,-298.10790434394,77.8396198218831,-7.41430359555007,2204.57681050689,-427.73894473798,1965.60615519248,-378.734652630763,1245.78088959541,-23.2125180118513,1875.28367109374,11.1652194404941,923.033880824499,-142.894920097629
236.930846933361,-54.0077512757066,677.803740305756,-179.985052314954,825.370928324656,-19.6847367948412,4408.64471376374,-509.32118826343,225.019114800743,-28.5673259057025,354.0363567082,-58.3882452793915,1236.27450619342,-14.1180662946879,562.751487654744,-107.854565755696,2113.9385405979,-301.2604985497,77.9402326191667,-7.39950315394208,2214.60092399058,-431.991075599767,1970.85538253321,-381.659874411887,1254.34468042456,-28.7476501339488,1881.50000429041,9.7017781763597,930.944772790233,-143.312654585552
240.654716578839,-57.0448150010667,685.815482167602,-169.241582297195,827.214106170834,-19.2855161179644,4419.72265055932,-516.206916298805,228.72230550835,-29.2849178774448,356.308754086181,-59.8591996699958,1243.42211581613,-15.2328587548026,566.165861190767,-108.809643179687,2116.66919046837,-300.727686721288,78.8166032409574,-7.63342898560131,2222.82867280337,-432.326366080109,1977.42464770281,-384.269154476498,1256.30545107403,-27.8110381451234,1883.27684635523,8.9489146930799,927.095968407046,-142.446258533881
238.282206981381,-58.0892330067233,683.550496249724,-174.511778808265,823.881470459111,-21.9211066309301,4401.93257704318,-505.672965218825,220.967788695132,-27.7272191824642,354.818778853803,-58.6041360123551,1233.91267684483,-14.3919888467289,562.359743962486,-107.787640798672,2108.14684144644,-299.612362695936,78.0161719261058,-7.38828578197487,2199.09505139649,-426.173618377543,1965.30899486597,-379.736795025099,1245.52685780983,-24.4514437469336,1873.51945503248,10.7535862489663,922.502251100473,-144.451821410498
238.247626948972,-54.468426514897,689.963218454769,-176.970649377481,821.342189599476,-18.4016291123426,4409.33463538509,-510.540099882027,224.225824938229,-28.2066494967449,352.663648547777,-57.7014849473719,1236.94023878218,-14.7876760532728,562.546173216303,-107.953300169416,2108.38229674136,-299.260631287564,78.0566693819011,-7.2975354977144,2210.31026801742,-430.789944248566,1971.06903118193,-383.496612149868,1256.64805406685,-27.265840510165,1882.3320961492,8.48606156929343,928.89815883447,-144.43169383078
250.307859438413,-59.0527235751142,683.844043672927,-180.530593718406,823.59342893013,-20.1537493614186,4412.65226077938,-510.883949396465,227.986226762279,-29.4780066401468,353.910788963157,-58.1047304362271,1242.26514515944,-15.7312538986849,564.186147980903,-108.448724645637,2119.33384825725,-303.163195493633,78.466154468572,-7.39136878695381,2220.01239822294,-436.52584343835,1972.52427179025,-383.79821142248,1257.61135954793,-27.2970930183253,1880.32266493396,9.60072599960897,922.068418857244,-141.963033282669
244.030084969638,-58.6472615166253,678.055281062874,-175.132999398079,811.350847377099,-16.4831153789422,4396.47395248291,-502.645907671405,217.302175485597,-26.9995272133371,352.593437540834,-59.0635672316065,1228.70544308258,-13.3147734920507,558.637075627235,-106.758131449135,2103.71104719987,-300.610076170817,77.5632135353739,-6.94945995477761,2188.91397346227,-426.225095608317,1963.80285186068,-381.26989537526,1243.8912878642,-22.8714600962446,1870.71312600295,10.1260116929476,917.79233930729,-142.287142439841
234.272358304584,-51.5052387028889,681.896422322804,-174.86294033886,814.434896097238,-19.7692984284945,4398.91255883122,-504.317606409279,220.521711794006,-27.7286542098989,352.604264377078,-58.4304220466004,1229.81135533226,-13.9238244384991,559.977989763749,-107.63417248087,2111.08684403627,-303.28888896058,78.0006400704007,-7.38153954431778,2197.63005046403,-428.522441035306,1964.86038627245,-381.020320740896,1251.57318793212,-23.6966720672147,1876.20122619663,9.14115231896847,919.54180553199,-140.909564756385
249.375530364791,-65.6447297897356,689.59383342329,-177.22308074312,815.867192157568,-17.6516138730176,4407.67261104087,-509.838243438712,224.560170788701,-28.5364227821239,352.411697547969,-57.7253304596474,1235.6928206721,-15.3915766609004,563.149337403734,-108.965882575547,2104.83436480949,-300.914786407232,78.3191411512042,-7.52096024413849,2205.2281987645,-430.146449753871,1969.4899466875,-381.979403855584,1258.51072117903,-26.7443959595076,1875.46054077392,8.2259558538474,916.840500024634,-139.375005109545
229.988156988291,-54.7053792013224,670.515464659337,-173.978455169166,806.594387903274,-16.0855038826195,4391.24515001902,-500.810895460303,213.739791578526,-26.0859371604949,348.471378315921,-56.9926876837002,1223.63373242238,-13.3987827192585,557.953177068992,-107.40949184686,2097.44101988766,-300.486456403299,77.635484788946,-7.30350464470288,2172.53356178439,-418.902457418706,1955.31734181126,-378.113559139113,1243.34752399889,-24.1984795750158,1866.20153297403,9.60618991778951,915.837044985061,-141.665463234972
232.19868212924,-53.3186675753576,666.683424039504,-168.772786317247,806.049657012453,-17.6552958847971,4393.82481585753,-501.973798187079,217.898758707559,-26.9720980940423,348.184263364636,-56.3688785291349,1224.25300760801,-12.7049440916167,558.662867773681,-107.255057755322,2103.28398182974,-303.79013347771,78.0079352558126,-7.4085119524301,2183.46170725004,-423.60015638798,1960.84751736426,-379.44216313561,1251.93933526648,-25.6959487866967,1874.93862096887,8.15011552265054,922.899288345195,-142.709722240461
245.003606908093,-59.5649331558118,689.391993379622,-177.28198060674,813.133536069586,-19.3946782041507,4403.36289983659,-506.758796418251,223.608076989336,-28.5569990523751,352.135242301177,-57.8241874893464,1234.43475171915,-15.7612725022183,561.6663215337,-108.011963425648,2116.01276837396,-305.5590843986,78.7967840806014,-7.5780483239518,2211.23751122193,-433.69903896088,1972.22635371305,-384.853018779309,1269.86286852607,-33.7140034570889,1883.6971246777,7.68734404361861,933.069891978071,-145.175325284322
234.877097684303,-56.8899851367011,669.018939056954,-170.116961044849,807.211174595298,-17.5389911761784,4396.04225479978,-502.960070884394,213.196888274849,-25.9912327117164,349.341658011324,-57.6523513771932,1225.89612223881,-14.2771869246164,558.538124140736,-107.080930004934,2109.45166342672,-304.163122924342,77.927011503914,-7.38461982266279,2180.99729928996,-426.12680171666,1963.53328934529,-381.554640057682,1252.75427347198,-27.3536737477916,1874.02307656056,9.33402289649834,917.855813040691,-141.271157809988
237.670793624455,-59.5209957962655,685.288806695174,-175.205054991974,805.760195438852,-16.6119953089833,4393.43379852161,-500.707789326777,215.764517228221,-26.2941903704338,348.54389459074,-57.7575770309644,1228.03190600591,-15.3412200949209,559.365583285261,-107.234894297447,2111.26804402061,-305.246455448324,78.1563429792228,-7.25795077171885,2186.405629221,-425.904809683538,1966.83712491286,-382.578628840721,1258.31716217938,-30.005565642224,1881.1558320569,8.05286597081636,920.88203763316,-140.410031749765
240.003369334079,-55.800590296607,677.187612845857,-173.207755199177,811.697323063007,-19.209234025324,4401.95951431147,-505.882701744664,221.457408778492,-27.986007825568,349.430720474781,-57.0367232758222,1236.06748133752,-17.0107072362001,561.827766488171,-108.282386615709,2112.40171813288,-305.332454429778,78.507299265434,-7.43147648133615,2208.09657470804,-433.479742172336,1975.41640088808,-383.835808149244,1272.73830118842,-31.9214710609526,1888.78987466392,6.51209538268967,936.255680841155,-145.616711797238
245.795423160583,-63.271342115862,689.469362485078,-182.218725919739,811.55585941808,-19.2597424887337,4403.3960533676,-507.876195694127,213.181177535599,-25.9020120690878,350.563962255252,-57.8030500373824,1230.64946062985,-16.0948647110724,560.402506870501,-107.992748836379,2111.13652285748,-303.53483133772,78.3759272126842,-7.5718727707752,2183.39015297459,-427.467338286494,1967.24980927923,-385.216571129204,1257.85817551193,-29.7452330985763,1878.89971215549,7.82194538795301,920.39867370686,-142.486416147417
227.808135424981,-54.6895477743817,676.005366345756,-168.843961820305,811.312262186975,-20.4081218069219,4409.40773816743,-513.239709101979,215.261951643218,-26.4061645005026,349.600542295498,-57.1186965137417,1232.3099853854,-16.0723566206855,561.539030412133,-108.613383887057,2111.62069984694,-305.246671819478,78.425256775636,-7.45135009802488,2187.54620962075,-426.248703713346,1967.61263158849,-382.471972666328,1259.43324874436,-26.612847019224,1878.89795401898,7.94884673084942,928.615495833327,-145.703940675583
238.335914987937,-60.6524946948659,689.232389120597,-181.229167698363,815.125175372736,-17.6505467513121,4414.76486045747,-515.578096543375,221.389927871717,-27.9435339582657,352.302377596071,-58.0755861825416,1241.66087314065,-17.8495986986981,564.720773845656,-109.145806876996,2119.70467602777,-307.940794578823,78.6592184407182,-7.36508512657092,2212.11344971872,-435.712407893923,1974.17995791089,-383.514692230552,1277.43164518584,-35.542724734365,1888.64670644199,5.64326139652752,939.177668534537,-146.844724660764
244.596292988941,-61.9091557068375,684.764076593562,-178.498648174564,814.560278333637,-17.6424226669757,4414.34044609224,-514.631503616524,213.561853749863,-26.3710280050922,354.331400071563,-59.1670223621313,1238.51643315667,-18.2765265861004,563.945037507025,-108.84215092733,2118.52156577207,-307.192545285082,78.4534797707578,-7.36637782371474,2192.90326501802,-429.195082756481,1967.58085785845,-385.181797290304,1262.70728061823,-31.7855414635137,1876.40501369907,8.22137309828381,921.243397860465,-142.240005382951
241.128687053139,-60.2653973726286,667.956867488715,-164.727473688361,815.980914943805,-20.943411718598,4412.9331056398,-514.678279484559,213.732158175989,-26.1107345327252,351.478166821467,-57.6355539628309,1237.42148777219,-18.4187148193548,563.672183626431,-109.167541148675,2113.81460630541,-305.358525870989,79.0836542992319,-7.8054945827518,2189.41451867779,-425.163460572963,1967.0889431833,-383.01174880175,1269.43307296246,-35.0557866203497,1879.95740880276,6.61240511098797,932.590222382254,-146.893249519381
243.477138324896,-58.2113396938989,685.784457671759,-176.96846709723,821.067601984721,-19.6808535505124,4427.71642733254,-524.134781513852,220.516177616021,-27.9084192759266,354.502341617278,-58.7888340212523,1245.74102223718,-19.3644265284767,566.914460307172,-109.932199729903,2121.1309948966,-307.455939748989,79.2767462084694,-7.67151733489885,2203.44619835676,-429.361180828089,1971.75243508729,-382.641830345485,1278.60992078539,-36.1143474101938,1886.64975768299,5.96360182658184,940.480069462168,-146.391822020626
245.07237915156,-60.1570982296265,701.73193179244,-183.253247517303,827.135999402053,-22.1438674371421,4436.34814993293,-529.05077248745,217.617418893252,-27.2956884643331,358.509457814511,-60.7492141892194,1250.13257341586,-20.2682481426193,567.743232609502,-110.147027399562,2125.97372718537,-312.331738198196,79.1285509062018,-7.52010953435391,2210.20153073226,-434.00966401492,1972.62451025006,-385.090458381795,1274.35120835324,-34.3648254553417,1884.95984676941,5.02640797092006,926.049893503547,-142.158554328686
243.596742639999,-58.1914507570545,681.3651073387,-176.536537546472,822.521373097755,-21.5348162784089,4420.27262814369,-518.858305277806,212.374179820957,-26.0539316588205,354.957504175752,-58.3204315237228,1242.62343961372,-19.1118638812771,565.336108767153,-109.327527757538,2114.88420282739,-305.639756630125,78.8939445339812,-7.60319906793887,2189.54851348917,-427.812007670016,1961.17975223358,-381.827416274448,1268.15170019152,-33.837850230846,1877.24217259516,6.61187455661388,926.906519371662,-144.544358202116
238.135502048885,-56.9472761341189,698.17873175204,-184.453376723076,823.407663894161,-17.9888959417192,4430.39655850896,-525.885248798999,218.79068098587,-27.4416489956228,358.181447996753,-59.3780158803913,1248.85202746705,-20.0293565652561,568.144876873139,-110.079051597823,2122.61264486826,-311.099746504575,79.218461501732,-7.70537585698861,2210.59196444176,-436.268687653115,1962.63482622653,-381.18963038988,1281.34732166912,-38.2725720975611,1882.4177403279,6.04418547225721,940.271958795166,-145.206749227433
244.479942159997,-58.3459264249399,689.815667333305,-176.463652780685,833.437838387601,-22.1883788080029,4448.86849633276,-537.557283932855,226.638275429002,-29.3854777725771,361.510096474587,-60.472839380328,1259.22248240293,-21.4636889809661,572.407626440501,-111.460383430636,2138.89856907318,-312.386942133791,80.2991781433929,-8.0441004088798,2240.52247363901,-442.013560260744,1978.05974994888,-383.946161274574,1284.13245278407,-34.6913365845823,1891.96497707521,5.43450722796071,944.538282987627,-149.072442497436
236.589490512861,-56.7350800367427,685.653349874777,-174.467722790984,827.489412648081,-20.6548061719455,4435.47481478791,-528.044537894206,214.670032344944,-26.4645646365606,359.883720862518,-60.5760090805263,1251.70060508819,-21.697859119025,569.88648287642,-110.405344880323,2128.30114116257,-309.133885432923,79.3593062733723,-7.88809386755705,2208.79048077878,-434.088803747438,1968.52514584594,-384.090851070737,1273.13237577722,-34.7002586318185,1883.55737128176,6.72414455878698,930.072155073788,-145.188611629747
239.192737090411,-53.6947032259432,688.73680219615,-177.908548520519,832.948695871943,-24.2183848914454,4446.90254364489,-535.790452189159,220.421858031621,-27.8063883617919,359.929833322665,-60.4701824195282,1254.24033368358,-21.4615093098063,571.592325798362,-111.161841282897,2137.58158224908,-311.818067733712,79.7761450535658,-7.92119493074246,2224.49838455936,-439.232682248594,1970.07419559991,-383.673361028582,1277.94087418943,-33.4012379610397,1890.3482963619,5.56962683899724,943.689138405677,-150.153605149744
255.04816349636,-62.13992797061,688.086888608295,-174.034826058516,836.209596517234,-21.653102719734,4456.86634726711,-542.136787770626,226.694836903099,-29.1485875445146,361.602213500082,-60.332914806292,1263.94617222192,-23.1554941662477,575.000769739948,-112.134109315794,2143.35808965684,-312.867993791604,80.1940643933305,-8.070009157098,2234.57912665905,-439.111143042558,1976.42068524211,-383.985020627907,1286.48812139046,-37.8855187658616,1896.08519558662,3.91978077037621,944.257977855908,-149.965438196436
