228.892246696011,-48.40421135352,634.696517619151,-158.108456026392,779.98329087654,-4.63429723014945,4278.26309767829,-415.922902973935,217.438848076523,-23.5770284990828,331.678687139232,-48.8485125151836,1168.91268856875,23.5999804854725,547.64797887552,-99.075084815348,1949.22171468253,-248.393145210416,73.7358814864434,-5.83224542574743,2065.98902389959,-379.84312276639,1791.67916453501,-326.78148630872,1144.56285699347,19.1730884091393,1683.29775072385,48.4558037695024,882.629567257474,-118.381106554247
231.580411451408,-54.6536291240193,636.628265764464,-153.685049362179,782.528111083594,-5.41721217837163,4284.71681115331,-418.819749092579,221.293243401368,-24.128397504849,332.566911584835,-48.5741299458297,1174.20821644161,22.4827294195476,550.336214978215,-99.6876236719132,1950.56353301712,-247.269038697032,73.8377091790984,-5.68360025069524,2085.29792884517,-385.54240544326,1800.45856232704,-331.16134946936,1151.41518061159,17.596945225121,1694.63301967318,46.1723212266416,894.914686962306,-119.181195381169
234.317526255556,-55.9347754690024,640.405280434016,-157.482734813978,786.356474002567,-4.6432736068482,4299.6212175353,-427.713805185158,220.452138980964,-24.2310383669928,334.440325104814,-50.1614253099174,1178.09318189714,22.0876453444278,551.279488084113,-100.250110800172,1954.75098255954,-246.576632617295,73.7988839569827,-5.69811385041432,2083.23414760091,-383.449633075243,1801.30324452239,-333.459675247022,1142.13371866376,20.4581712064948,1690.56524549774,47.0643999385888,882.191043723552,-117.376641021398
234.091235363607,-53.6854653375757,625.652190587744,-152.413099958289,777.18755027772,-5.25515516483841,4263.70633396051,-407.568574621214,216.337459187097,-23.4948556598234,329.029692971321,-47.5314022911086,1165.31749417042,24.4095968975084,546.841300553323,-99.1764218011488,1945.0016447855,-243.489312371811,72.9058949431342,-5.60023805371779,2066.2483680499,-382.568652030416,1785.94014957523,-326.153992851337,1126.65382527759,23.8316916057895,1680.8865917372,48.8827673337649,877.583444420199,-116.294414045099
228.149562924988,-54.8003446484175,625.341106357105,-152.259147501827,776.672101532819,-4.38323673701937,4268.40705397527,-409.449380493377,219.267485306284,-23.9438567395018,333.704445929538,-50.0741648760841,1167.35917587306,24.0506339053094,547.8357002757,-99.5622827643541,1934.9644562999,-240.365938320685,73.4308737752899,-5.74776585418753,2072.11856462167,-380.058971788024,1790.3974700701,-329.723860314757,1137.76716492291,20.6961630150969,1681.64753481268,49.0976849986423,886.601901903281,-118.912286922923
225.140628409944,-48.7878659675498,636.638396686807,-158.244906556287,781.517364654162,-5.73494998895347,4279.9978548662,-415.377802311515,222.855105715432,-24.5517016957652,333.499939368135,-50.5068235859288,1174.36330058449,23.7276744781088,551.198696481254,-100.236148798496,1942.76440632601,-243.855018962104,73.6836532553258,-5.60347838547419,2094.38712331437,-387.860942958495,1796.18215181362,-329.284592967921,1147.41986446616,19.2714286485012,1688.93342761214,47.8434954172642,897.703126794733,-120.336656711729
223.862006346001,-49.2076243749517,637.496834940739,-157.138948183046,777.869602477701,-5.89775641244206,4255.12725481575,-402.883792386508,214.891342472241,-22.7245992991476,331.407048763317,-48.7304782022349,1163.21896297934,24.7874674599967,546.235262837291,-98.6677237983178,1933.45100083764,-240.104719969035,72.7309002431301,-5.46594042637865,2061.27564678051,-378.16428174555,1781.39795203468,-325.851756531192,1128.71971559354,22.7895303689148,1671.47612132375,50.4940699787539,875.728767486792,-114.047513019217
226.933425221864,-51.4242446413334,620.296778484215,-151.855511633283,770.850516367422,-2.31067948716537,4246.22594774297,-397.352467943529,217.207734914996,-23.2255203966979,330.040288355139,-47.6208850191845,1159.90782218679,26.1271297825156,545.684978933668,-98.608661090216,1925.1149733523,-239.736990778825,72.7497747829758,-5.41651664186496,2061.09465718694,-381.252654857659,1771.51829382021,-321.863828331514,1126.60564810382,23.8439228334506,1670.29321583207,51.0065153278385,881.510570283658,-116.593808452399
231.094536000574,-51.4805174655037,630.398863842979,-153.766624851077,777.240036408395,-5.54265687844192,4265.60532582049,-407.857537130094,221.395191845734,-24.1681717319024,331.985027095152,-49.1249206777311,1165.18263548907,26.439477695807,548.343179756737,-98.98943115522,1932.92516526423,-242.323334833066,73.5043565650204,-5.62237750319815,2082.31054483276,-384.711369643514,1784.98173482798,-324.887427945827,1138.91918515985,21.571265664146,1677.81977353494,49.9217700137176,894.2401669748,-118.998165921366
228.145497624121,-50.3176926868964,631.679516780407,-155.88438328608,782.667271916593,-5.52103797619107,4285.59476594326,-419.050057985196,219.920362890377,-23.8887645557215,333.029036714751,-49.1589394827384,1169.01658534029,25.6032422474154,549.398740768283,-99.53382734005,1935.42745038663,-242.664181617848,73.099478802571,-5.55699663896551,2075.64589505587,-382.572855972679,1778.71986169459,-325.698464272342,1126.92996451629,26.3812176316857,1667.72212627276,50.3806012459055,877.490252727802,-115.170294874437
223.13586782,-50.3960997318052,631.144714288197,-160.625807977843,769.352607786294,-1.6312177846107,4234.54698609111,-391.298058743087,213.735165167867,-22.7565404522613,328.904347092232,-47.5422862732827,1153.33083898363,27.5245484828228,543.438512195824,-98.0617836685143,1910.54590548452,-234.976791184252,71.8223048546713,-5.22112278284285,2047.94713529294,-376.435390455274,1760.17529993912,-320.280908297592,1112.46405556555,25.9559628325731,1651.53542792174,52.6039490138914,870.828889989351,-112.666928317797
220.27097613931,-49.67857901692,619.395194309845,-150.269984166903,768.162859184872,-1.68107337530145,4228.22058684036,-386.219520584648,217.237368326955,-23.3474786422097,328.823082777721,-47.5868790425065,1151.15238442082,28.95617934964,543.501032581126,-97.7668905749568,1912.33960254764,-237.70070752455,72.1103025473363,-5.28005652115996,2054.07704198836,-376.335546084503,1761.91161709762,-319.53383094256,1119.80411626818,24.1402449402781,1653.86674789018,52.4840262495527,881.204426563656,-116.302756846593
226.816606663212,-54.5006647397724,617.929107668826,-150.392139829031,773.687528864706,-4.5253109958305,4241.49308434003,-394.275647839789,220.914519397009,-24.3630202641395,329.976774638341,-47.9237717085927,1161.08014909305,25.811389663958,546.84799187112,-98.9869973617786,1915.66895584382,-238.427414632538,72.5829458716893,-5.29812074357609,2072.61680363478,-381.050371329618,1776.34712098846,-326.954290025521,1130.75908123704,23.3952960057931,1660.50632221827,49.9812254168569,891.117400575399,-116.334880744353
218.30542121105,-45.8482441186745,627.774797624862,-153.439380755879,768.758517256903,-2.4390579221261,4238.90470194608,-393.336909786263,213.374085855121,-22.5334748035251,329.029126160143,-47.8545340083736,1155.26052426325,27.2718086044181,544.043233045829,-97.9643645830002,1908.7232893904,-234.69725098511,71.8475313390956,-5.1607482911598,2055.06286281889,-378.762058910379,1763.01530817804,-321.650843927042,1116.03162153777,24.0168780821588,1646.56635505334,53.3273742385438,867.234003046142,-110.818047228189
225.05485462665,-54.5220207706752,617.64996547116,-147.82739819975,764.404668145198,-1.18189949411212,4213.31724752469,-378.514372052741,212.000206354539,-22.4773860350453,326.416050433344,-47.2186521131207,1141.46329372421,29.6279112474085,539.87408252804,-96.8437414889005,1896.26521435393,-233.684332732948,71.1733857486309,-5.1008479611163,2031.53320256714,-372.302387805644,1750.66164084496,-318.026776361298,1101.1879723265,27.8144742680287,1636.86975125392,53.9722656742816,866.47008845116,-112.143139049876
229.356777224522,-54.3695354467989,609.795813308971,-149.277366356895,764.110017418669,-2.08094760473704,4215.09551820661,-378.898028495883,215.713448661778,-22.7059701181822,327.700799323868,-47.9759922024077,1144.28252722379,29.5911785804985,540.864186487748,-97.1364500033573,1892.59751344104,-231.278835409348,71.4154528129426,-5.02698753804049,2042.09462175852,-375.398244587959,1755.91251769372,-318.192174434672,1111.57858986663,28.6011461821991,1641.36429006986,53.6323946721199,874.748879737493,-113.064411637403
221.418306510174,-49.090837206764,600.545629090852,-138.191019293075,767.327058940365,-2.18448764327192,4231.50982388216,-389.114109296728,220.319995072683,-23.8697536460066,330.068793702437,-48.3371083888723,1151.27789009887,28.5731949852255,544.18773394454,-98.1174143624948,1905.57099360579,-235.162022210231,72.1264569971786,-5.31450726813822,2058.68069331479,-377.079552539563,1769.10718348182,-322.697068754519,1119.58293423311,24.9678873118018,1653.9369096676,51.8654380777083,891.911001549179,-116.690779584647
223.576651294213,-54.3414406182416,616.440129255782,-147.24503071272,765.562252751174,-1.32678307714974,4215.65983439339,-378.790051673106,213.219954130925,-22.4337811599908,327.317580845414,-47.1219605054046,1144.20326524075,29.8331073553909,541.80842469663,-97.700170933467,1899.25502607086,-234.752413656246,71.3500967556254,-5.28519568078169,2039.8736592478,-374.443770011242,1761.45270583719,-320.458670499663,1103.30020439234,29.7356327309975,1640.9792957759,53.7963531764465,870.119763837368,-113.459503369144
222.965865846293,-48.0892246275642,609.560055916723,-146.065266580751,761.265479553738,-0.647527819248644,4200.92269815934,-370.36591455972,212.304986468105,-22.1281399481645,325.869241499397,-47.2845860909386,1136.53484265717,30.9027631175121,538.402380574627,-96.6520501260851,1890.84670178203,-230.072349641423,70.9660244915413,-5.20933936167281,2029.20653582439,-369.187820021303,1753.98407698262,-319.032469892862,1097.61313018024,28.5330776148511,1639.62600543116,54.1927840600887,868.597358880164,-111.571759262278
227.212874474509,-53.8933632617968,613.710419003748,-148.165252356216,761.415297997932,-1.74897395097481,4210.51662533496,-376.640307793251,217.876172864479,-23.4627315495733,325.796225881861,-46.8175686253606,1141.83999762003,30.2026968579856,540.481753448713,-97.2116958291305,1896.01772366586,-230.96644634883,71.5023871021327,-5.30254579777289,2047.99536185099,-375.169039436501,1763.63057552186,-319.525422898152,1105.55235062483,28.3660672012403,1647.03135349545,53.8191203213772,879.75800861004,-113.523928437773
222.434775240952,-50.6527124757115,627.53574668395,-152.067678077958,769.798469223387,-2.19310098557445,4235.76644230869,-392.93252488056,221.132971597504,-24.0762151847935,328.895508813796,-48.276303818518,1149.69840649862,29.5971689952316,544.04763392569,-98.0362765534733,1907.14759340593,-234.840031786661,71.9635848788851,-5.30455287300503,2069.69984167136,-379.614775846561,1777.12248750271,-324.994488248102,1118.20465091022,27.1590832537237,1658.41623480001,52.4012764238212,892.108226651237,-116.73221237666
220.127437342638,-49.0726483223796,619.625160598653,-150.246435406928,762.370635906059,0.334622989047503,4205.09007547518,-372.039017603144,213.201908880428,-22.4796101503379,325.96028540949,-47.284899957395,1138.43658498333,31.0612309912788,539.201937981493,-96.1998256197806,1894.9088108076,-231.943544912359,71.1060072705858,-5.27230115628724,2038.94242117711,-372.523751975776,1756.97457523034,-319.970502859996,1094.80965912802,30.9076769022524,1641.83899148587,53.9202961940269,874.009029720408,-111.796642537729
227.091333146555,-51.4478164964103,608.531848084702,-146.383041699891,760.290418000458,-0.277276018161477,4199.4682454288,-369.208906466009,215.742464120331,-23.0251883309743,325.066627542123,-46.834507578956,1137.15817498683,31.7404453178642,539.772556935517,-96.8345276475413,1890.32111658339,-230.09829857209,71.0513741483465,-5.23903213245206,2043.19590827775,-375.445983864965,1760.03458977043,-318.786438203945,1096.02046465608,30.1557367704588,1641.25455879904,55.1892956969624,879.533346268055,-115.797364232681
217.93456696322,-46.1815513913019,610.62688828946,-143.908055423694,764.118861308209,-1.88144411443703,4220.90055047137,-383.20745212777,220.018731258946,-23.9899390341404,326.879504697904,-47.4637615040797,1144.38437357208,30.2974462962237,541.820670953002,-97.0581459849741,1898.17578905942,-229.705712569646,71.5151365969687,-5.29846757141135,2057.66796364642,-376.111465893236,1775.34591819691,-323.554986645873,1109.39035188086,27.5931523359522,1653.2952659892,52.5834045723084,891.042044060987,-117.62690519155
224.349245473679,-50.1392515367516,621.563383585887,-152.179049218826,766.054260741285,-1.50936218489516,4214.97776645447,-378.037569833862,214.275205920371,-22.6080444240848,327.277425296938,-47.8221617194297,1140.22155929345,32.0076101803854,540.723405295757,-96.7463821166693,1897.04506760949,-229.168078144646,70.7886756048998,-4.98729265603439,2046.22387346789,-376.237101505728,1771.10457924995,-323.82327076279,1093.15211931116,31.5466606009185,1643.32459215214,54.3981129718011,873.001935624839,-113.603517210609
221.666324675354,-46.8824155804718,614.892131728618,-147.540385357798,760.45339092122,-1.45282082404598,4194.83276518717,-365.565878545025,212.697378657523,-22.1992189319735,324.336909830506,-45.5070200917135,1133.22213516804,31.6188336275242,538.347329072225,-96.256749828895,1884.71040529557,-226.573382634237,70.4789438041538,-5.06193016977881,2034.15138071222,-370.076034504395,1765.114212214,-323.034442355598,1087.13903850682,32.1577299677036,1637.26594932714,54.4221998127124,875.730435051072,-114.04232229809
219.96032657305,-51.7444586546919,598.733393669564,-147.904048741505,760.957967289033,-0.18095179813262,4200.09021412643,-369.903412217029,216.986717693622,-23.2552317085878,325.494730057018,-46.2127513846868,1134.34559534655,33.2342033566513,539.022635090822,-96.2836488905548,1884.9022551237,-227.629218275819,70.7131339993318,-5.08910162216764,2043.49774268372,-373.200921616516,1765.19140948101,-319.728023946664,1093.48615537148,32.8454054686097,1641.79666119831,54.3601462495788,878.612310390387,-112.523835565478
215.027077030421,-44.5529509895109,609.442106710381,-147.381754758041,764.903375692616,-1.1038860763859,4213.95414930203,-377.294220571744,220.40425528109,-24.0838249474146,326.60476928963,-46.6741098466073,1141.40670392584,32.5915390125029,542.904782084849,-97.2935995496215,1892.58516233844,-228.094505199776,71.393062224118,-5.31763226327959,2064.21361755555,-379.813472792893,1776.89126537492,-326.663310305231,1094.86576944883,32.2501388424831,1643.69629298166,53.3482479897383,874.740242452467,-113.884559739068
218.241805519932,-46.4417446242603,601.254899271351,-147.522389823534,755.781656741124,-0.539088629269589,4185.45580791577,-362.194889957206,210.412797814598,-21.9653735360151,322.640249983114,-46.4317164267629,1123.07904911454,34.5695488723403,535.219157582283,-95.3021659256449,1869.22518293842,-221.889782276641,69.7241276679233,-4.82579740062073,2017.84239715271,-367.001700637042,1757.90607247754,-319.428915248651,1070.36902309951,37.9245485557929,1627.66528908023,56.4524339803204,864.728871128034,-110.715379826629
230.462130145691,-56.8409664286729,607.091388436749,-152.758002354082,750.833640441305,1.95563524679363,4173.57579671599,-354.984031101974,211.95156053867,-21.7523857989289,320.093704289624,-44.6878521590064,1120.12292039983,36.1278354295951,534.890815665196,-95.4521676010747,1877.27161603865,-228.116374935537,69.7607004068471,-4.71955601837908,2026.57048703649,-370.304271833594,1762.68386148916,-322.152138077193,1072.85244349064,37.2436784047504,1632.58327198717,56.0322376466565,874.573431878504,-114.075500011384
220.754536155858,-49.6602543912102,602.638499358334,-145.962137352839,757.51403025769,0.649216314433949,4192.5014007204,-366.441290403906,216.656319425575,-22.9529011756732,323.065559073718,-46.6726070078319,1126.86994867715,35.1362958207797,538.411651947962,-96.7175536888443,1882.30974980678,-226.808373039058,70.2135734375774,-4.85814591284286,2045.98307891543,-374.634731228917,1769.90527945335,-321.021934929837,1082.74951975703,36.5427737165008,1643.57059064796,53.1480203733505,879.396343696862,-111.316334068814
227.501301807985,-54.7701482087547,600.056327528636,-146.960239661894,754.0372702079,-0.334568601871913,4179.7905167746,-358.924760669682,209.23276715319,-21.5534541323892,322.620769874323,-46.1631476562398,1118.70312221355,35.9205319062523,534.394827375612,-94.9642691798132,1876.33825831927,-225.809213811467,69.383601650811,-4.79323757426942,2019.91362231317,-367.436217899288,1766.19257530032,-324.995301965052,1065.11407296882,37.9638911356499,1630.43938023339,55.6407657944022,862.114376198449,-109.184289798331
216.254203898027,-49.2032795194711,603.431440339537,-145.138629150179,744.282126489519,3.40620852081326,4156.73010692897,-344.058370594659,209.474364756579,-21.3825691677282,320.857100876904,-45.7484131156794,1109.40273332185,38.8831699032319,532.04620205718,-94.6076036493593,1864.51467780706,-220.42067580687,69.0077813425298,-4.7071495613572,2009.27433326157,-363.659955812857,1762.43272178766,-319.841065614644,1057.19644301095,40.3244630506128,1630.69228339059,56.6051823048875,869.236628534748,-109.675903083093
217.360938421147,-48.9352209944862,595.363363226037,-145.458851995874,752.7420768928,-0.144829195862137,4172.39438591543,-354.020536702564,214.141688312105,-22.3577440650528,321.303211244551,-45.5319927865219,1113.53351993672,38.9594218569233,533.640228023139,-94.8203967047833,1871.06108654331,-221.882249481687,70.0002720939636,-5.02345300248358,2026.7488088562,-367.043609007545,1769.08983640173,-319.974418258436,1067.91413995797,39.3192872817761,1641.45774095614,54.6983608735453,878.212154166938,-111.433827533271
217.129175422457,-50.5556809957882,591.82158305847,-137.801432323186,756.734721224525,-0.793815951092896,4193.58737346336,-366.220605191902,213.867684702691,-22.138315473309,319.700614001281,-44.3341744792762,1118.01425452858,38.033902507996,535.32664547249,-95.4175401682181,1883.90859473808,-224.372192062259,69.538219053948,-4.67966100144289,2022.74880092582,-364.096931329942,1777.6283366929,-325.693142071979,1060.85141341549,41.7656321305052,1641.07670148493,54.7617693573193,870.09204348132,-110.624181035788
219.144266013381,-51.37843069762,596.584467208507,-144.729232484706,747.088698539077,2.04463623364512,4156.36451201438,-344.536486411021,208.858906547604,-21.0722515060572,319.742466263072,-44.3471178359111,1105.29980379329,40.3652522228889,531.027800234436,-94.0600063963015,1870.66668137259,-223.275659187445,68.675422395653,-4.56986763318722,2010.92646578538,-363.383853634054,1773.57145316313,-323.282632578907,1049.08063907781,43.5526089665975,1638.21116296407,54.7472248494785,864.085617374535,-108.415688422155
214.802777873886,-49.5481696741818,599.932833059972,-142.598906252384,746.940007037948,2.89028837506907,4163.07006449798,-348.27439969924,212.318584633204,-21.7807501536599,318.221510102344,-44.316418574911,1107.51382883892,40.6593873122154,532.246683275232,-94.4946629275641,1876.89189291645,-222.16589752567,69.0048906034155,-4.55948242989389,2022.01752393853,-365.820193086497,1785.51725413152,-325.767146624969,1060.22045481954,43.5722893890785,1644.70274577121,55.5099323964433,879.458291460595,-113.341738055459
216.174674392461,-47.643053768233,591.699383361193,-143.056422990392,749.984957325253,3.39635537752322,4175.55037483386,-353.787687149361,216.157138171319,-22.4691145183706,319.35498372921,-43.5681799714444,1116.72744303676,39.0075968430993,536.48059598947,-95.8085157513397,1890.44073369837,-229.51875228488,69.7883304736089,-4.76573238188816,2039.87331032493,-369.006038388847,1798.0789289086,-331.733696946728,1065.23911745402,43.0246108962136,1652.5995631235,52.7783938175626,877.544737924131,-111.727050963113
224.677781821693,-51.7015770861895,591.9245801865,-142.140827180016,743.342866608851,2.59968138035908,4156.35164513086,-345.349177537686,207.487523705735,-20.5177814995281,318.195616756828,-44.260391060576,1101.54028757994,41.4684207699183,530.180668109853,-93.8097848369898,1878.40364173199,-224.528305560238,68.7230536964777,-4.54305200652558,2007.26345318199,-360.434243493819,1787.03815659153,-326.882107051651,1048.85893598495,44.0843447624357,1644.43340500734,53.2601276321337,867.458298131243,-108.961547735323
208.969590790894,-42.4694474141399,590.525342752373,-143.551571054747,742.543487810548,3.37818122299891,4150.21334494285,-340.051979795219,210.740204752552,-21.4469564465586,315.831920544194,-43.6148447296527,1100.32744862494,42.9490598822389,530.562989482322,-93.6210382388133,1875.22566925951,-222.972790243892,69.1029915110088,-4.67021866816081,2012.23090992753,-362.122140125477,1788.59866746137,-328.442737521497,1052.81552441789,45.405828087837,1647.99944952476,54.4983194836543,878.50941478168,-113.489880350063
218.225995181618,-48.8484884060785,585.978450968548,-139.694439264967,748.4100436601,1.27479981483182,4170.58354914017,-353.022936626819,214.470305548326,-22.0308730088235,319.425583874969,-44.1607953329158,1108.21071880987,42.01437713468,533.906946366635,-94.5799771217684,1884.96344215359,-224.01775045552,69.3665503456317,-4.5937425851608,2034.99419427187,-368.008055190103,1799.98786874553,-331.557432202293,1062.72917819417,43.847885852783,1662.26014651334,51.4104848348257,889.890098371442,-115.094777900447
213.794667491139,-43.6906203408882,589.605318629863,-140.22888228612,745.37516275043,2.46631972044566,4140.42376457572,-333.131952146325,206.809806748342,-20.5759596875846,317.639330988698,-44.198355184416,1098.86000551012,42.8273186767875,529.722400810177,-93.5060773539431,1882.95700703488,-223.788519756741,68.9081806608525,-4.62646328291368,1999.0929767708,-354.645752445219,1795.29632789811,-329.80888827489,1042.39318975099,49.1624462819977,1647.57115269347,53.9177693025303,871.594083870246,-112.878085491719
218.192211218828,-54.6565492621158,581.447103275072,-146.571632673014,739.45175559658,3.82800010212501,4137.64919372029,-332.905193667581,207.033780169858,-20.5777674458769,316.666685189576,-43.6594982196351,1094.77836144929,43.5306967058791,528.127071704067,-92.9870503164776,1880.62283464481,-224.079488286829,68.7365065047216,-4.64194974561718,2004.42110847451,-360.383762167902,1792.08275489359,-327.440790364618,1043.64389592181,46.3979564071265,1651.54251693643,53.2022193834377,872.988542755637,-111.260189436268
218.939715066874,-52.5760562435205,594.192864266353,-145.510717810693,742.585240156255,3.07254342589387,4151.9136342343,-341.623436659787,211.606388195565,-21.4454415287499,316.522734619715,-42.9923855429389,1097.62189758428,44.8451837447057,529.862961133914,-93.240390872336,1883.38950010533,-222.488870171652,69.2884481090653,-4.65126201846104,2017.33360599108,-364.354236204098,1801.70706238858,-329.774632702692,1054.72777674253,44.3766236599253,1660.75191399761,51.610033352537,883.690223897664,-114.949942114847
216.243315689739,-46.8995881045144,587.838890453588,-147.18603401963,743.499275700035,3.69695510927354,4153.67771786862,-342.602346978492,206.163349607325,-20.4684509658947,318.433872210913,-44.3755830433666,1096.58543393311,44.323117328404,529.865087613899,-93.6201144552396,1885.1376783307,-224.575601258442,69.0177362284571,-4.64675025730544,2006.86302826818,-361.829324918838,1795.54187179922,-327.689253101188,1041.17928777618,49.2908947206826,1654.45046698548,52.864954733052,868.368869010713,-108.818558011576
210.202732852913,-44.5161304184886,570.56111908241,-132.883570426165,735.576422947496,4.30472884922273,4127.05040378015,-326.8294410818,203.427221123154,-19.4705953822557,313.034316698339,-42.1870097746542,1083.84352059001,46.2582546870591,524.757028600387,-92.0781718870576,1874.3557762014,-221.137290440601,68.3655803352843,-4.41646066464851,1985.90239936181,-353.564357534176,1790.92080966378,-329.112190102288,1035.07842439705,49.7033550419542,1649.4831862877,53.4587474748955,864.900620119628,-107.852387353945
213.170264672869,-46.0609738902101,591.401818833899,-143.338359797839,731.007955229378,8.50683023139235,4131.37047251555,-329.602358557344,208.27750176051,-20.6039270444162,315.084843764026,-43.2398442286004,1087.79174328184,46.4395311262714,527.606335896027,-93.3000651644271,1877.8633641623,-222.799832508149,68.7714690845137,-4.33163371992658,2002.56684431072,-358.912209085599,1792.63559985297,-329.638571855975,1045.17326645015,48.4884097917321,1656.73303299907,52.3603093251383,875.326639017759,-110.44175375629
226.509996672684,-56.156958411475,577.734212669427,-127.207951431545,743.100479768869,1.70675296004124,4147.25824299342,-338.035805768549,213.293115226932,-21.6991779918542,316.408870095334,-43.1461305037217,1096.42997204782,45.6734208851419,530.905767131916,-93.5213399600014,1890.98412606766,-225.758499577315,69.811119363664,-4.7775048965225,2020.2165461459,-364.444444590335,1811.07330191743,-334.161938096716,1049.34622358805,48.189310475667,1663.41887681302,52.270667480672,876.710156287008,-113.690355905357
209.289211059458,-48.7815735979606,584.285818923702,-139.137332583097,731.886942553281,4.46388000129304,4124.18532194562,-324.999676860985,204.040255321851,-19.4150827515242,314.101285349899,-43.9047660404607,1081.17117279587,48.0420352332237,524.219687133669,-91.8652735835642,1881.42698156605,-221.890337529494,68.6423569968394,-4.37820980796905,1988.67507012248,-355.901390979824,1792.68082325927,-328.857060620971,1036.19504732598,50.3546608371794,1655.20256199775,54.1168121142711,863.975553426098,-108.377039229162
212.317582300111,-47.1362310106529,583.998357650009,-140.213508103666,731.2845711096,4.5677585999954,4127.0367054153,-327.057149491028,207.707257713198,-20.41679515885,313.105470754251,-43.2640878466946,1081.67435867373,48.7861022750505,524.885317304602,-91.4077509548802,1883.11511479072,-225.057026434442,68.6508704913684,-4.25407570858514,1996.53119710596,-357.71575679771,1800.72484693935,-332.295383639808,1044.00856755896,49.0638950806714,1663.35243276635,52.0201800088038,873.106254284294,-109.812723885384
224.565913429655,-57.0463249250258,577.943261566911,-134.959762863772,740.915852128475,1.8915345217801,4139.66373107294,-333.775018354788,211.870780109557,-21.3663492404989,314.7443206722,-43.2898520494197,1090.8457840793,46.7968728619388,529.008862983166,-92.6550834541059,1897.81087862945,-226.470206092263,69.5690202504971,-4.57698987366256,2017.70036298269,-364.996775662108,1807.87539918996,-332.841951308113,1054.65618032492,50.8155412672519,1672.25953496345,51.0786486049013,885.298786345712,-113.966773341838
208.296240738409,-42.9579072483741,590.41207424362,-142.762499362441,733.318374224634,3.67837191786696,4126.50490664557,-326.538363071614,204.305221132298,-19.7442240031594,313.410231530008,-43.222852251244,1081.45080616815,48.4857013809645,525.601868934623,-92.3414234845698,1884.18441450365,-221.410910151973,69.1410762720561,-4.57942393976735,1994.08706959077,-356.976298353832,1799.12641366482,-329.664521234913,1037.31295275296,52.4928185667781,1662.57338288859,51.4596104016446,866.77748655203,-109.24160612389
216.560869608216,-49.1848782984892,581.168924385937,-140.725491696373,731.404984805584,4.08211058273305,4125.71101516626,-326.042601475708,207.313953006658,-20.1524370932911,311.003879022941,-41.2755261911546,1083.12944220782,48.276935836511,526.965493428682,-92.8944775501016,1888.46595875094,-225.167557885204,69.2035966300914,-4.46595588697104,1993.93660126187,-353.462116324983,1803.65312194484,-330.007106447305,1046.41643956648,50.6820765457526,1668.1057504913,51.2971804837238,875.936252603593,-111.549533417726
208.747930735791,-44.0194665054474,596.653616376844,-145.618054390342,734.28304048513,5.86654134630539,4142.27676202043,-335.12250197908,212.456083737766,-21.6922902418963,315.627296342736,-44.3633131740191,1093.33804773125,46.8001644544129,530.624814734117,-93.4369520033414,1901.26551147798,-225.547052577615,70.0151512153202,-4.63789605896097,2021.162686862,-365.143230754701,1812.42721795043,-334.326248847642,1059.88832967279,49.5635922838866,1678.38375368651,49.1005422919876,885.868857254667,-115.905474101459
212.826732198816,-48.1007841684847,584.87070507322,-140.52035985699,733.572184415518,4.7280484835522,4140.61126753619,-335.160111324026,204.972997136863,-19.5081332241637,314.567211158864,-44.01978655125,1086.57260245962,48.2228672311062,528.227144006161,-93.086698152562,1894.94494627411,-226.236085875778,69.4426055126994,-4.53381989671911,1994.5654398499,-355.177149195043,1807.74586537442,-333.064323494047,1048.65238556853,50.3962338146888,1668.55839833753,50.2174441708576,871.428345592995,-109.317664283443
214.49866102774,-45.6959652394518,588.207338142415,-146.438545854193,731.92105145225,4.39267993697427,4133.30533700604,-330.599916618003,206.591283775337,-20.1731925033912,314.159324389026,-43.1699563458923,1082.6929425102,49.6490132011199,527.593790140731,-92.7640711020368,1890.31028710024,-223.294905529867,69.6093711224527,-4.6903008723448,1999.39496286847,-356.693661148721,1805.18384756858,-332.210913813046,1053.35242968598,49.9064897238954,1669.57656511778,50.9534803698856,875.810966647285,-111.598636013063
211.722186360669,-44.6565549329771,578.164089479955,-132.428555116113,735.254442678888,4.42558191200368,4146.69016889389,-337.241371170524,212.482864687097,-21.6946076080692,315.893159289353,-43.9433164527871,1094.11285356243,47.1963948064347,530.656117342285,-93.5181757013314,1901.03925983369,-226.397247107525,69.933529570562,-4.59104812551617,2018.32142527526,-362.663144777236,1812.40851715662,-332.780310337702,1072.44627826982,43.8785721426838,1679.24980337902,49.4008336101731,888.459921851161,-115.866007533227
222.222893383611,-54.7676869624512,598.851227854739,-145.860476705212,738.284983587133,3.41473235088944,4152.1774218213,-340.58771721491,206.716154011348,-20.2711500991055,315.971565263951,-43.6206948754164,1092.9885222571,47.9710407750663,530.867676323195,-93.501713921673,1911.08000472557,-229.533119799871,69.8275049066379,-4.68414440560567,2010.46815073042,-362.015727166268,1813.10590357539,-337.722237013365,1064.29003395094,46.9747426281798,1673.49258319544,50.6105090515308,875.731637364817,-110.775490488111
219.925638822307,-49.4328437081084,596.010001779691,-147.221788022906,733.290511611187,2.74495836396593,4135.05852620095,-329.728628915425,206.400575020496,-20.154441169226,313.356454694732,-42.3598263987755,1087.9383601739,48.4253236173207,529.744463575805,-93.0400721671186,1901.20820862674,-226.14473149446,69.9097567255756,-4.76065402620296,1998.68480562134,-356.815845341282,1806.24833198597,-331.944941416835,1059.59927321017,46.2575577950859,1668.00387928932,51.9450564584777,877.120347575676,-112.360212713829
226.154278389385,-53.7435286328852,587.460744430853,-138.794981421222,736.177769505645,5.12895312334969,4147.18277370997,-337.545561226426,211.723351853039,-20.9352226095155,315.852078369345,-41.9149018818876,1097.68474013229,45.9701021052274,533.295552227337,-94.2787975010335,1907.86556061166,-226.703024874742,70.3466854154206,-4.81623209614864,2019.41241434375,-363.455110603819,1814.92298744403,-335.401950162059,1073.95613356073,44.3233388686825,1676.98434785595,50.5992278763327,883.05388423862,-112.20095224272
220.509767184783,-49.5963224930538,601.723528298373,-142.919679189633,741.724055712823,3.45366223786713,4167.4987959594,-347.876142874661,216.060029900259,-22.4151031722782,318.112881516149,-43.5031279412647,1107.96123092231,44.9512241740271,536.762969612483,-94.7963139833047,1925.86360659366,-232.736574696542,70.8345165542633,-4.97597685258248,2030.62533776702,-365.246082475034,1819.05937080311,-336.317926484768,1079.05917854715,43.6925438732811,1680.14323343999,49.0634976912893,881.619040661063,-113.793923379149
210.52682570524,-46.3485648894267,599.208122279794,-145.079920441288,732.2219715154,6.05545814628603,4145.5609981763,-335.417486001018,207.554693983467,-20.3046661559743,318.497111859008,-44.4002807843174,1095.4710289713,46.9072802681543,532.523394486667,-93.6593548073704,1909.45946357022,-225.011019769526,69.8278667691327,-4.4993819649203,2008.82037351181,-359.800642065012,1810.31332024033,-334.679598879946,1068.45033411985,46.0038582243721,1672.97641341472,49.425508347928,872.466352317545,-110.759937970976
215.892125410734,-49.2239919687974,601.341026596735,-144.370829612338,734.690606633873,6.91921260583998,4152.62184345875,-339.991741013766,211.60801444729,-21.3331412932636,317.048445262311,-43.4588250922827,1099.71122982143,47.2355991669978,534.675563851271,-94.2671774052356,1918.70478534355,-231.934110531394,70.3233798282367,-4.61057027909198,2023.09523128923,-363.471451251824,1811.52341543403,-332.44329908642,1083.12928327979,42.4269593039827,1680.0481500136,49.5395117310409,884.23809127198,-113.238177206565
214.526404293063,-48.6975125529349,603.320005424778,-145.958559392652,746.366803205329,2.78641498847106,4172.76594456259,-350.786865936179,215.597111203052,-21.956656487357,319.913789849262,-43.7166460747275,1110.34032651664,46.1192236232263,538.933665783855,-95.6761736658516,1929.33037700015,-233.387154436265,71.2505312693389,-4.71768254820926,2041.7944831534,-367.117491814489,1826.97210631029,-339.119857314109,1094.96020862704,41.6683562901456,1690.66243066217,47.923235036398,891.446350654561,-114.589847887109
222.020131815967,-50.0589688141287,603.973156934435,-143.243942439704,741.813157528965,1.56306997390221,4164.26669693007,-348.070440386821,207.699513494804,-20.5520776463629,318.151715199366,-44.211511063706,1103.12628539221,46.6608111024502,535.015259046666,-94.411795614644,1922.87524957934,-229.677715168598,70.5318587652917,-4.77252224568806,2017.57947357147,-362.450555848557,1809.88940236946,-331.763622343288,1084.90512563929,42.0720393151391,1679.80085829764,48.8765470411034,876.385373546846,-113.202679408606
222.915404813033,-51.0438521247659,586.556832698638,-138.50931278377,741.906367303649,3.75373554708158,4163.10888135093,-345.873635437191,210.945323015136,-21.158471215388,318.369392867285,-44.1540927446713,1105.92436392075,45.6454835212835,536.7280213148,-95.0679835177333,1923.37379321147,-229.820914387489,70.8287891124657,-4.92440884315021,2031.28457221608,-366.980345532733,1817.31970051912,-335.569344026437,1089.30259223953,41.8484413226476,1683.30753029091,48.5652912966,882.713510031498,-113.489201183884
209.956143914721,-42.1929058494605,605.111013873122,-147.662400784144,751.61341472503,-0.169525279178665,4182.39556695375,-357.001974492423,215.374676835508,-22.0014659892796,321.848538720271,-44.8701427181083,1114.92292983699,45.1805605354639,540.627095295858,-96.2816164576271,1933.33594095244,-232.466543710287,71.2203908179888,-4.87000431644583,2053.8039232227,-372.742403092852,1826.21433207252,-337.936287441654,1105.68991925518,37.9359706392959,1693.37401273454,46.8080520663212,891.619760078391,-115.509906290903
226.182455818465,-51.9715819922166,609.163401948189,-152.595025558033,751.396487237985,2.76338768498852,4178.21979329309,-354.105170388866,210.175235127717,-21.0976585536332,321.320146871332,-44.1145034514786,1114.75222063115,44.9884953511372,539.187522158866,-95.6527008923819,1936.24434808135,-232.224651878117,71.1485097566379,-4.97352424536699,2040.23771879388,-371.027294422606,1813.26256952656,-333.058600169456,1097.53295857887,39.9510925658059,1686.34129044473,47.4132150007208,881.035899469707,-111.216613147365
217.509861317046,-50.6699645409983,609.406304615135,-144.870764057527,747.330119807275,4.48367058799508,4175.2766182078,-354.008278314352,210.664104061604,-20.9447808247394,321.210582501278,-43.9369091299215,1113.32337048922,44.6267525556517,538.603249470944,-95.230085994522,1941.57889113914,-235.718616050689,70.9003593920818,-4.74064462314476,2041.08691014468,-372.084773233284,1820.06364089797,-337.056996100441,1102.51973104754,36.4206249125809,1691.29992799397,48.3545959489054,886.151417030774,-114.06947706611
226.644482810112,-51.5504169964889,606.678518759765,-147.139541683864,758.205772067789,-0.238432697438054,4194.60540010519,-364.687317224183,216.681454475057,-22.6632950252961,322.829790113317,-43.85614196876,1122.46227820584,43.8731177553822,541.76066616016,-96.1277705010265,1946.0461318242,-234.85446194666,71.7135537040606,-5.08800742397357,2061.80820336451,-374.333458137026,1831.59899797403,-341.013012123515,1113.49169241821,36.7006524907938,1704.98736892741,44.9884291441188,893.070740022982,-114.36422262318
230.047550743477,-54.3386680053587,609.093160955243,-136.822404028346,758.09342201386,1.97010540805502,4200.86534970416,-367.518926157391,212.853896753543,-21.7539118959367,324.916425098815,-45.1743874999765,1125.63445134515,42.5459810437877,542.426559614864,-96.5546724854066,1957.33382649821,-236.603951009196,71.5879594213174,-4.97848426513985,2068.07121793151,-376.886098135036,1828.69167740878,-336.235326568636,1113.33273878814,35.7870351277784,1702.66408696422,46.1883738414343,881.316478392434,-112.725110448878
220.058571004825,-44.3748055696328,600.250221000358,-139.134667546727,754.51612841687,1.45569246691105,4188.00832675558,-359.508232513504,212.897531299828,-21.8744370226575,323.337658055072,-45.188131985775,1121.867879443,43.3965651305461,541.836337728007,-96.29537968769,1955.47781944318,-237.078253469167,71.4316037508804,-4.89119489732031,2062.91830525363,-375.548311148467,1832.40940450001,-339.851612761247,1116.20585558128,33.8528276170656,1702.05582274154,46.4458480836418,883.450178370916,-112.866328812198
228.908563306411,-53.9843462079678,604.947022704908,-147.070185628792,760.032812758583,1.59812590769357,4200.0631207234,-367.160054997676,216.893276652486,-22.4305473721559,327.403656762635,-46.3184991514598,1130.41212660721,42.0646355418382,544.636498674136,-96.6509387500972,1960.88690666098,-239.475355934085,71.9735422024231,-4.99682578622616,2086.2869885309,-382.313080286425,1840.48737602529,-342.570809329241,1132.47225128099,30.9984371229787,1712.87873245925,43.4652097206588,893.503827102351,-116.71127793016
218.152204338873,-52.0873734218668,615.356404191916,-147.515316542103,765.799288124236,-2.253872308996,4202.81010478513,-368.885519967827,212.358560014948,-21.9664456484744,326.657867685883,-45.7448530404981,1128.52431295781,42.3133645417392,543.499721899105,-96.3640690495272,1966.31247649877,-240.276352752169,71.6554690177346,-4.94974527090757,2078.87931650957,-383.15443838203,1831.48582962834,-337.551158212663,1126.8800302942,31.3845121299839,1706.75681165101,43.8567219857009,876.085818501782,-111.998283846474
223.317729814708,-52.7544758654082,603.855441665865,-141.541229890617,759.317208829053,1.1225880131256,4196.86987702839,-366.259549837488,212.451909228507,-21.8118776792104,326.461006364018,-45.9321485722694,1127.73601945565,42.0613199549854,543.27884410143,-96.7563575068837,1960.77181109163,-238.561967129881,71.9751317809219,-5.11696591223682,2082.23321186618,-384.655740069398,1833.69323686149,-340.804445273682,1133.8719749286,27.8745420343812,1706.14461929986,44.2017972265736,882.375454739404,-115.112715608995
226.847188431481,-52.6357826533333,614.749404540013,-146.649645783478,766.481448935406,-1.93432952402822,4216.60880779483,-378.034343019623,217.598753011794,-22.6575630954591,327.707582948669,-45.9432149305249,1136.0124795013,41.6781381822748,546.229009902244,-97.2648777331829,1967.37307715057,-239.814007577921,72.473516029175,-5.1591027675861,2097.73524434064,-388.099186597234,1844.3527473114,-342.864278804952,1142.95261075766,27.2847727482761,1715.00729177051,43.3518857092814,892.057164900199,-117.097035181838
224.986601409063,-52.5107320336719,609.158676497577,-148.801370772014,763.506163131311,0.0393615851830911,4205.508273433,-371.324981236877,210.364663024459,-21.3420821985669,327.029878844124,-45.6968853516456,1129.92091889762,41.9834322936025,543.263136928617,-96.4745301704311,1962.83477813031,-238.795904328868,71.8422151282266,-5.12464465869624,2082.64942487203,-385.63564515201,1830.72796716509,-338.313177103873,1133.88902839517,29.1936915359726,1707.64420557602,43.491117048452,875.881430985849,-113.076741713194
227.767549502898,-51.8452040988605,608.2695330235,-148.681501175746,761.400513247651,-0.409512316769129,4200.46850193756,-368.197388545286,211.743939302489,-21.6848909754142,325.027054040604,-45.3707740410992,1128.42928513025,41.6608657743504,542.523718061441,-96.482541293566,1958.70498437214,-241.812885134454,71.6303557049781,-5.19658198686479,2073.86328374429,-380.176467784721,1829.42692820711,-336.872483597454,1129.96639075154,29.8165361877318,1704.06768995774,44.9202393906124,880.271664261686,-114.607311572845
233.53257690518,-53.5490405466169,614.421911147886,-146.788742429042,766.792100133282,0.50810380217576,4211.7160713031,-373.891885669219,217.509821566866,-23.1545041254692,328.57727421716,-45.7348655447353,1136.32039907753,40.7873812345834,544.706511647693,-96.8149951327566,1962.96077333239,-241.172051504098,72.4380766865346,-5.20117227507743,2094.26280703608,-386.906222716114,1835.26970972864,-341.998605754165,1146.56281563152,26.1709524810094,1712.69585577855,42.4016614600375,888.106758462876,-116.056197364608
229.857931814125,-55.8130127807117,622.531961510174,-156.651888440075,765.221440578607,1.00259086851867,4199.18709214427,-366.501363907473,209.715576781212,-21.1605091015835,327.973543510319,-45.9562564238787,1130.81116700635,41.1659964407965,542.362192360433,-96.3182716881337,1953.88005316484,-238.782844020632,71.5948533389211,-5.10747177291016,2073.8383257658,-380.259845249948,1817.34066539569,-336.512794218599,1131.92569968575,30.6089677744962,1698.99490586035,44.531782660025,870.650978422496,-110.457736206404
231.936764709512,-56.8640880032595,606.378480946276,-141.284020769758,765.8549815301,-1.12272624719643,4197.81107366004,-365.409048750799,211.856383602405,-21.7555631454416,327.158332856353,-46.3225469169593,1130.10173327054,40.9814990289287,541.594925612071,-96.3206302264788,1948.67873729259,-237.735021167325,71.6516596320249,-5.04265341325625,2068.08846619998,-379.501374886437,1812.2586606128,-334.272139401031,1132.01547657714,29.9229655855353,1699.46395390959,42.5243497697698,874.665580067363,-109.782157752229
228.331570559487,-47.3597915349576,614.956698503536,-144.110878937569,771.656803288786,-2.61101680079396,4213.4588645523,-375.008213699529,217.743116815351,-22.9264081098049,329.477320182002,-46.4736468900496,1137.39507380379,40.393942410374,545.114283912011,-97.2104467581295,1957.82013050164,-238.680041638262,71.9247168649765,-5.07215586498752,2094.60880660785,-388.504039730526,1823.35389112792,-336.347791262146,1148.87599482702,23.6270587285987,1712.67352411418,41.8871190149197,885.489791144525,-112.721333115288
231.040563291636,-54.4633231849317,626.472701851552,-149.290492036645,771.242323242877,-2.03935251954769,4209.65098984119,-373.295877191584,212.782167140347,-22.0719203012563,329.80500608017,-46.3290478866286,1136.69910148695,40.2413741544306,543.179544740068,-96.6627565268547,1961.8050917081,-239.5294425222,71.864520651526,-5.09627948597506,2079.49614061737,-383.939793610433,1824.90407198668,-339.335404926974,1138.32228844615,26.8229103404882,1705.34842563472,43.6465192371267,874.310472820036,-109.445105602059
226.575945111339,-51.848156642649,618.687273019501,-155.043285509488,769.012834050728,-0.886869009130299,4210.33291570233,-374.061046752002,214.546213199045,-22.4953008379224,331.070978525697,-47.5401232031602,1136.81999612164,39.5188906014268,543.49672656086,-96.9937431643303,1964.2137007354,-241.670540496099,71.8164630851133,-5.10979650099457,2086.67797968228,-385.733910732755,1819.62762411006,-336.383137706565,1139.80041683389,28.0002600681607,1710.0594620808,42.8177419696769,877.656241261684,-110.804743064075
229.445502051425,-50.8951915790048,612.937304045582,-152.460064198596,779.582251293096,-5.09018186563352,4226.32507751346,-383.367513188163,219.338832781736,-23.3759864178852,330.229781726081,-46.3610684655448,1144.58103026069,37.995966032208,546.240237106453,-97.4785632158905,1967.36712152173,-240.571506738491,72.5010842995055,-5.31632566030276,2107.49863724766,-393.139328890341,1831.04157826519,-338.494049452275,1153.0961122107,23.4922115669536,1719.24041521815,41.8107426681613,890.146417350339,-116.156188307726
226.611123176065,-51.6525728814081,623.435129959349,-146.827958364089,773.755808111088,-1.72306707316427,4218.7384797048,-378.959260335888,214.125119441173,-22.5186759978975,328.751651852254,-45.6985211774346,1143.13276807757,38.0562085548092,544.743461452822,-97.0782609087651,1967.60088600864,-244.378450716145,72.3786090623885,-5.27432077403545,2084.78551613329,-384.689375717153,1827.17397789705,-339.950731131473,1141.55518751328,29.0702847229357,1710.48193440808,42.2615451354184,881.809292702514,-114.335299921404
232.109143076465,-54.9894295954157,618.630869881486,-151.958998406792,774.463248348822,-1.46181804916196,4217.02861991104,-377.243360614773,216.12430300402,-22.8388648923669,332.940333341888,-47.9798680682949,1144.5750958183,37.6655448986084,545.256482626446,-97.6036568177526,1961.97818677111,-238.50750509933,72.2393316308207,-5.2301918399406,2087.88483321695,-385.88069277073,1825.01141409716,-339.457791233034,1147.22405907776,26.2069151031591,1710.26483318019,42.1795189170421,884.878655669047,-112.862293107619
227.277984820387,-51.4842509184867,621.260086447944,-152.060839079324,780.571991541665,-3.32947365493704,4238.26871002073,-389.243762286583,220.9631011697,-24.1764195268619,331.137169172727,-46.3160572789809,1152.9627276929,37.3104308228579,547.396136136022,-97.1147184583122,1966.6636479976,-244.270414375428,72.8563681027647,-5.29486377935275,2113.0211902238,-395.028560634455,1832.35619376827,-341.24171000303,1152.09473736915,25.9747035153945,1713.90416724462,40.3320417536716,885.959888865087,-114.901100631836
226.159526638512,-55.4253457528113,616.301300566297,-152.020409993455,777.466917106601,-2.81739618975322,4217.3332644867,-377.968686239821,214.150642174373,-22.5650320465822,331.31700864861,-47.0924440163644,1145.80799199061,37.1989851144437,545.009213509975,-97.1447365165187,1962.30650482797,-240.920968815414,71.9644018220351,-5.06795630341633,2085.80730482806,-384.558024496632,1819.68710211705,-335.920816775509,1147.33592538092,24.33959372255,1705.9314453321,40.780043450875,878.163537971549,-111.842329427481
226.633792571142,-48.9711299004796,622.174537071768,-154.864003521202,779.024568137226,-3.93391935297376,4230.66960433773,-386.827090167016,217.233465346809,-23.2892181098087,332.274015260459,-47.4107550612906,1149.68725245545,35.767127391684,545.935306395442,-97.8373067140586,1962.87006334799,-242.026202932174,72.5674438071865,-5.45630777404861,2097.08540302784,-388.60793895464,1824.82258541009,-336.392332708105,1148.97103585414,24.6810491325076,1710.32160226338,41.2760148545444,886.80999762086,-114.626254209755
218.62238560427,-47.0464201081134,622.29393134664,-154.784651214659,784.115560888452,-2.55667653425887,4247.86155291776,-396.478674917556,220.805017696784,-24.0300641789799,334.50276410267,-47.4849682290218,1159.27402560326,33.8394937295904,548.198177026506,-98.0838909437144,1969.36155065838,-243.742407611554,73.0908568043716,-5.53820794991552,2102.121870327,-390.739696363081,1829.40905419342,-338.986180275774,1151.70645660412,24.8622207104519,1708.47818140255,40.0749623553267,878.848113360424,-113.040787711111
232.70461841665,-55.2428362153279,623.427343567832,-152.42085132425,777.024872285014,-2.12512268156273,4224.99806525836,-384.097605438607,211.865841063052,-21.887257928036,331.173232176282,-46.8401794109427,1147.11451997956,35.6642171381085,543.411316918108,-96.7973685350854,1951.66155429457,-238.054579339663,71.7635177329136,-5.02244551124832,2075.4690582577,-384.064731267595,1813.79403517077,-333.987888136907,1136.47535505993,29.6223833712461,1698.95265549727,42.1952799044175,877.98744434957,-114.774266747753
234.772385094523,-59.7898830458366,612.888076772586,-144.211542631207,782.545425204649,-5.43441212261524,4224.91933640004,-382.432470236222,215.215297666151,-22.4579590409935,330.795420423837,-45.7034141160284,1150.50483542651,35.574774274815,545.497987180726,-97.8562789055717,1953.00244222037,-237.396835833258,72.2910965032223,-5.109505023828,2089.41897509761,-387.083278709241,1818.90628313673,-336.920966382493,1149.35371504476,24.9559789198741,1703.56622308661,41.9981427740855,887.552752787836,-117.394046682173
226.74566472496,-50.0359279138524,619.641514277967,-145.958410531256,784.731840515242,-4.7940314580635,4245.61435775652,-394.394348248041,219.438188589873,-23.6474509094427,333.492818580632,-47.5158582045172,1156.91823447274,35.0787444858626,547.054716693678,-97.6316328998127,1967.90979546181,-244.687586939968,72.5647147847302,-5.28991875606647,2098.14230409498,-390.660605718033,1819.84600329954,-336.576574336188,1148.81030923031,24.0226592162513,1703.96589936836,41.4773202363022,875.695070779056,-112.258302606544
236.491966756483,-54.6905165459448,625.632164973573,-154.185452094715,779.777412076209,-5.86101764879618,4224.52813316823,-382.784781477641,212.113916505161,-22.1431266188696,331.86552962145,-46.6196974189289,1146.96742340715,35.5500745160791,543.239473661595,-97.2046300299774,1952.20742308302,-241.278877919558,72.2126383264102,-5.45612754354617,2074.23049452787,-383.23019267731,1815.09518672751,-336.311624001233,1143.13310217505,26.0606017934447,1697.99744740101,41.3801834579916,875.624371494227,-113.323948835985
237.525738794331,-56.9604335249322,628.713693221047,-154.987951085003,780.574691941976,-4.22274788704566,4234.74297429032,-388.975275036767,216.78599378879,-23.2994626187915,332.602428028869,-47.8237308379064,1150.70477298648,35.5438447028875,545.277758185594,-97.9020315501689,1958.3535715596,-241.023929200039,72.6127566620914,-5.42959194218863,2093.02660702091,-388.489865323992,1826.07131680754,-340.546497000392,1151.51434443824,23.3847627479689,1705.6383530497,40.4112385307593,883.345907497529,-114.227187768178
224.092358831424,-48.4694983987986,627.715258848127,-154.069213881789,787.308945706546,-3.80502016080782,4254.66415583658,-400.305056116463,220.537942240589,-23.9545105162367,333.854417415882,-47.9899199195096,1159.21274940283,33.5378325853043,547.223429201853,-97.6860322459126,1969.68471628947,-245.152723131057,72.9561303484085,-5.53217309104945,2097.80110560656,-389.512443171756,1828.39073819168,-340.907104131821,1149.05208675137,24.3490915772261,1705.78724800399,40.9339910522358,878.549100026344,-113.445679950161
223.720556193625,-46.1151321863205,622.04580774601,-153.717969990497,780.56479904166,-2.62841639129429,4233.43834696618,-388.918658734796,213.227181499498,-22.2799542898277,331.87426910037,-47.4014023540219,1148.73440642141,35.6625833390606,543.30078813851,-96.9309951378156,1956.88755469459,-239.168784520896,72.0710429778896,-5.25499384744867,2089.59467114407,-389.970979960525,1818.45428771673,-336.173213478557,1143.1529829566,23.7581606304337,1699.09384236211,42.1160820350924,875.035757438797,-112.774000362172
