736.876089526198,372.928252005214,462.662137103597,214.960086161561,361.244435418828,96.2986018564118,270.851776707472,10.0564398913089,218.927469180622,57.5470551925523,389.392892563846,27.66616653005,333.743059232683,55.3859098744926,1853.95038409404,-143.329836706026,226.953239414794,12.2204646720313,523.95453461969,283.556377096112,678.977574300019,35.1062782203878,680.6947624926,-2.08155158206477,267.529197329295,49.1259238343754,748.490284422963,125.167416656752,913.921414579896,-35.6976637955201
754.908317475539,371.868026820233,471.577062745952,213.151656422225,363.778493740874,97.1634961805184,277.253570438113,7.74086413728975,222.484146182902,57.151453874977,395.570468428844,26.2749532480702,339.035928751984,55.5779663335906,1876.92118016271,-144.695874031164,232.36470669818,11.6653135910069,537.054367123176,281.996411477686,686.872018309669,34.4430991935622,691.917436242417,-3.4313793918797,272.302510587252,49.0981104172003,758.568836626355,123.588494485203,920.563962573934,-36.6821602892931
747.28357553444,373.170057387371,456.535921305684,220.772120348885,361.919982037895,94.9532691266137,270.493523442199,9.50330711311628,217.767987790337,57.0498273206533,386.7546498914,27.9666015119269,331.66026074116,55.5237439460324,1850.77413298467,-139.4922578741,227.745852487805,12.6549018159255,522.696175934615,280.419054570096,675.758034591073,35.2888630608428,680.729025333639,0.0219201147363068,274.938538370272,51.2327961786245,754.174456334808,124.497939773676,912.342841761885,-35.6076947226535
745.188636271344,373.710356584522,469.347687673987,210.165772545903,362.821034619598,93.8683829833664,273.383561158094,8.77770491194019,218.711567119038,57.1763355001957,388.699565324544,27.4981774200431,333.7196558575,55.5805342774211,1857.08149355385,-142.883966892747,227.884234412483,13.3924255573591,522.422250519609,285.619770951982,680.982707168381,31.9820178296874,682.20634788261,0.444698770950985,272.977763268676,48.8287585646315,749.122820801036,128.902580342398,914.114898465475,-35.3558090518171
741.384209229878,373.913638170611,473.816302776419,218.502948170286,366.493748045874,95.7565319034733,274.976884977184,8.84883005254451,221.834421432882,57.4011265628796,394.101033438388,28.0310161879467,337.695132722345,55.4800651791986,1871.62450628561,-144.310838147385,230.289071705713,13.5340569406062,527.237425336186,284.358253957752,679.881717900033,32.6163973519738,683.455831258279,-0.814802634533621,271.827323675669,54.5744359784556,750.963809811416,124.456986327962,912.1618598796,-35.6813850525925
730.593482194882,377.813498234784,470.491649504809,206.695186501589,363.181480993077,94.7880112011907,270.654770496643,9.34190630015252,218.356496533099,56.8700066312935,387.38051857009,29.1917105930823,331.513104962623,55.7212274972946,1847.28146731293,-140.35394072425,225.807626972791,13.2502008638828,518.125424108579,282.313341499288,675.952852997122,33.5051554502579,674.887634061178,1.07643174825762,261.840354265055,55.3229045987023,742.207627424059,125.858745116659,912.278400281787,-35.6441640960443
745.596441216045,373.515155799642,449.852621068854,231.169288395477,364.655921059294,95.2322948255329,271.456476959985,10.8151263292164,219.773362388189,57.0482366024215,391.332247331029,27.6423832351716,333.566062021832,56.1037837801828,1853.16923624868,-138.187760131321,226.645812582951,13.7401833907365,526.368027660757,281.545921383221,686.861147741016,29.8057387708246,678.832471410083,1.53520563797599,271.824589905418,49.2236928325739,749.047773636341,122.939390289361,916.96174665323,-37.0654288640962
759.317249284047,370.210852529514,472.252710468123,211.631464361978,365.376534469187,94.0575080409066,273.443346683028,8.44895244733764,216.614309615007,56.3000346202475,383.260302416901,29.4731019201395,329.367152579671,56.120843510661,1839.33108199917,-139.199080378608,225.076206492887,12.5750845925473,510.838510240585,280.751657283499,674.057649764556,32.086983964255,670.629321131545,1.73258196832445,269.791184594958,47.5195331796075,744.440102305561,123.540078053592,910.236846545815,-35.7085578677458
735.892978729867,380.749979904116,456.971340423566,217.662955028731,360.458921239506,94.3215557383135,269.108996485728,10.3547595215148,217.457858277314,56.1525760762795,382.443127407909,28.7509204329166,329.507499871499,55.3831813319239,1841.38111333655,-140.26247442592,226.164850090579,11.9521469091512,511.599864076057,279.92816912137,672.747986354913,34.1022967611138,673.203079644219,1.26963818882414,262.992896326918,53.8553444966982,738.506706263834,124.984302763905,909.149633822705,-34.7150423760809
749.158297770166,369.626485670209,464.500503281612,216.19191088027,364.984223859712,94.2077732349574,271.649845972139,10.1236005885859,220.026282824292,56.9384105145587,388.420771674301,28.5532010283814,333.061485009889,56.093869193905,1862.88805635658,-145.828083683465,227.775960315788,13.0708905394787,521.716156681329,281.240604640832,680.838794199423,32.0261141314727,682.027427439108,-2.25206405761409,269.366889759543,51.7509103156723,743.133096705241,124.328907279963,915.313404928099,-35.524906809836
738.454000382479,369.641649494571,460.926402166211,213.69850836246,361.053672101724,92.8880478002783,266.358307984494,10.2039743347319,215.346521619053,56.4984863992165,380.640544627184,30.1745130594215,327.898632711661,55.3820565954299,1828.07394154719,-138.048610731575,223.674290527234,13.4955283364396,509.068919484548,276.571046090744,668.034754096377,33.196516269775,668.976328594234,0.0813020649026333,260.250217562971,50.8082496089639,737.31455617757,125.624634108008,907.099614784037,-35.0562234362788
735.766382680486,366.079152626636,463.616923511975,206.383170231659,357.074413881547,96.9667974821804,266.788771815332,10.2812804231235,215.741266042838,56.7997903544584,382.799581894968,28.3152436448028,328.294728640631,55.22554071889,1830.80141075462,-137.403306733124,223.626180225845,12.3643145010222,508.531306505078,280.077492682943,669.290141348798,33.9633173477432,670.657450529188,1.20438027387373,271.425335086215,48.9494899963921,737.202981663097,123.381560803518,907.529420195481,-35.2588066226411
752.897423548639,370.345582253504,466.76288051342,220.549585360123,365.517153440489,93.134871532439,271.237723718489,9.16152051156643,219.326333482829,56.7785528754804,387.996599892058,28.2585819833902,332.247622541721,55.9364044487592,1851.75780450411,-139.914230922334,227.86351376149,12.1792474638527,520.464761104919,279.371599606719,679.490717707425,32.1908825034267,679.912462219752,-1.1850995510979,268.03750173043,54.7724580291525,741.522645781606,124.987380962289,913.9549593993,-35.3296688068378
732.886513315542,372.021042872296,450.919855601089,220.731442789694,357.139789482744,95.3265647966216,267.931141502563,9.95578510152979,214.995351504756,56.2554994176979,381.09298407344,28.9511886126747,326.323554424777,55.5709591570669,1823.84914302675,-135.211457063099,222.184030249379,13.2355359454582,501.45840637925,278.50322096164,662.995180962213,33.4766413379866,667.547120467739,0.299222017655987,267.27432842655,50.6706174754116,733.827034701443,125.648661968093,904.543702376041,-33.7949097277503
734.089232102587,371.210012700326,451.159033945097,215.235106339851,355.846902333449,97.0268823941249,266.793782094836,9.27768192870602,215.927914043588,56.9949439970317,381.324770641508,29.4582341003068,326.944655577165,56.1985288558068,1827.40760161709,-135.897730372253,223.945258960757,13.0383106454059,510.388661461326,277.194372329107,668.04926598726,33.9261474021431,667.968376069731,2.54035823890901,259.585879017042,55.5923037122307,735.150283894287,124.935559753277,907.935365665246,-34.3474067309571
751.486183061794,366.365041080648,464.205692773631,204.182664337286,363.780234497603,94.6431810988756,271.342423475872,9.37528881616849,218.370573620539,57.0272128915432,388.714027367217,27.7380663224006,332.28972802442,55.9264421463876,1851.24897471761,-140.452913991101,226.55528180603,13.5131604474272,514.814688924642,285.737555538945,678.592079474947,31.0007022243307,679.02856703187,1.78990750830492,267.486164691342,53.3093893165037,743.357418453225,124.49072745629,915.639185857503,-35.8649607237419
733.803869640546,369.16930458043,451.756899294751,210.52551711856,358.613648829895,95.3678942911039,268.566920414209,9.10215820375707,215.261302704344,56.4037053320248,380.996700770065,28.7251506712488,326.382425886775,55.8524672046869,1821.06840539371,-135.093313923775,224.635636291531,12.6211701516886,501.799979914584,279.591169710763,663.611762363296,32.521006927093,669.994055606892,1.82119519810876,266.220353758029,51.6435845578337,739.929589865441,124.443128564461,908.413212240146,-35.2040164388923
737.6303245305,369.636712045491,446.013016375739,221.683339634197,360.110756423896,95.8502518842499,267.483521036819,9.82780102879095,214.893122009872,57.4927201950131,382.907507240704,29.063526719811,327.935033852606,56.1313306900631,1830.06145747265,-139.099747468742,224.013168894686,13.4580428892492,514.042974741872,277.830070123577,670.152502251365,31.6829838113733,673.716421878679,0.616751301399832,262.988253597468,49.9951156670855,741.937432361148,127.68752426597,909.887598023985,-35.2070746284763
745.895525598716,376.983887590766,470.882114701288,212.613480179839,365.149160574477,95.495736785773,270.26802657353,10.0784680390726,219.118374362171,57.3263927989576,386.548471974012,28.8807444080866,333.553284786223,55.6170016428503,1860.23425777124,-143.209341026951,229.499517500782,12.2718776225181,518.142326359588,283.126018012578,676.212775297376,33.6637143714037,681.929781820106,-0.00614520133190117,272.286809861772,51.3695139153504,754.233455133514,123.66676750241,916.985049907087,-36.915877065516
734.268881309738,376.635769330578,464.335714366565,211.071588301638,361.620719419386,94.6569372018455,266.943023313472,10.5745727118052,214.926965115574,57.0639709161488,383.318997364229,28.7913422846797,327.366345469919,55.8321194263587,1828.23940359689,-137.330262118919,225.925122192306,12.6561852902702,508.940740461909,277.710816971582,667.951429024605,34.8195722347919,672.948319677776,1.37213484969182,272.259829662163,47.4025513456196,744.730064704906,128.308539116519,909.586262727424,-35.1289728023801
755.831630465292,365.040497622061,464.38580827444,205.382669723766,360.05573458181,96.6416879431895,268.255301879671,10.727123645174,216.699611741129,56.9297220955569,383.637565685575,29.9907350555394,329.879902431407,55.955794633253,1842.309087474,-139.680895406919,227.329021729822,12.7363595688134,512.118131358792,279.47548599524,677.583872018295,33.5610558045576,676.496442532645,-0.853783772350447,271.239383699206,46.9093126835841,748.076297077301,123.254179149173,911.192368965161,-35.2698407314855
753.407145600431,379.160305990104,469.457572560411,218.989272788378,362.035394262029,97.7041992024468,273.987850464114,9.13025961826036,220.365035934947,56.9584193722902,390.992542280381,29.2069239225837,335.88381390973,55.8566255940859,1865.3811724361,-139.81572200124,229.155712169731,12.5571852246997,518.814249416208,285.726448050325,683.307148289804,32.2425295996794,684.176319609161,-1.03798171093315,261.085773218239,59.1863400958372,753.937669824823,125.004744535162,915.849006542953,-35.5813203218274
754.373059965023,365.650660545306,449.364555367866,221.420610955345,363.375265812376,95.2570858597933,269.330584565755,9.6039157141256,216.274971139674,56.8787002308998,383.550502380402,28.6170664381025,328.669691787911,56.3042197306589,1841.40454351454,-138.649698543646,225.528658771748,13.0224625274105,508.706145514285,282.190818295227,673.519637325154,33.3616282540197,672.602973425469,0.450312325671494,266.603669085732,51.3795229646567,748.564811884663,125.577723325815,910.613937687311,-35.4793933096331
753.748524754771,371.06509625837,461.857974532943,214.688819238187,363.134884073457,97.1035012340267,272.720964991045,8.87200512867683,217.907962307681,56.6563732272939,386.931630800735,29.9153053345812,332.374862778846,55.897807854898,1854.3561154565,-142.194400355139,229.117844989946,11.9822043260762,515.867212678673,282.209644066498,679.413671708475,34.0967564980954,678.238173109721,0.094462161690065,267.398301530907,56.0991222516285,753.801214860582,124.83120191968,915.8598035216,-35.9521777229611
773.061434360536,368.244202520007,476.252318046042,214.692214112769,371.969198274614,95.8395833865543,276.132600024632,8.70641532818545,221.430251902688,57.3078317838403,392.704204751966,29.5300765927866,338.023932588506,56.2738384848136,1880.87067170455,-145.168794234286,233.380586874738,11.3209772868547,523.045766498973,286.143934149772,679.525400562151,34.1487522295424,676.196084620739,1.61639383711718,267.556771140255,51.860971957948,756.371174947992,124.573782562407,914.732194574435,-35.5995979561316
751.394809225928,371.772624236215,458.294348446221,219.673807886522,363.833711884406,96.7285077776911,271.757523013105,8.67375513775048,216.750546473472,57.2708000051887,385.11992455071,30.0999620790192,330.560328332324,55.9071978368087,1845.43286319379,-139.349291732187,226.071023946775,13.6999067128998,511.38942831018,282.845134909454,678.724128774087,32.9918199213439,674.149567955107,-0.351550024875306,260.657421766898,60.525308606395,751.597577709136,124.494632205414,913.502442255073,-35.7789889767395
752.8799636201,379.709198587592,477.07213314492,212.026683301082,369.895852084393,95.1925087937679,270.728504651648,11.0955956693621,218.746414689411,57.2139603217259,388.937416844473,29.7683061507515,333.955072525338,56.222466793024,1865.03376231727,-141.591984672347,229.816354609159,12.7042549643404,518.719507427133,285.471868784674,683.78798973547,34.3708488303909,676.56309387507,1.4266222104834,260.751028595129,60.1012321348781,755.103753051082,127.212685200727,920.165877110574,-36.9122036742774
772.632267846504,377.845372972037,486.485229544895,220.017729188325,372.808703450563,96.7233835993085,277.888256345387,8.77405572087913,222.591946261787,57.0703790511992,396.024414844598,28.0911769899765,339.464614331226,56.3626035069133,1894.76696484042,-147.654128691446,233.482143395425,12.71308448958,522.711423702331,285.777429288136,683.009889489024,34.2041911616233,680.124408649066,0.433824727287372,268.931296573013,56.473856911476,758.857777696241,123.878409820032,917.210804082377,-36.1252227774483
745.508421029388,378.257875223778,463.680972688861,220.35772722715,366.276187977058,96.2441115719177,271.97620834598,9.70305378713207,217.774319154283,57.144712545261,386.319913060629,30.6844284581195,331.592550480845,56.0850651656247,1866.34007875214,-144.384487801658,228.594529024406,13.2956914023508,518.882452908239,280.991838286046,684.815763471394,30.9818734123771,673.85480869434,0.6609347665119,262.949027019293,59.5765569437481,755.666933149597,124.363176778189,914.241340342972,-35.7622426074521
758.016880299506,370.842269960934,451.949198357963,231.303358812498,369.506429801049,95.6676129506115,275.470589403191,8.5754682180384,219.425835078629,57.297985636074,391.563275441232,28.805262304784,335.517168522835,56.3496465425021,1876.97976963623,-141.892223059051,229.725066280908,13.2324188752481,522.130771738865,285.204690561647,691.156666492485,32.5093003645771,679.490874228039,1.52297257778133,278.201698328436,50.0572983043002,757.594441324687,128.133348860742,922.086789888891,-37.7618387361983
764.393262388548,385.413027328287,474.784289857301,225.328486117188,377.974853671883,93.8693587799397,278.501691411809,9.4312718311501,222.483131667858,57.903269737755,397.489663677537,27.7858817817456,340.813506593151,55.9787436203456,1903.56190275765,-150.292163646295,234.513726020023,12.520733099433,526.769590267162,287.217041557778,684.025940443019,35.5081281137661,680.574092626878,-1.18278810345182,280.862526886755,43.8285999565732,762.454180655096,125.242331043593,919.731818793872,-37.0910653884486
760.672554790791,370.493850305148,468.999445206866,222.43819936035,368.777305514293,96.2955425777914,273.956071099084,10.7692074576339,218.595125213872,57.3236528045264,390.59814847129,28.2658370450158,333.866247184642,56.4299055574095,1875.9180379849,-144.665320462055,230.381461350309,12.9254485010184,516.889769580682,287.840434871335,687.883082830597,32.6338788841092,678.240710847136,0.608122898072014,269.323954232587,55.2053983278829,753.391764702335,130.274035001175,918.666494475036,-37.0267643653068
761.207895663251,378.745462597072,458.072441296398,230.856726485923,370.79587408804,96.9823862063506,275.862092244297,9.69592235237074,219.614638608922,57.8981684783449,393.936456813634,28.0580499676598,337.674419100636,56.4981731089785,1891.40383065083,-147.966702370026,233.21616006349,12.8268503897654,525.436595284421,289.616509950028,696.531401041193,33.2981207117404,684.449445948125,0.531151554925902,262.552292204683,66.2933402257797,764.666382024532,125.856836704657,923.780634893607,-37.2743196378646
778.110216889489,377.846176315941,472.436694690207,229.495538431029,377.440317222007,96.1362380085637,279.979788351695,8.624736888415,223.691209031144,58.0814697159099,401.571509173225,28.1217731967314,342.474530977105,55.7210535380502,1909.12760071805,-146.714041755448,235.786874816824,13.5065987569993,530.360913756016,288.017720881798,695.066401574508,32.255445083842,682.528022065741,0.677212655292661,282.416617979184,50.7783642439238,774.655911043171,122.698587414499,922.62966414677,-37.142313308233
765.732035399532,373.795026086073,475.60537446843,214.830559773454,370.307459975291,96.3978636637561,276.463750309658,10.0428250557917,219.858031204503,57.8595887896141,392.314281316303,28.4068950019439,336.153827897478,55.8750696366077,1888.920465974,-147.70952980285,232.614986637055,13.0216577635535,522.68915667365,287.172438189381,694.07976798333,32.0002400118365,681.890671137458,1.20131927823134,270.620861918376,59.9069311427272,767.472710125661,128.725563046314,923.316154939611,-37.3355126704714
763.82745764562,383.554514659935,472.030164694561,222.442351619458,375.843803318468,94.3343507745702,277.985817812037,10.2076143436881,221.079871279791,57.9012075845176,396.546518733998,27.498483589502,338.920828885129,57.0056084076389,1903.11838101244,-146.417541583855,235.524395722629,12.5543287833795,529.553815303158,290.921727796827,700.869558297044,33.4797107889064,691.995488316358,-1.66599452725561,286.136190759232,48.0219959480557,774.971400360365,124.988338035413,929.072718290184,-38.4977732014938
775.245144847328,376.675128423016,484.259867436726,219.803539063391,379.709575255041,95.9039997837989,280.437824284865,11.0994176509416,222.546835597694,58.2070522032347,399.831667809666,26.7328256115083,339.688034229695,56.1468997697745,1910.01245695726,-148.213662602501,236.787343957946,12.067201842624,527.335877434229,288.239061661914,694.757460832573,34.0227914981784,683.402944724483,1.47854663594047,279.266084426529,53.6376799236133,773.045981406275,126.820036462548,923.68021757211,-37.4209784123997
781.426138801268,368.104842181252,474.14918282531,218.787918411278,374.989277374559,96.3588521960151,279.208623605819,9.18945497870897,221.246587341153,57.5881834660128,393.565817144905,30.0223466245568,337.59451973965,56.753480385887,1900.46686470695,-149.903622129278,235.501731058064,11.8620668085417,524.645854906426,289.74224731016,699.544935127008,35.0532107838963,687.840324888879,1.16161071022795,280.846877134617,53.7284969944794,771.519289956351,126.54076279785,926.212037641604,-37.9389951104693
755.75427991846,387.339712281576,487.970154181079,211.042203618421,379.315984792956,96.1283817810664,283.755461103926,8.70983496662546,223.13707251921,57.9499251708448,399.738465250948,28.201018490429,343.09031265757,56.5428100149736,1916.71324189949,-148.350606700727,237.003969997916,13.235531027932,537.775219609219,291.321995475701,713.361631614257,33.1007578030255,696.254177947788,-1.18387979485045,288.252174094098,55.3957896742774,774.966092457391,126.443637488034,932.271400920996,-39.2889789551367
772.199589217164,383.794492632997,482.018789877872,223.338523382652,378.905663652774,96.0333435911242,280.590563885446,8.0369527942645,221.189193943779,57.4753809845575,394.064506216082,29.277266569565,337.288373031707,56.4970382839389,1903.07979670479,-149.887039559737,233.696296975902,12.93589332672,521.091815578913,289.099980781901,703.546013954204,33.4454586938535,684.469567737478,1.65868254319598,279.898691955074,55.2944580673201,776.380189991185,123.568084115775,927.007033800445,-39.1719622548282
768.938163318662,382.390203525145,467.235916845033,227.643195414405,375.314726352976,96.8301678328606,282.53422720302,7.37809086126182,222.383122192863,58.2467481758944,398.01825484878,27.6853731046515,339.22479862128,56.251736390218,1909.90461975253,-150.536048508365,235.138672213554,12.608775419936,528.568474925608,290.190095569015,709.10729107658,34.3949692716193,691.824908591744,-1.11998444620294,283.306483751071,50.749538483296,769.83543023522,125.634006871204,927.625043141261,-38.6219861392034
768.362002967458,390.734970624447,503.166419553005,211.40169637881,382.467093707197,95.0494374367397,282.801075218962,9.24672098415817,225.164023353038,58.4250553107625,403.387565347219,27.8619980321258,345.74149007519,56.3547000858185,1937.14303579479,-156.379475314512,238.378712188297,13.109557475796,537.978904033181,295.694009826066,725.758884811666,29.6813718981985,697.903005401162,0.694918098508599,290.67407684853,50.616111433576,780.828030421445,126.78245065816,934.07893097439,-39.065708499471
776.550768408037,373.143887638213,470.046578258484,225.281487930918,377.188477337991,96.1711729308897,281.926554241282,9.55317651574612,221.077710787775,58.1022333059117,397.216577128634,27.172891184875,337.991999582575,56.578309152696,1908.78898041628,-148.237941914285,233.267967160117,14.0183888022165,527.064455772638,289.025565761485,712.096954245334,32.3373814322722,690.354104396131,1.28023890004904,281.027721465805,57.4316790253386,772.277292952346,127.078743840913,928.795763953764,-39.3742987208834
772.902956943198,380.382517032064,470.871320391347,227.885633589274,378.77806647146,95.719874040751,280.124096860136,9.77580388204801,223.12071800533,58.3626104859402,398.250428374848,28.2063195836995,340.428831088577,56.2405961819909,1913.61120046774,-148.191869162865,236.735502853417,12.6675319475204,534.128704861614,290.747078714032,718.549646819611,32.3515314092289,695.673958305043,-0.0881599512144132,281.749029208023,55.2014507820332,776.382063402436,127.735773312181,929.719888038654,-38.9356160797771
775.901404359906,382.29012953598,499.397281799394,219.201327378322,382.194993458187,95.7617700683111,284.540886693698,9.07926638164688,226.8436923398,58.2156817269438,404.106662792903,28.6412164093929,346.981553433811,56.5836593537835,1942.41281764494,-153.570547487763,241.679234631151,11.9691027533802,542.404112126642,296.260120923474,728.680500929366,31.3991520683861,704.518158221305,-1.12266397789246,296.063564058738,48.573135450032,784.541980320512,124.904562325593,936.287963192748,-40.2597022877673
760.19534045233,381.056077952693,463.136879425771,233.530471386005,377.844168762923,95.3031218844733,280.69365403098,9.25879406079856,222.010316969109,58.3707813898231,394.57570241228,29.2483844414077,339.581232360584,56.2665744593742,1911.06603095615,-149.291267593166,236.124254993632,12.1534789850178,530.847842755305,289.010165733077,713.711845849905,34.3849255186133,692.043737717546,3.04617234096619,272.861147567854,58.5866740908225,775.487470255961,126.623085558713,926.36468928438,-38.3839101806659
764.934052638442,382.536674533867,474.611383104577,222.477004326644,378.198087356457,95.2291967960499,283.143761728,7.83280844852017,222.340308237964,59.3407516883117,398.981525422639,28.3674224465477,341.185471517408,56.5675913000638,1919.22548500516,-147.766737309229,236.876490541033,12.7606974751278,536.568314071395,291.355286039944,718.671540309325,34.2303054673922,697.437321678315,2.49383765856914,286.453032318977,54.2262784164786,776.894492499026,125.229160843609,929.526348714108,-39.805320696455
777.978112538701,388.854683370555,493.286626797695,223.353073958127,385.516361787831,94.3250383304497,284.741458927977,9.42848714917231,225.985372454494,59.6914717934923,405.185618030091,27.3662282183219,347.781408011055,56.3362372295226,1943.7901532031,-151.573747848223,242.148551425089,11.9791407072381,543.989465907978,295.026768694372,721.662602174168,33.2295069310038,700.960488151063,0.52798679671932,293.263843211599,46.5054865058289,778.594607728992,126.366036469959,928.620828071395,-38.4097264910197
766.860985008056,377.655991614932,468.602005979162,222.085256501416,375.517381747789,96.2051143808103,279.956607326672,9.69138500135034,222.142814641782,58.9523170553447,394.466831079886,30.5084750936831,339.755662652819,56.6287764200128,1916.28389029629,-149.743433476841,236.379419776424,13.1543200065773,532.380114874558,290.45150450732,712.175542764377,35.3808657653467,696.124697427986,1.31753362313903,280.373507299622,54.5172951952026,776.510373229301,124.51913928471,924.159890946403,-38.0297625976631
769.732647964609,377.215729922216,477.585316504836,225.294028738414,377.443061843623,96.7444719999853,282.899197395018,9.04815991464953,223.995736549343,58.9797551725314,398.604957616181,29.2446484043097,341.978463260675,57.3180525711079,1933.74782933371,-157.494641868801,236.926770600381,13.1751822908781,537.249274845183,293.521153615299,718.266886758837,35.527304647659,700.517584406938,-0.223831415256562,281.402300246679,55.5848547457245,775.750697520698,129.300665965879,928.869720211643,-39.2560136954407
775.517477247998,380.808554892101,504.638976161082,221.628615958807,382.896449774133,95.3967004585937,284.313074148272,10.2029659726728,224.227948326212,59.2819820933569,400.28061102306,27.7637760047264,340.986207005212,56.866223699386,1930.47100037705,-154.817861991205,238.851458332465,12.1013491447297,531.74908648431,292.991935510875,714.349559986775,32.1050550026589,694.303037351745,1.40224701886761,286.446742807647,52.7662314371624,774.462126421214,126.262384494857,922.130009726346,-37.4243397481388
769.4166385694,377.076609793486,487.188728010107,220.255183706229,375.22193683253,96.2902085555568,282.917165633389,8.35852735709032,223.952840070142,58.2263161445778,395.118810937676,28.2827646669203,338.004750691578,57.2351260902317,1914.47776791897,-149.444623300987,234.795118540115,13.734875241885,530.998272915803,292.545368224638,710.892086438104,35.6884601818152,693.116018231438,4.40617570855235,279.390072152103,58.510427779273,772.341214438238,128.459025144128,920.512194394124,-36.945653465243
767.457836316588,381.782113659738,479.408529939375,217.91623726942,380.010678775197,94.9006896448846,282.19698751301,8.63228012666628,224.583285287926,59.1022385677372,397.622898085428,28.5720930951099,341.80383673805,56.782751346398,1927.70188964549,-151.811306646923,236.605757190921,13.8590699323605,537.973502958557,293.447837973681,717.232613782512,35.6873266037271,706.132141031481,-1.6937501939877,296.130545820366,48.3897809637089,781.480939355684,124.064256764207,925.184639712071,-38.1566659289433
778.614231551086,365.490926317392,469.821407026208,224.80363561314,374.264425359065,95.3810419375483,281.561564026731,8.4807461809702,220.566768159911,58.7441012002906,390.177963224931,30.4653836665964,335.745014713392,57.0231071261791,1907.21403665606,-150.73268271316,233.443115619585,13.9458080393864,523.703943405164,290.636560333816,709.601049006422,35.1733422069527,691.88950659317,2.78682709589146,275.558831505566,60.8597618599809,771.716640575428,125.254062220649,917.120004740851,-36.9058188725529
771.315533738202,374.258049491565,464.414872385335,227.205483363561,373.58083098353,95.9041228347834,278.652134963078,9.69564716747103,221.77059398653,59.0645117700981,392.609449824294,28.4399266670129,336.081236771574,58.029262856149,1908.25399576468,-150.79866616349,234.13070463602,13.7079973263726,531.971885206492,289.628508775278,711.727592339226,34.6957083374989,691.563420611492,4.49290646697547,281.152050863002,55.0758930245516,766.684338372052,125.084708882165,918.448202414829,-37.1397321112426
775.307353016474,375.329992620115,484.962920247088,223.74173325718,380.818048667597,94.5016756392746,282.771264046452,9.27894265952551,225.4876211834,59.0198290566531,400.501890890118,27.3084197042715,341.829221928928,57.0077706283414,1925.10857137249,-149.417179457869,238.892214960861,11.7500645898271,540.866387110362,293.257289615807,720.88061317268,33.509885655863,701.160247956661,1.41128610350199,281.943757795419,57.6187776299028,771.570533977907,124.259669251499,923.46641491685,-38.358697878175
751.753643454752,382.799280517897,470.159117479951,220.496407895539,372.684734587289,95.6439724317257,277.819341721397,9.85535151700368,221.137038235671,58.5744396762717,389.705836680516,30.3841286013112,334.976152813292,57.0455639558483,1898.86326141206,-146.855084802454,231.333687185924,13.9363858453341,521.266110553759,291.08767646343,710.854670740081,33.843720407326,690.972245405936,4.83796559734464,277.97303679217,52.4819311942283,761.499617727145,124.630098874922,914.823053366418,-36.4760458043134
752.528981494413,386.735318251356,469.107031834707,219.03063093631,372.759849186692,94.7059695066676,277.342030107166,9.72242719361378,221.36391470978,59.6555235791625,389.521005158643,30.121021919591,336.867344511278,56.7833964679846,1903.86234127929,-149.638356639949,234.142810952721,13.2188223428472,529.593321916545,292.078711644969,709.133622472256,34.1591768099908,692.901912748917,3.13274390577117,283.826960689518,45.6620916226858,760.979706563269,124.362676533406,916.817328537697,-37.5100851064152
763.938421175558,382.186507010229,466.966807638389,231.141359771492,374.859698147812,97.2005202502223,280.746774338353,9.59567519239751,224.778432179354,59.7639702629226,398.197604043022,28.8945414900353,342.2756541868,56.7783541038673,1926.37802453469,-152.851729076082,237.275587690287,13.2603626111183,539.048236089322,294.974594554218,716.803385916632,33.1456401892734,698.083873937655,3.57306717322731,288.470247577224,48.7166151569968,763.386747765328,125.71360013051,919.016949102794,-37.201229432228
744.045025072297,381.621877936744,474.096445823513,214.229471365877,368.404953824361,96.5599829959279,274.861724437297,10.1634562102706,221.117720317883,59.0023608764129,386.737543498174,30.6715430427719,333.866287855114,57.1995623312853,1890.4623952962,-146.397029934828,232.566271488492,12.2647600378212,521.83560607462,290.271323084292,703.230921282843,34.1223584676649,687.312004637507,4.07686555094612,280.491996456846,49.8866204858899,751.868212408569,127.524740463093,912.887504545528,-36.5596325883476
747.883966614158,380.518877464865,472.146423275065,218.437305024518,370.985186164947,95.4095816078782,276.432651166085,10.0373096714828,222.283627839002,58.8382289659939,390.687614676478,28.5116522078908,336.456194269269,56.8233563788083,1901.8909851206,-151.072376583411,233.072428789642,13.89733919047,527.491614425976,292.375594635965,702.959535482961,36.4932471989557,691.363862957214,4.24179805807865,288.64681480527,47.9739500455964,753.774865324046,125.826488339118,915.400223798414,-36.6959174593044
758.419033986111,380.625866556778,478.495777771221,227.526258526775,374.545534598951,95.8258236577726,280.497794180899,9.10611402147075,224.594753352069,59.2738951697989,395.658810602992,29.7085122389392,340.414761412127,56.6378681081721,1921.1705021637,-152.951875886174,237.45013927325,11.8860241410874,532.002789551602,290.944332682718,701.274918857788,33.71687427499,691.794365578558,3.12629751994363,276.9949738961,53.280074051058,754.762490598396,126.526458309204,912.72535681632,-36.4901757961222
750.468764631222,377.968453189654,466.823486295257,217.009667746351,368.697888803197,94.5142911978521,275.518586813935,10.3400049920147,220.289886462964,59.2288849876195,384.592516758634,31.0140925744607,333.100547410984,57.220403630354,1884.29348178404,-143.548678798812,233.12232513228,12.1346181338905,515.924179374197,292.04247413478,696.41007035873,34.2820760814183,687.139518756362,3.14062276110267,272.673706145531,53.7965776624596,750.323697908753,128.334622840671,911.304906490277,-36.251188343117
737.715582016338,378.831608030598,463.828856742317,218.444055262806,368.79115347267,95.8664642480323,275.505856999766,10.528742878815,221.556154785859,59.4167672428418,389.528107285203,30.1841443552412,335.155129162284,57.4253715190767,1895.0057298747,-146.135001232631,234.853833910143,12.4929986791356,527.963750907255,291.7082400763,697.411366642065,35.6077791027361,691.501936644762,3.54314505337958,274.110731389055,57.7426013439646,753.510185361566,128.41766402076,915.376902296391,-36.4202002059177
755.812582802875,377.860026916629,479.140948223173,213.570939710403,370.306475426915,96.7375231318656,276.330955910269,11.6891984355271,221.115370030332,59.8148315288415,390.562326760057,28.5569359964519,334.419643317307,57.1820063534327,1901.06335352739,-150.051393690821,233.764034355975,12.8358509593954,522.414394536491,289.988670941077,687.714875997804,35.9021262950698,687.21056726135,2.91084520480134,271.295502549826,55.0303382541204,754.354768840486,127.610504591314,911.406495820042,-36.5743533382249
736.178340389697,376.754269241567,470.410595898925,212.891852661134,365.237570903006,96.7492240794424,273.857473679541,9.94874020115047,218.612483238102,59.4338182480915,384.891574375625,29.9528478678369,331.290906574339,57.2120901235168,1877.98687774671,-141.743286679495,230.941702378856,13.5778237792296,521.10522118367,287.634387235578,687.454819156786,36.6037465188134,686.062625352073,3.40168718802978,282.423892847275,51.7561083362831,752.442158664987,127.104001014324,909.831754572969,-35.7357354802384
742.704002553349,379.566025027997,479.042223127853,217.634277367588,367.627687940619,96.0118588439062,277.329761051019,9.76751049365564,221.472176865862,59.1043710681298,385.035122679012,32.8799001609036,333.501875276021,57.8236542084539,1894.25919597627,-146.991095846552,230.948250013711,14.8700930126768,527.023785055616,291.120450330544,696.638566344649,35.4450251435658,690.841807616406,3.96474900814426,281.132501830555,51.7019623453327,755.967199258941,125.61117938015,914.602603088342,-36.8475385102379
747.862941361524,378.026127163432,434.625457263037,233.196390796383,366.750145108371,97.1636464250907,274.683707904441,11.0876041774472,217.456317096567,58.8607463269362,381.15440727287,31.861472782731,328.335343690694,57.6566405186395,1872.00941327595,-145.194900118136,229.404963746969,13.609983331713,513.037661694476,289.712268515482,687.38876639037,35.0584017267788,680.866632821448,5.4517075113245,277.49833657258,49.2085111054903,742.545636538075,127.778662475835,910.522772733703,-36.2973286956555
744.702076874585,372.219705400895,452.330052333669,222.929008741044,367.486080767936,95.3248808337009,272.705673859338,11.0736484910684,219.29698070694,58.8298511105961,383.579708145926,30.6317382336473,329.453098545862,57.7031217198214,1869.59521770675,-140.378333191342,229.19432243049,13.651639696364,512.434178376358,291.575313400498,690.788039765991,35.189272118406,683.772707919184,2.48550716302424,278.554766294979,51.0300089903087,744.069381983124,126.838117089351,912.384088641009,-36.0883175315152
753.298885584469,373.10502890779,468.857286307078,221.515887257651,371.317036142273,95.8818136686304,277.866432524498,9.87907946714577,221.691861379466,59.4116643474513,389.121851791374,30.6270035111147,334.773851561641,57.8077568420179,1891.39749441166,-144.353066617634,230.911022634021,13.8026992602171,525.075470158772,293.522380327901,694.534552640043,37.731939369006,688.175104819059,4.2423600142813,270.442185691699,55.1577923861439,745.579329109697,127.340535698026,919.462201859989,-38.1342867979786
734.270942814834,377.40027965862,465.545099256448,209.056694482979,363.830548232263,95.6253081127824,273.862837303134,9.53277833071482,216.620111984704,58.8296466130517,383.030070873252,31.3956727256019,327.586103340882,57.5174987534693,1862.68237431335,-141.447293389149,227.310296752082,13.9433512005234,508.612036180627,290.009902966787,683.840285366244,36.2425045204512,678.355218450777,6.52724034810512,268.310881376588,56.1304311533009,739.320239805751,127.924435771616,905.99570346857,-34.6863225332244
725.906906525084,392.385805410024,469.312125626787,212.60243939438,364.976616054703,95.4483274849123,271.843713689448,10.4327022358423,217.427444502726,59.016074209075,379.706576852332,31.8187813857123,328.434028065228,57.7702119108616,1858.15712794074,-140.821853464168,228.625482359019,12.8484225082866,510.640879140255,290.135581431626,685.00110758932,36.2932406445846,681.571023546428,3.20125259263256,275.294668815032,50.6500986846043,740.678986843516,126.9124828999,908.43845614568,-36.4979975151906
744.116416910329,379.041456868126,469.250139724508,227.471723223657,369.973417206761,94.2349899372439,273.984512268161,11.3190700152744,221.349233269383,59.007254366318,387.46643193955,30.1367293535753,334.33234616222,57.3214431403936,1888.82769557029,-146.683045380989,231.322397016084,13.9824600727845,521.944748606265,292.546963032821,694.156776141548,34.530118264127,687.795596948825,5.46077581331246,272.349365764675,55.7876702449532,744.869883007057,127.58943696796,914.786442987802,-37.0608332414875
718.332070591588,390.437513338373,445.988398668508,229.1752323899,363.48265847526,94.7557915586002,269.00856112043,11.354250554366,216.236093909743,58.8370815984382,379.571729722474,30.9700095175204,327.545734216839,57.236371889272,1847.89670199246,-135.859069975158,227.577287745006,12.8438408704834,505.409933151543,289.201122813376,679.688275966006,38.2174770060843,677.431479688872,4.3276222593623,267.178314641028,54.3849293480916,735.109984649695,127.758120764846,904.653558691064,-34.9453475587245
733.664430159387,382.021489521444,447.954867513101,235.582035470704,361.604578479562,95.3664339954424,270.54642336236,11.1992897358443,217.552939939536,58.5813045225046,380.074298452447,32.1681359184743,327.781536087157,57.8453696663589,1855.3344108064,-138.028986329228,228.030009765147,13.8285797731277,511.432279352753,291.466314846031,683.878617712268,33.743618041945,682.339484738498,4.44267610190781,272.331197135815,52.8270533240438,737.615348199278,128.281257753928,907.943429755034,-35.750594210732
753.848451866836,368.857379172613,493.445647686992,201.684663810914,366.888830026391,96.7403852569749,274.697154579446,10.2755916918049,221.213691778913,58.8669158815182,388.113967281548,29.4190106283041,334.020482586366,57.7004692503392,1880.3046325412,-140.303876998754,232.130579691233,13.2706096667435,523.591155533014,292.011538291594,690.625540527411,36.604006568248,687.51412693101,5.36766229189721,270.230850461573,53.3265023501428,750.242572644338,127.671622653014,913.239256360127,-36.0759097845166
739.892325433436,376.731846542185,458.289013915988,215.509138746256,360.743012369594,97.2383938929297,269.823550171782,11.3912981214423,215.665325181717,59.0568752864645,379.288224256818,31.444316253602,326.737184529434,57.7573220216448,1847.36082098177,-136.63408485736,227.191013874949,13.9271930645703,505.721456274433,290.706179750485,676.518074826672,37.9410990241934,675.47749585658,6.75151193508129,264.910292233022,56.2785253107672,737.944231292015,128.790372051644,905.549951481972,-35.4281997596942
746.821251194508,374.253146714309,449.361670600946,221.023725046843,363.117393873922,95.783923324561,273.489845284886,9.02056685485981,216.691353143246,59.7999277478078,382.04806733388,32.164532440779,328.325008881049,58.2870161963515,1858.89974160488,-138.70559153981,230.136856313668,13.1815594671699,514.854634804208,291.002439978292,682.175720680358,36.0265639449784,681.518890181395,7.0504666276047,268.404907494007,57.4160883882135,744.841477557304,127.407624749175,909.676180642378,-37.2471029613235
758.945157854878,374.414080632669,466.576436700389,221.026760149862,369.261216794945,95.8411689993326,273.233186288969,11.7109736580392,219.982476325566,59.5466193662297,388.559039995572,30.785413921452,335.888570462626,56.8177572360434,1888.52093984685,-144.828820066067,232.591099513955,13.8400844326336,526.47948096012,292.417476551042,688.300685212764,35.4578858324131,688.532926171393,5.09248369871129,271.972085570184,54.9998569900249,744.783711075576,128.162871767777,909.928928349399,-35.4457616766633
743.787198084843,376.628248037437,470.113522196873,218.654734762988,363.101541385548,95.876097576488,271.393628563122,9.4969542095474,216.214472051727,59.1099642123001,380.610637883263,32.907625815176,328.506751514676,57.607844132592,1856.51051092684,-138.50857915089,228.056370352625,14.0502590758745,513.709716033066,289.055358054402,681.303619572568,35.7982925970213,681.868573304756,4.17552135858389,279.278169848423,48.1978706455076,741.949328515219,128.595053223719,905.728306884953,-36.1863015876907
730.077515271635,387.097581482819,470.238908390601,216.020541918639,364.907397238139,96.7288003353725,274.009911272346,9.03172366873513,217.857286611014,59.1089910766523,384.600955139562,32.6480629594201,331.555333182022,57.8023297498537,1864.17444779953,-139.048982453,229.128235881076,14.2596593156377,514.252211486841,294.660116867168,687.296988337527,35.4306021032872,685.75678652677,5.2823366970401,268.615191549067,53.2798808975711,743.896634751385,127.041359281287,909.496803374143,-36.4075644710799
748.552630604153,391.12897375829,462.135447223612,235.803378177065,371.268537461755,96.9793878866893,275.986612521019,10.9944124911862,221.313198097244,59.7056592877939,391.419171966239,31.1526753052537,336.52658352376,57.7898341319024,1895.22429791897,-145.067710552776,233.37027191449,13.9606035929642,522.207334348866,294.108431026539,685.61787513009,36.4137643107742,685.628048657483,4.17611990474341,261.781814566532,59.4286892735857,744.571949938896,127.810369311786,907.241241615669,-35.4160074360749
741.159212970254,375.220486081818,469.153176129746,222.045088688167,364.162556081962,97.8612308409662,272.66297283692,11.0335235276417,217.006507515397,58.8856955726762,384.559775424314,31.8708607679053,328.943200862277,58.3110452031419,1866.1943631162,-141.631746902211,228.755777125322,14.1280872667974,511.793645414682,290.135047284041,683.675352745332,36.8726711962357,679.389786930391,5.34798099101227,268.341253935911,53.1091704302854,741.134530429855,127.659082947136,904.79796113072,-35.2718880531448
748.954534019105,377.504215817083,461.603920728332,225.920687082014,366.019412615497,97.075892264237,271.996630304316,11.6569606219149,218.299365656039,59.1992314803688,386.596315809622,33.4714719377879,332.922985585139,57.8965821227273,1877.84964144603,-140.865440070775,232.350740756933,13.8866014512497,517.57605674659,295.507296206144,688.224349064295,37.3830375039943,686.970678785894,4.99987287961337,277.334157003687,50.8241628535087,741.309499873434,130.637104309028,911.213603615448,-36.3545401650846
763.091965105568,381.986618050823,472.832380369613,225.339323226868,371.024037784247,97.5065790947108,277.213275116034,10.8072005032634,221.583855052538,59.0742693022619,394.971445098815,30.7185062734416,336.421934064923,57.7347607618962,1897.77419463941,-147.432594320322,232.784233744344,13.429518671479,521.751212746492,293.283581456092,684.325889492872,35.8041828651171,682.454621623861,4.19730166691785,270.559835402956,55.4129200597663,747.983091813396,125.837439112467,908.13930592752,-35.6261418629467
744.022522985768,374.323272631912,465.810844217787,216.283149560655,365.920724497677,96.3299007694442,271.044259078887,10.945415666762,217.506884644026,58.9095767959079,384.052304793021,31.5685165030202,330.641680378426,57.5991358091625,1870.58653120127,-141.739312337886,229.462242027686,13.535864024591,513.804984186142,291.581079958586,682.104781532555,37.5355643741656,679.211085136457,6.14388272836741,277.386058601349,52.2101283928627,746.191609992162,129.292248364392,906.911811035003,-36.0691855139252
751.545560795424,375.406313463618,452.858167626915,227.909734110276,368.227294725541,96.1191858161467,274.163191042243,10.9274871896879,218.157364829788,59.8679242719646,392.54911792656,30.6635212746662,335.113027998573,57.591459789337,1886.54590329405,-143.836909362374,230.847980537921,14.5683452651034,518.821140705336,296.689687101862,696.328844477227,33.1501272406663,689.508945668478,3.25342359070921,273.08658450483,54.5588282177944,750.319319161313,127.93897891416,913.566721411485,-37.5196446045354
760.918190711572,379.891814406681,461.594037950981,228.521806819455,372.884837184053,97.1105600095635,279.843632806657,8.16427547720901,221.6371061422,58.9684538202393,395.217004114163,30.2160766324907,335.946256984053,57.889037526657,1901.05146675043,-146.189957357379,232.968710943486,13.9595754023722,524.554068735765,291.119374946124,684.454208185382,36.0847289440023,686.330661918817,2.25742175569664,273.547172359882,54.7206353595766,752.030290271032,124.044051735432,909.697173959085,-36.8912776802323
758.623196213877,372.720644145929,459.296417502477,224.01282711179,367.6291928247,96.724062532549,271.64114813707,11.7892683530523,217.565727290957,59.1259521029824,389.818444554588,29.9802831742566,331.418584556181,57.8829593143115,1875.60230311784,-141.012772644256,229.813460003559,13.5939139250375,519.952238283631,290.460717530689,688.233164772089,36.3525659344131,681.163293208993,3.603127461121,277.48781905471,53.9295140657927,745.433457965818,128.841199324515,908.436571335032,-36.0772071221313
746.545082404062,382.339109493146,469.621550244842,219.610163100663,366.950170117297,97.9867913403977,274.29474511178,11.40963311534,219.541702329335,59.2403682063945,393.291515654869,30.8422275985665,336.379033070416,57.200206089555,1893.70463619805,-143.965293466057,234.487067161062,12.4282327206989,528.902273813314,294.62806692136,697.312518495792,35.4810877671664,693.510934547544,0.923271923206016,277.006437806694,53.4851085322482,752.597311239161,126.434983417124,914.791379290035,-37.1953284764392
761.24903238239,375.628217671816,480.988610291787,226.665005751807,376.597697849987,95.5488680707199,280.105061388502,10.543507981648,220.521066950536,59.6341034157115,396.651847010128,30.0459903044516,336.055945104239,58.0220051019676,1901.44622143181,-146.568648364015,232.806022529071,14.5945313060565,521.820908094462,293.897026100447,689.870594132829,34.4595923551954,686.805409438172,2.87258439762725,280.567832922268,54.7395883742453,752.003464218573,128.190634807112,911.939364052596,-36.7205157023645
753.884659118213,377.181201544027,452.090405318336,230.81748745649,368.455387872518,96.7219106133061,274.957286892944,10.5949608799949,217.917531118604,59.3504590504113,392.520825696296,30.2197722603515,332.334299365776,58.2734209269383,1887.23540411433,-143.93052370291,231.566411201258,14.2819994234719,522.478085296685,290.930866110426,690.488164881598,36.3477069598166,684.000370488602,4.31029090749605,268.309263754949,54.0565896535119,752.125034650513,128.839960454111,911.964554648269,-36.3489044336257
741.015336637706,381.70893095626,464.614885401605,229.673991247423,370.937331546426,97.7884419912839,276.22968531289,12.3365649297576,219.844718021729,59.7790899933632,394.888531514426,30.6634699613491,337.91623281703,57.1575536277304,1900.24156419998,-143.317895412752,234.086032912705,12.9740886081307,531.883539115335,296.026041036998,695.71872859916,36.8268876553625,691.586821068502,3.70793338515973,276.436273439691,55.7438712077542,755.980936204589,129.156464126826,919.319461054188,-37.8212921621956
761.537940339867,379.854721219942,481.947320775621,226.474159598086,372.415872904223,97.776926186717,278.944580750731,9.89830790766919,218.815489041052,59.2396284706106,391.422033479025,32.8703163299022,335.070188756871,57.7183068894762,1897.86529716661,-147.284559093279,233.042101716959,14.0785767575433,523.248719846939,292.512986447482,688.15205471875,37.2568434359121,684.094262496846,4.12373318975709,270.633903577885,53.1010643766215,752.961361196085,127.49988468697,913.265632309809,-36.8210715892966
740.703071586511,387.785645650241,463.17804448795,227.092076021383,368.648857441086,98.348018722781,278.297914122097,9.29244591855657,218.884751492261,59.4568378550028,393.542393291261,29.7347675528703,335.174120091225,57.6806051768693,1896.07247715277,-146.918799148032,232.585314831156,14.1101962373638,523.230384417153,294.289877880372,696.493226071881,34.1358755587282,686.972349084656,3.82364748528448,276.578376944044,51.9081132810748,752.331765285243,128.547203117261,914.116837367266,-37.1738448488112
756.834286317421,384.230159969064,482.420026256519,216.224736626837,371.634902374573,98.049635948271,279.487787706978,9.10619276497593,221.296687761688,59.8138570298768,399.662569626451,29.1366071460666,340.745372684817,57.1574611948404,1915.05064507666,-148.255397824673,235.296233559538,13.6106247481771,534.549556090853,297.775876081451,705.523809106355,37.2582987081646,695.474452297216,3.19651665075729,277.521989162272,54.5765209402079,753.686960557744,129.875603138401,921.551071977394,-38.1922267776477
760.566002704366,385.228813885918,463.219076248226,228.421052417751,373.846099582381,96.3224141481269,280.512165738718,8.96251341435891,218.111452388083,59.1191008899192,393.353060372786,30.8710406675511,334.722982568442,57.75209179245,1896.22056861392,-145.325837987153,231.379685076263,13.7208677753361,519.724491402534,293.19672916769,693.388261527307,37.4791503137836,684.815542517864,4.87110845257173,266.451355478928,56.3576486046911,750.133872462116,127.926630349848,914.438441737641,-37.0030042859566
748.791823792933,382.044917930346,461.744240897713,225.157719279039,367.923071824403,99.9485104726077,277.096997041644,10.3490777463363,218.875869962138,59.2644422026445,396.057722724977,28.4301837647285,335.353126427737,57.5204691484672,1895.31864155228,-144.873564128775,231.297811390455,14.2699029503751,524.989920225251,295.037098274333,697.719606209445,38.7563658737253,684.698654895906,3.9696045500277,288.453690976314,45.805663111804,750.852910747547,126.073152433557,914.544116061219,-36.4605442303531
