845.51700778904,370.695741619065,589.381292233548,234.024288045158,425.037658582851,90.0833145312679,336.948079660928,-3.64665513064136,252.193441519815,56.5183082098607,468.020494714823,11.4159637958037,382.784455729519,48.3675743287808,2089.27674464309,-204.745572353033,274.057606170191,6.06674825515005,624.010636227346,288.695618789525,889.893402246507,20.7472984600917,750.111989073866,-15.6556782031922,338.120776268376,48.7093865133214,883.066298081916,122.746319559306,846.308742176219,-24.3233141693927
827.936857400094,372.107264447868,570.965738660453,235.322139888564,418.484105252485,91.9750106282818,330.65792402555,-1.40911307726125,247.383627701795,56.4863237032675,458.649511947317,13.8285160590922,376.259017861104,48.4667171922623,2065.12061139261,-200.660065333589,269.030230516939,7.57684572689352,607.525999714764,286.327487328311,871.656625415442,22.4372492311372,741.955584633272,-13.0772898922847,340.298770936601,43.1355163863471,881.521149751208,121.33964597484,841.208515124458,-24.0909392775065
823.96393742962,374.368520949001,562.589222352389,242.88474097296,416.161628756394,92.1510485451103,332.47431369262,-1.92729709494813,248.481801360857,56.2001651088251,460.215521965908,12.7732688102134,376.499890567051,48.8731536077285,2063.25301190556,-201.705681455048,270.323139725802,6.59991692492174,613.171716277304,286.97665305839,877.00121095145,20.0013383237229,743.685441086707,-12.0913877045359,335.230843660523,50.3518537188324,880.880528614647,122.817142424407,842.328274231009,-24.3927917500884
844.112930646141,364.845509400392,597.776302079853,225.296985932665,420.202833121902,94.1131588117574,336.784088364722,-3.04823537662676,251.694273462467,56.5451072040554,469.032004694378,9.40683084523194,381.995225966705,48.3633213251847,2081.90864115458,-203.263421594864,271.836011054358,7.42848909202024,619.280579434568,288.729321893481,889.549824883393,18.4685761343095,748.002044122195,-12.1662513023328,341.682191370541,49.9131293179299,886.015354025724,122.576057752266,846.524804597598,-24.9875277267558
816.500639957426,374.165863229136,560.587424591455,232.27553697888,415.637074451656,91.3831272347135,329.561643101101,-0.412353859723704,247.674563217089,56.0075131528779,457.497577614846,13.3701701164981,375.969341859819,48.3784099719985,2059.44808302614,-199.811203934145,273.097520596822,4.03119471900499,604.653956709336,289.186358363336,872.866485929802,23.1193652906644,742.294178432954,-13.5129121694662,331.972925965621,52.0322988725324,879.110156058322,123.819486063505,840.750856982383,-24.2819741259399
826.316112011153,373.330049501143,570.681037822417,234.329345949091,415.241714502817,93.6979514778764,330.633736842173,-1.36018442300939,249.815745653918,55.4787634841628,458.822401068603,13.6564150419393,376.541125124702,49.2332110707851,2063.55304763793,-200.349147812455,271.856931126006,5.99616336655092,614.366842025834,285.618455623776,882.192330484942,18.1163424858053,743.757183031451,-13.3602381170505,347.117748157734,45.3586111928377,879.664771207048,122.557638531833,841.637265573576,-23.9856609811412
845.982703535592,367.631330662197,600.058011554489,223.638570083305,422.440673646135,93.1918575084477,336.225343467354,-2.07673446003844,253.070014866838,55.9598903100717,468.012899103816,10.4843863449272,382.920416309076,48.6597560575634,2092.02861383222,-208.199002820521,275.133396380598,5.89350979280081,619.16547510694,290.738698404664,891.756954257367,17.5460648066569,747.786719200175,-12.7069222533412,333.649329613203,56.15447442446,886.139848290118,120.029668450846,843.76050195651,-24.7592209785996
814.413638915026,374.003559660408,581.7336111736,226.142283270117,415.55223953151,92.2323168086755,329.239739985869,-0.951875976083077,248.569928279725,55.8585775913127,458.832702623247,10.8068486372092,374.186767614676,49.1407089242278,2054.56615289825,-199.142095330875,268.017191563027,6.46675159758463,604.16999439137,287.288814197258,877.102787310817,19.4742416362781,738.309315532333,-10.1417325405937,337.252972181825,45.3814455423499,872.698932321906,123.893384942514,839.585020299905,-23.5848154120167
827.644575638428,369.978307243821,577.839338632292,228.864642406922,418.663057696466,91.9913902326287,331.718849984305,-2.36169190173313,249.96331437571,55.7310491053557,461.149650941546,11.9125304626614,376.733092041142,48.8956483376093,2063.76934349089,-201.706946613189,269.603836932774,6.60402669401284,612.024257630302,286.991681719258,882.466836234194,18.5961241033107,741.956825589849,-13.7550412937327,345.436398228352,44.1340694563717,873.137825238799,122.519301541092,842.224774317461,-24.6961085533817
840.546279295969,369.394174475984,600.35093129457,223.990403855273,422.082953194149,92.1162627342905,334.581324290262,-2.54925503560477,253.340994459271,55.9527800667856,466.943766381524,11.2101916213669,382.250026613217,48.4816550562201,2076.52881917035,-201.385096925996,274.227184799995,5.4500432155358,616.22748971429,290.878130556347,889.175521974101,18.724954282693,747.521068025557,-12.8145030067928,347.525853507155,46.1277591085033,879.858492462846,119.137389586374,844.760655366659,-24.2561614707016
820.8152732869,381.174532994262,560.02471806104,230.597864586191,413.626443441427,92.6075436766392,329.362211106166,-2.32732550927095,248.213738454186,55.5328034599115,455.799357256787,13.7209746780801,373.369147441417,48.9435171227956,2048.60206018382,-198.946273390327,267.15827240085,7.25186330932396,601.872432300631,284.681554759519,872.15820276922,21.0548421908934,738.349652338973,-12.2229837573413,327.98762284216,46.9688827258215,868.960967494845,122.669148882812,838.72931116678,-23.5334336236213
843.342696725059,362.265590053467,590.627711023084,221.256078766384,416.152966293407,93.9403653165592,328.244657214774,-1.37990814070316,249.00516152133,55.9383798950378,458.798972434268,11.8810024915898,375.471580914628,48.9067168353642,2050.40616815127,-198.815676077887,270.409302871385,5.75426255455089,604.355998213948,287.644247834504,883.946243663313,18.6734875543538,739.574794453385,-11.7459823348738,329.20896845007,52.9500644692404,872.144873296835,122.17113308357,841.995722250102,-24.2400197946113
828.196421255593,373.857791379316,593.350990245748,223.238161029,420.716671399085,93.5464861401535,333.737338635964,-1.57329467676437,253.219288694608,55.608626241423,464.097004048598,12.4508559069991,381.275359775045,48.0603017718772,2077.40263673573,-204.134881336278,273.957642124093,5.1455211279496,616.555837924448,288.347360289452,887.583793911032,20.0447910088655,747.304545563401,-14.2330451171818,338.86987539092,47.5425969845031,874.033533554318,124.476620116515,845.846219413298,-24.9455932701187
840.791939391849,366.380906726186,587.966878583147,214.511972177158,414.126753497905,93.2217638831746,329.77244932546,-2.53276063635969,247.822412973039,55.7941325078431,454.287360067693,13.3638098308399,372.55951384068,48.2807831169793,2044.72023845541,-199.997916463413,266.516099933357,6.50900405193631,598.453435740429,284.59868908258,871.461176347276,20.3629371765768,733.637541873897,-12.0374841446974,336.695015978222,45.8907853511993,868.864621545649,121.757153219736,839.696982765674,-24.4024810048145
828.236713350961,368.70180601685,578.476560931864,227.601301365445,416.924625457616,90.6132658884447,330.115971189007,-1.9220900067654,248.377834607528,55.9446252500429,456.198729004981,12.8029377425667,374.506255829666,48.4803083717245,2053.87902434219,-200.743547775123,267.851433226788,6.88900781521421,608.350164774671,282.482210663488,878.991262007419,19.4444418889182,739.761227230075,-14.5138088669128,327.456846357042,50.0365030254637,867.821497744319,124.606378752757,843.510566824439,-24.9509064376204
852.936696776406,361.243601318977,589.299205434968,227.459582533335,423.806433931638,91.9817362823689,333.739235074509,-1.93952682386211,252.691741024286,55.8328013575033,463.254038021397,13.7026051519642,380.107524207451,48.3049642699427,2073.73950425591,-202.13663276347,272.776859068434,5.99947991728137,617.298034560841,286.374170573067,891.589503764313,15.5195235364096,744.875700755582,-13.8788707186115,330.100578923065,55.8737975217592,882.291393491289,120.721757108066,851.116965336616,-26.0711895643968
841.396910157274,362.841396371353,576.393731913733,220.054016866664,417.945414492597,91.9519219126138,329.405375557762,-1.81438976011578,247.325390231264,56.3556004203406,455.197963910027,13.9725657962144,372.338442931884,48.2951726548548,2048.05494518505,-200.092481581198,268.037615618771,6.43816430719542,600.539833203322,284.154512236305,868.109557224597,22.3095786576178,731.269174519552,-10.073934900356,333.725764178626,50.2235662413867,870.931534960506,122.504381849664,843.215884400354,-24.3155226050284
840.406295158972,363.995637947217,582.858950020762,222.092414647755,417.35793857681,91.4215805540661,328.430165944508,-0.912086298605978,248.780615806619,56.087954579595,457.166366132599,13.3202142504124,374.193017943061,48.046970440628,2053.94745429753,-200.008999957655,267.609101327335,7.43550853999806,610.817309169807,284.719772078602,872.880289477076,19.7780878248567,738.064362269591,-12.8923363983995,346.361571430236,38.2804484675275,877.6733586232,122.435743186538,848.595405103677,-25.6079959461168
846.620281334395,364.52903609164,597.309340940439,230.847833756505,421.276700953673,93.3174116627087,333.209214054879,-1.44157793928413,252.305902861193,56.3525198693322,464.108267394402,12.5587175686324,379.29944219775,48.6325865138183,2078.66530347514,-205.889739658411,272.331756498612,6.36696601065108,617.330627995682,288.959330642844,883.660051470558,17.6055572221974,746.460981185774,-14.5127057070202,337.191097046788,46.6770068022141,885.270441004867,121.807616231395,853.002459139543,-25.7003134307952
839.572017909476,368.034843167059,589.920065112412,221.595776578205,419.973123461167,90.6154667561456,327.829081521409,-0.907208653215199,249.110310554035,55.350405010839,455.714435371792,13.5774759177005,371.782512791076,49.0379917163341,2050.79872509481,-198.832531038158,269.958517454318,5.03773515345913,603.816637816594,285.947247048279,870.552448644233,19.8231485241936,734.678215081982,-11.3892294365842,336.808282790281,50.8072283612724,878.988766025792,123.026676723621,846.633196755527,-24.979606862675
849.738364175669,358.2656349251,578.056684501973,226.944184310608,418.040854173201,92.6671089644446,330.657165333269,-1.18235988518328,249.877061690469,56.0422870059763,457.663276850972,13.23348212994,375.180176249248,48.1882561580534,2062.1454184952,-202.567589252496,269.775667503089,6.30215344261795,607.583624199816,288.213086656491,874.59546550903,21.7992276468847,739.301948191427,-14.4473227308741,344.063690525159,41.9940585035422,881.471786863021,121.923724356204,849.628746306101,-26.1091068204783
851.090108020389,366.867021113478,603.359215221727,221.74591957414,427.550409573177,91.6496445631134,338.996410431572,-4.57713179401959,254.071745668036,55.6345529854251,465.392501240334,11.8347753932154,381.328312331012,47.9892339672673,2084.72577348825,-205.975025768286,274.535084813314,5.49639090020542,620.188663900909,286.753722378033,889.364719513223,17.9570541020228,746.168197635224,-13.9255608688259,337.634552740069,51.9358817204285,893.153351743331,119.729373582889,851.677349508305,-24.9615295743978
839.026715400376,366.532222499177,584.448239606963,222.847234584787,423.404449457133,90.2468449840301,330.962402833608,-1.93117695161267,249.366221856703,55.5387821501187,455.832311015412,13.0275019227635,374.085155746002,48.3980891796884,2054.95397204269,-199.749964554181,268.521086613964,6.42139169426974,606.055046538653,287.13623994272,874.696321241504,19.9389821680092,736.638859788244,-13.1406413066485,334.939246485251,50.0870035297407,880.435582113305,121.714571794002,844.938329474356,-24.600204943351
835.790590615324,366.14470163681,591.658577625383,225.466646188058,422.147616350541,92.5096748608267,331.275179554331,-1.51617002008069,250.694417036681,56.1022345067867,461.715691435404,12.4379869546741,376.7684050043,48.6679624076872,2065.99621282006,-200.338567654836,270.132320414469,7.13833216756441,610.367845734814,288.798045065579,882.412638676285,19.2512977628645,740.250827284634,-14.2874328113,337.057659681849,50.3058400376346,883.527691479411,122.121789888426,849.721924241558,-25.8007923318537
861.968182463618,362.89169567075,592.562389528641,232.631129014184,433.402230232762,88.7870000562716,334.628136079804,-0.935283912631988,254.59766709754,56.2112829586541,467.548752011124,12.3595147816212,383.67043205359,48.3083984653712,2098.5610437498,-211.173952114999,275.79667716692,4.6764699445694,620.21215266336,290.643463625587,895.018303696116,17.526756764007,747.011996363332,-15.1236353824523,340.649925875393,48.0913056292984,887.904386621515,120.557956159001,851.058260537701,-25.232743725291
832.888348736764,368.986703037974,580.617002788587,226.012410187991,423.322172465559,88.9075684928342,332.808021371922,-2.97307289234754,250.508131067477,55.5354079406366,457.411552219862,12.5536638483116,374.49365815926,48.2435013059968,2055.87228679589,-200.944020262493,270.165219708284,5.93253207383922,605.871740115031,284.675211518356,876.561326392165,20.3580829965704,735.267004616891,-14.8612337837446,342.426728394942,45.7211166798484,878.381267308695,124.424987045416,844.807626540693,-23.8738717815612
845.486539055451,362.89573255885,583.417323098532,221.988361922693,420.671866632074,92.9765472920491,332.441132036539,-0.938410001962581,250.932667789633,56.2361684011602,458.892120780467,12.8975218695872,376.931312334344,48.4130545826488,2072.78905989012,-204.996141830833,270.799017632893,5.95916197498541,612.13560165163,287.809876666948,886.824303281579,18.293840722791,740.204411935918,-12.374914269067,336.223754858749,49.5837297906241,878.589141750937,123.588579679729,850.190974853723,-26.8285446065749
841.071071879987,381.545531939172,604.785417242304,217.706398349199,428.856565294269,92.3941195621634,335.881081181132,-1.85438561758346,254.393685923102,56.1734961750687,467.385702821329,11.8546372816378,382.224507544613,48.5331126369783,2096.6222636573,-207.901619764864,274.821747946566,5.71006447025807,617.161623803117,290.909411864051,882.694791846977,21.1646113631729,740.058979778681,-12.0232623930431,334.981910209177,52.7694301137011,885.918537595216,122.875714480454,848.813984090464,-25.0117478937897
828.435414739197,367.619940854587,586.365436737173,222.31350470711,420.967768318026,90.189979113034,330.90199258052,-3.02103575611722,249.486056201626,56.1423730121324,455.254598820096,13.7041543865306,373.479814166878,48.9689530726912,2059.057733031,-200.237183770931,266.475631968026,8.05667954864649,605.084955662959,285.648273547053,877.38737312867,18.6882448460565,733.855676189185,-14.2693060374617,334.050850086278,49.1236847607983,876.758439471724,123.506660500629,845.582138796297,-25.0469642478431
846.650516742469,361.768648539218,571.307747274168,237.304810362381,425.460439303723,90.83154745753,331.702538960041,-1.63091655833769,250.47674922878,56.3507219269221,457.16146818668,14.167552552807,376.235522674704,48.9088136168525,2072.87387181654,-202.715854607443,271.584905313166,5.55031884464795,614.237403701864,286.218553667732,882.60967840223,19.9628578568286,736.67460947037,-11.3726219651326,323.569359826078,57.7679909816869,883.775225551955,122.383012689793,848.278575858642,-24.990065290803
842.878592433374,374.755618724464,588.992501602571,231.222260793052,430.716037918929,91.4610674563661,337.798985416889,-2.72497993212347,253.956441281824,56.3771784558958,466.600291555273,10.9501637386745,380.681755018917,48.2012275736245,2094.94118519166,-208.810012035455,272.059979499771,7.61625371303236,612.820926975608,286.913535572979,874.991096618131,20.689741689069,735.95380800776,-12.6251224011902,343.433182305607,47.5229795766348,884.064460400966,121.791556790117,848.480997996039,-25.709608846809
832.337826064981,368.10814393603,571.51056340897,236.482183920032,419.373237203212,93.5759945820465,333.261642977582,-3.39480056813334,249.658762552296,56.193732161406,456.403374163653,13.251975235628,373.70794567241,48.2382429924726,2066.16228346536,-201.162290852809,268.571900173594,6.33771464041602,601.734766964105,288.996433859304,875.780292482157,20.0930766408298,730.485803258667,-10.6997383932402,330.512602671794,57.0542077961125,880.075349242522,123.38279612415,847.220995647063,-24.9035884525051
827.743109373719,374.714858255805,584.077141211414,230.683747595243,425.997525002884,91.5053028123114,333.751825955083,-2.66634607129829,251.443823296714,56.4223042473536,455.306998773686,15.8191080115467,377.395414810576,48.6831173117055,2085.62454487466,-207.142576958868,269.959453422051,6.23771225471758,613.940521992386,288.033104823066,880.159387368401,20.6327365242217,734.912023884896,-9.38290844412196,336.240693935526,47.8787913592371,890.8971252723,120.089225705134,853.601873417535,-26.1659308476474
849.153075308708,376.411397077679,596.160023243512,232.306959254635,430.969048418913,93.9134926131575,337.819102891063,-2.23534252190196,254.882938303518,56.3785608592957,464.729148978837,12.0743968249074,378.929043621071,48.8669960503358,2091.74223654538,-205.734167469872,274.832658402136,5.72883723352433,607.671482130795,290.311664723865,876.502142688866,19.1103336175059,732.662499126596,-11.062330666357,332.140289329557,56.4462494333615,886.499223470467,122.604429714018,851.871195647829,-25.7975379082476
837.831061185634,369.198445682275,575.194184686459,231.538649692607,424.158356588347,91.4581090206335,334.725567650278,-2.52927505371218,250.192771379791,56.3514594813988,455.82484165227,12.9975511947771,373.94547977326,49.6700009204306,2071.22918063509,-200.924023947278,268.417123190825,7.21095184299327,606.146954911594,289.338057913711,872.188821313845,21.71746641515,734.693962307165,-13.9713384545946,334.644880173919,52.0006593724569,885.198596122198,122.576128201586,851.161517852084,-25.5710943552993
830.676062185557,371.729039486856,581.821327459446,234.135561243574,423.813947714817,93.932048384363,335.509131114752,-2.5245426525253,251.99345960842,56.5062597598731,456.598045924896,15.5458511280874,378.579021937717,48.6903467088941,2089.79357596589,-208.504512063266,273.731505169345,4.75416578989528,610.303387121786,291.452938252659,885.494946138759,20.5832540712428,737.130086654129,-12.165402087663,331.391265555138,50.7469852499104,890.737917263914,121.526762372069,854.785458190298,-26.2824438273289
853.260725628623,361.146697648915,595.682443439476,224.288153081996,428.308445035462,92.7650498432646,335.841938458067,-1.32592487685814,251.440552470284,56.1721961160132,457.280532041472,13.6237695095816,374.979499395211,49.3353761353089,2076.62302328726,-202.285853803607,270.516546866068,6.71640948649615,603.361963522414,286.599307645596,876.391083607463,19.1841808074946,732.270389986518,-10.7934731247435,335.475306348383,47.9796074336016,885.045968205895,120.915619710321,850.346000530672,-25.687379804031
841.362301480953,361.016027474348,574.029451153712,240.125657033976,423.595988484924,91.2907599083135,331.396051808623,-0.726069653786394,250.699843910715,56.0012710698336,453.679019325404,14.792735407633,373.878395760773,49.2955138379798,2067.97514452211,-201.374621471119,268.583178554199,6.28994215597412,599.849872999762,291.714739280923,881.771379921785,17.0784982065319,730.996235608546,-10.4801585125198,333.220855854153,49.6504216256718,886.375451093154,121.451645648227,849.192489501295,-24.747460187073
848.879511781805,363.307185817943,583.807734549092,231.444488320425,426.617142112294,92.1206651495318,333.246515821572,-1.30955457515125,252.528710292243,57.1355914094553,455.707956154693,15.9902107708759,380.375957200145,48.3929502927301,2091.57441933836,-207.779686604384,272.229047172943,6.54818112814812,614.80178004933,290.140949083171,892.542495068371,20.2985645532551,737.555679482152,-11.3590828619266,335.390308649607,52.4906034661516,892.705259292112,120.511095619734,854.285307487407,-26.2387181355736
843.286438091409,368.789728098108,580.172241157273,229.589787450575,427.271789443958,90.8335928685543,332.736598230279,-1.132986316215,249.252920243095,56.5988764250552,450.658671549478,17.0017850417404,371.918475710084,49.7650063895943,2071.80001160126,-203.978132605201,269.795896880384,5.5366181889744,597.007823850938,289.405488933992,876.138709777443,20.2061803363675,730.536476749956,-12.4095638659494,345.77532119518,45.8725296069196,884.080833221571,122.191251552521,848.159996724318,-25.4129347593389
829.798184863115,375.274279757239,574.788470089548,228.409864718614,422.276713008944,93.1899272169448,330.712013896415,-1.6373237197988,250.606754229079,56.0578874419778,450.668834425607,15.5727638938942,373.688855712124,48.9459784552396,2069.08723685118,-204.788925014449,270.963125442077,5.73070375543491,601.928752576691,289.849150173792,878.993840574506,21.9133005345642,732.848160445005,-12.4862834483477,335.895504672317,52.7362613676972,881.450218142939,124.870326140611,847.122823749924,-24.8851764927002
833.485895607415,370.53064277613,591.527932322675,231.655820584788,431.204792418347,89.0625338719121,335.044880076365,-1.53683754685404,253.43249748536,56.9710914034563,456.299477182707,13.8299474868346,378.80014529059,49.6058628559409,2094.82919725937,-210.211867514485,272.036364683617,6.26829392269922,610.528275159933,292.618049923868,894.537769177277,18.4234526486736,741.023359349693,-11.2687201406989,344.945337775997,43.7327830414871,887.252941820746,124.224486369649,852.966329783286,-26.0242128757061
836.10107408315,360.618468325682,579.110553295283,225.703105421446,420.892697074267,91.7601581706102,330.92167700437,-0.747093891420624,249.345436393644,56.019047905034,448.630823002952,15.3525923474491,370.643667569736,49.9980351586922,2063.04678683137,-201.702338601856,267.429503541452,6.6699072204587,597.206768801638,289.612709295,875.312396146655,21.9601231316064,731.833474401814,-10.8384176063458,340.259431434414,47.4795004070897,884.228246320843,121.709678296865,847.134497133929,-25.4823230181456
826.949521458988,362.543130755883,562.071620791785,241.268332140274,421.495513713237,90.8828798866481,330.989502780978,-1.44850291580929,249.267524476126,57.1521737063332,448.350501430273,15.6734711962867,371.24305847209,49.5182356581781,2063.01671511847,-202.628375738565,266.782713448416,6.51231696797348,599.726546916528,287.863973356682,881.061704288948,19.4703317622077,728.474730006301,-9.77886256608811,333.982405184704,49.5379665696805,876.846106638137,124.570031272654,845.889320395529,-24.5115352641016
843.16667325709,365.463747686128,594.762576314264,230.816540586709,424.885400833046,92.4830951683329,334.740447440383,-1.76110990115079,253.827491843317,56.66961348897,454.727151683535,14.5193718352352,378.077458308882,49.1663490990044,2085.59070669871,-205.856322033027,271.217014627119,6.66255658777991,611.802929714445,290.144680754361,892.355312234274,18.5814127026846,741.886567810211,-13.7899953518229,336.692392880809,52.6196153833302,885.824638372742,123.045965365118,850.76993704626,-25.4082646637485
824.503458636355,370.130989041368,581.885403297825,222.201235945933,420.083190935196,91.5245395562765,329.939177573394,-0.603972701479862,248.620171723117,56.4507201354658,447.713058545428,15.0799383954661,369.626408342938,49.6156002110137,2055.99390970906,-200.421232924182,264.745610207332,7.83599700708495,592.911748687424,289.021000558304,871.805751003396,22.0398014564129,727.743463783269,-9.95249392586833,341.546266197824,48.2036723278434,880.965027281941,121.36753871738,843.870830941952,-24.1721301332253
832.088131818489,362.095290210265,574.09544692013,232.281065718978,417.81886066126,92.7010361377317,329.078723023842,-0.195700982972928,249.246872612676,57.186697799764,445.674903111949,16.3955030196681,369.296223330383,50.7276941215328,2062.90396686431,-202.442935729349,266.919507029228,6.57871939361565,596.888746141476,289.586266944523,878.380023231784,21.395643253459,731.308486375966,-10.4188083503473,339.155615367068,47.4258288522455,876.277437057622,122.853090964757,844.533357768523,-24.4861591667402
823.025104452022,367.751905217317,592.268039745292,234.839434967499,423.895454583985,92.2030551485911,332.958439179908,-0.714811280266592,253.028209711959,56.944613606738,453.414309384747,14.7958535468706,376.870362642874,49.2789697139768,2078.0985424191,-203.49338480944,269.672731278484,5.58876107139728,606.99534872604,292.070177826111,890.482417375553,20.0576523826541,740.7003005316,-13.0091271716569,337.723429175478,52.8192883712185,889.108599804894,117.856750108215,848.892791545777,-25.0363856577878
821.588126770821,373.869835419324,562.852678754787,228.644983086449,416.300974922757,92.7834773513813,328.831789318267,-1.42349169695403,248.45988252878,56.7976840297514,443.004137268026,17.0079240387185,368.139628791032,50.2712828688366,2049.1978319977,-200.154746448181,264.197953444827,7.0262959537772,587.416159509045,289.77174321797,872.882453225359,23.533977469636,731.464663643689,-11.164651203925,337.712758664521,49.6545525075144,875.166407102258,123.673226448969,842.935248489806,-24.4846742760032
827.462140253326,365.503157086703,567.492214481712,234.477316959862,416.234356298132,93.6237882189472,328.487105617951,-0.913358159249501,249.128381925685,56.8711848098125,441.847463141556,18.3282434831689,369.642719672389,50.1998461506567,2056.8807262181,-200.274004235454,265.686792698714,7.24536490532052,592.499892350841,291.674464989208,878.864018540552,20.4459991121118,731.080243784738,-10.8461866918069,330.168770359776,51.9851881434566,879.042484041783,121.42105890185,844.937106733083,-25.0394678340683
824.761441986938,374.53134912736,588.21149504266,230.723963823227,424.079379216855,91.1617934120179,331.292126609085,-0.25729815945197,253.354730750191,56.5487491689889,449.846326149895,16.8820706452668,375.412554350786,49.7478010568645,2081.10341390879,-207.918414193861,268.125279135815,8.23541238442735,606.916191511182,288.329835940553,888.708991530559,20.178556876286,738.460263592796,-11.9660507188238,339.325041167316,45.969744259177,885.627297556497,122.210353148344,848.336147219897,-25.0848968097215
806.186434504244,372.683567728569,573.134335104413,228.407732244326,416.832430710789,91.7694257453109,326.223429802792,0.427341002546351,247.961718783413,57.1155122045686,441.442868548624,17.0713314770842,367.813277551201,50.6595915313163,2049.458095488,-197.860619376315,265.434255897526,7.10246565552942,587.780190381201,289.742122975653,872.208494302429,21.3778254150751,729.800709465267,-11.0757930398774,330.540401828488,49.3244438375013,876.25318650123,123.669808837777,843.734119774856,-24.6306187038714
804.765056456375,376.537893036529,573.161727966493,224.574919954836,416.43024383441,92.4039344078173,326.994351317494,-0.6547002135441,249.916540813932,56.7044067011693,443.246160077437,17.1150435815028,369.668056263745,49.8568312402846,2055.94752221683,-200.436576238604,265.217572608999,7.99282974672599,592.969802246498,288.564197760977,876.57346443126,22.9261467343071,731.193475971707,-10.4483522829546,331.074123949944,49.2942952266334,878.291998408729,121.946117409785,845.18321693282,-24.3871427688352
816.815427096045,383.130153511196,576.409416996692,236.425767120158,421.359525003183,93.9575140462126,332.54571900985,-1.41142056803281,253.150048683596,57.5930464176179,446.818037287502,19.2872987877571,375.440231610127,50.1551151757912,2076.66003947501,-203.025887608532,269.136492609918,7.55953496555447,604.086841648957,291.565258392573,888.926189393677,19.8327157862692,737.9600699484,-9.62672917124356,332.823653293032,51.8037293467338,889.794034998975,122.729439574593,852.392428262861,-25.493112919575
804.660245960614,381.725512699609,581.291134367171,223.76663790797,420.261366956925,91.9675774876872,329.988637164772,-2.02502863644002,249.826054860471,56.820512772288,444.659123466731,16.5953256287891,368.251549746286,50.7167464136608,2056.86327979095,-200.474450274475,265.404274928891,7.70175987283627,590.78531357192,289.745571894904,872.611340913462,21.8285858353275,729.80880082633,-8.55598306538288,337.431950691426,46.1886625034163,884.360351935217,122.624668602155,848.879380528925,-24.4162041365613
806.104975278241,384.709268381702,573.423419050803,234.742757976836,422.069743387695,91.5311190448294,330.227662022941,-1.94585385059005,250.891090134182,56.9746712011364,441.777028545387,19.6368743953939,369.488607481799,50.8146014879395,2058.08374054393,-198.44379974742,267.553191735279,7.36488965632628,597.976570932368,289.698252253791,875.764974077292,22.3467892430767,736.66115201738,-12.3615428243201,340.252448506632,47.65187756522,885.736650192261,121.805050565466,850.197244642664,-24.2367726812366
822.176354471471,379.116792170687,585.054829948456,225.598860706919,428.114591488903,91.2230064046271,332.663042174719,0.0420262156202887,254.954971298364,56.9750521118957,449.91121515339,17.4368648849316,375.640497647684,50.0998495780933,2077.07823946721,-201.977142129318,273.018183593398,5.70834248085739,607.234299847635,293.523114065091,889.148536737889,20.6639771600637,741.4071603141,-11.2335765793993,344.154700123932,47.9629695210102,899.674678351617,121.497237280559,856.657865495818,-25.4055792959619
816.093546115979,371.784921629816,579.38291180954,238.498189886358,419.950721120718,93.0622981919395,329.176744797756,-0.189363104666527,250.9000015264,56.6332033828533,443.488531843062,17.5019579657651,368.687917485734,50.6245744624719,2054.78423552533,-197.387029784564,266.312419007503,7.46604701927107,591.028413365191,292.57060049498,878.297437974397,18.9840623793544,736.743033230303,-11.0094778390101,340.495511941317,43.3317126114709,889.87916855117,125.458431874762,852.747066394368,-25.7495743383288
826.892271265549,367.468574093619,571.331516477003,235.512339677754,421.847466554829,92.0855437245166,330.989571273915,-1.22549741373524,252.534342203695,56.9635438080886,445.666556761456,18.0383792584262,371.515174258333,50.5361649934359,2064.33618784014,-198.820943389304,269.888469512545,5.65849180707173,598.457655473638,290.566855846168,880.079303192959,21.0796968893485,736.209278343639,-10.5611080577636,324.591958441268,58.5764287367184,892.872479031985,123.806389316493,852.313579477329,-24.3836089573259
827.559826863036,378.802149896842,599.601325847054,233.10281652242,428.725649140104,91.5201876757856,332.854993252853,-0.727738570902985,256.020886789493,57.2224671469084,452.085240780264,16.9572551313301,377.901853371846,50.008554785038,2090.27998528511,-206.990829965062,273.264768836604,6.47268747934904,610.527670746991,293.409122498581,892.21479088986,22.2314729583643,747.808969279865,-13.7278399375406,333.2486602438,57.7343418634176,899.325814368167,122.913036509482,859.861034822223,-26.7370876731898
833.226670384599,374.387515670035,557.961495340959,244.217296164252,420.412524408847,93.8478300697548,330.338451569288,-0.0520706035817974,250.881405675807,57.328265996464,442.781237242845,19.3374795772163,369.743474063773,50.8433377555379,2062.53276396879,-202.50885973906,267.855594326301,6.79625258033837,592.243318547021,291.620860184234,880.502896196275,23.0203076892978,737.189940385368,-10.3344160724488,341.902550142527,46.9128860230922,893.18877990896,121.344204701178,852.139786339457,-24.9200305334138
825.902182050733,371.688831727868,563.261904766668,242.074651720914,422.42588718719,92.9434390989794,330.583211397629,-0.114446867744447,252.854505582324,57.1992643101973,447.668734820478,16.8217355917642,371.683094930203,50.8555555294922,2065.58214783365,-200.997473193958,269.271673810852,6.54370382742307,598.573825298911,292.461351908182,887.766894078597,21.5095677371592,736.414105481436,-10.6349231075438,337.148203666562,49.0065209607003,890.892617209399,124.681203849182,854.918728765041,-26.0807214207047
834.080745286598,379.647024754883,594.815798192411,234.435147169511,429.457567055854,92.0105768950698,332.201232101519,-0.557119759413745,255.741198639139,57.9722533033927,454.034821684343,15.8769815224654,378.351369616285,50.1319183376748,2087.26006645166,-203.385693403277,274.207824516352,6.07179556130619,609.36625386652,293.901507595966,901.518102282505,18.650947729662,749.024620172461,-12.5141862940852,354.709721820682,40.0724164719148,898.176724730244,123.95459748276,857.899436037711,-24.8828098053102
821.965909219644,368.543994828815,571.450318778794,231.652802176505,420.017934509897,93.1591325183518,328.448643795263,-0.943343018228019,251.090918061653,57.1413855065458,443.690923641554,17.4183865318224,368.666797246561,51.2517572518578,2056.35299204057,-199.415042293298,266.085644164082,7.76104343094871,590.336862257987,292.274345993103,884.904566912299,18.8449473475781,733.723704068081,-9.21069753923314,329.99832899685,53.5515709119124,889.468815292716,123.43661093969,851.55783091331,-24.2449777305599
822.364699190882,372.797585683072,574.794511179966,233.756011705507,420.942363039539,91.9444842397544,327.495297268917,1.05321330232203,252.175914313404,57.6752691542782,443.804391261703,18.6135790938696,371.530979300944,50.8096501933952,2064.22778063804,-200.010374181153,268.801631143006,6.46974808149944,598.237448618773,290.727057313785,891.433042759445,20.3227564567074,737.40930285075,-10.0610101807536,330.255718013779,54.0958324602322,886.044008418252,126.612160452945,853.59174306802,-25.191953776745
828.162411159992,374.607166889489,577.238289557514,241.888536577152,426.358943161883,92.4001995951549,334.446276613475,-2.0738025861375,255.154883718767,57.7972966562917,447.701059135747,20.2742796547491,375.198612935311,51.0056905373209,2073.86287750991,-199.658787006384,272.959723348907,6.47651139050259,605.752300892084,292.877914769382,896.070452739979,19.9724470370303,745.017392807577,-11.544770612483,333.868673110187,50.9552471751799,895.761265413347,121.282631722552,855.496230505858,-24.9065863326809
816.121013203225,366.527491721363,574.392795317369,232.223828372826,416.633123866386,92.7361985797418,326.64377106422,-1.12154624831753,249.754809377488,57.3390912784728,437.673411194091,20.0379854640619,367.352590173053,50.5902903128264,2046.32460630935,-200.818721890423,265.961835157326,8.0504481876976,589.361265866684,290.496402352182,879.874207505401,23.2837663056913,734.824549372796,-11.5498571626014,324.684654694645,53.6323188869391,884.92739513584,123.937855939153,850.537052891678,-24.9102462456805
799.988989358838,387.738293455914,562.01253299552,238.917452027871,419.574637237772,93.2047082915593,328.489291504265,-2.07022601717843,250.975197274814,57.9673352737823,442.208788322886,17.6497888529432,369.193496175729,51.0532007701461,2049.36921302978,-196.894561252181,266.630123439223,7.84045912762031,588.819098786887,295.106151369136,886.652259909112,21.0081522441774,738.708724772928,-10.3452873855185,342.573495889327,45.0210026423378,889.812864654961,122.440267234335,852.729831578268,-24.8767909720412
838.658521791299,363.436058949588,579.694914556733,237.829355352759,425.457021015357,93.8704512823271,332.403903186888,-1.43486749011758,254.516815726865,57.8433271448857,447.587976870057,18.310930156164,374.189958441667,50.8931683538332,2075.42454158133,-202.716099459169,270.468593271274,7.44637776959348,601.398725201865,294.783714910322,887.981192232984,20.3375153466068,740.558518714063,-11.5407817610695,329.820188453743,54.2041911097668,890.390044076422,123.776910098959,855.498460487354,-25.3708977310186
810.75934105435,374.749194692588,584.96625214745,219.087023528817,418.377197337963,93.5825937859506,326.290724052393,-0.0565968247781708,250.283700705742,57.4029940344548,437.747228907191,19.2358249027063,366.116566998797,51.1445659103566,2045.4618571163,-198.44118763212,264.789159768266,8.37119747040943,588.486137532029,291.546542231985,876.576817630588,20.7436922433944,733.183956876952,-9.26826610206117,333.861721781037,50.2079361059718,885.855778577714,123.890433170624,852.989919004255,-24.7324287523644
811.698717373428,376.897846172714,566.507441038475,234.454662203004,417.775311617082,94.2898763416661,327.461788178977,0.571413514197946,251.327851894045,57.518586407742,439.186501647615,20.131836879675,368.688632251004,51.0629378525554,2045.47918344614,-193.698121212723,267.535054192394,7.03546649877018,596.696480767687,292.147838086224,879.81796428768,23.1808629864362,738.650383108001,-11.3553872762866,336.31464645581,47.5008815391737,891.102846264514,125.73211792538,857.065630345092,-25.7239892140404
845.615167390419,357.87641310382,588.433138760677,230.446306711374,426.698490266088,91.4027347179247,331.930510166674,0.370422804098778,254.892939684007,57.2917814532412,447.900651955282,17.3045530691027,372.201722526705,51.2109515391905,2072.22359387612,-202.147963018081,271.039215659501,8.25888138523842,597.733206170266,295.880192843026,876.625993713826,21.7344901780877,740.552039795941,-10.4190590188575,333.815264234953,49.6444916309723,893.614376483358,124.34807304474,854.647219929586,-25.2876408211728
815.031418082357,363.472599426656,567.153715418721,230.391194605124,417.354088694481,93.5113663014309,324.361479683428,0.958666838228258,249.986370094161,57.4042245643451,438.10120828357,19.9893267558721,366.163138293417,51.0217351419888,2037.92370993331,-197.431797296325,264.920444047748,8.54176272274175,586.140432045896,291.989938170304,872.549361484675,22.5180693533292,733.695021299221,-10.9561657257873,345.086732014353,46.5824017768545,891.979341221007,121.506358283007,851.16980791026,-24.3015379040671
823.774109318127,362.985995328172,576.399427222778,229.667584920699,416.24816945325,94.2743050667146,326.524644261279,0.19269732170674,252.303348316042,57.381019001,441.156632487558,18.7960411249728,368.326433698658,51.2665582387925,2051.23165224215,-196.427639371031,266.860154407667,7.47297175141768,596.007970244491,291.749894590108,880.139541158127,22.7895219213036,738.922604276967,-11.6602064651002,329.395428483727,57.8770836601345,893.59476157413,124.270686105218,854.112355981037,-24.5501773753077
823.706225353204,370.335408452492,590.004756723883,222.17421050717,422.65344392252,93.1217168609844,331.910569239334,-0.658523308105948,252.917051734316,56.6105826824852,443.843531858423,17.9302800588958,367.688688611106,51.1929279436199,2051.98846590494,-198.46770414704,267.34718433632,6.46140132905192,586.121449242323,291.158071607451,871.316157960456,21.6596879514137,731.191833803522,-8.9886773268395,324.593328977131,54.5713726920087,887.535761816828,124.211294324914,847.998281459256,-23.4942288530483
817.363465805814,368.334598311296,559.652144206977,232.193269214926,415.894767333931,93.4609258219905,323.905546057159,1.37872114496786,250.936477857001,56.6615260200853,437.571867228063,18.4671732202691,364.917030090996,51.4282596277308,2033.80169800269,-192.867170798868,265.131885710863,8.3930430461498,585.289914003664,291.173085271831,876.671474053954,20.7018715453965,731.241448310465,-8.95939389288002,332.977433743032,45.1909777108276,881.482386432858,125.47356701004,848.940279196792,-24.427697190866
812.485155386909,370.694750866018,587.512173767362,221.94037652103,419.501996235094,92.5490217161498,328.605777689671,-1.44366199883786,253.210433481955,56.5161710741903,442.267402092546,19.3269207931895,369.652231583916,50.9007751171569,2049.71992648197,-194.616531136354,267.880049513478,7.38661036966162,594.780735371291,291.716288826983,885.285997162427,20.5969592928892,740.43434709117,-11.4579109700328,352.663844904644,40.6465295948301,885.499628545384,125.291810222308,852.545366969283,-24.5427309909286
802.361751756952,379.413695614024,578.691935570582,225.942955912223,417.419445251102,93.7056361591576,325.554980633786,0.230801943822373,250.074128213978,56.1176508949983,436.643389011743,19.8179439113535,363.908148043391,51.1991078594108,2039.32271061026,-194.515550794271,264.211694714991,7.52816542434938,580.796406069834,289.77835312393,867.699232573576,22.6198628391329,728.434818527873,-9.64861351520095,330.266770160409,49.1658908525147,877.696141916863,125.946725121743,847.859933723261,-24.0824511851642
801.113104432415,376.567250327397,565.910792907594,225.661359955637,411.956064356939,95.2712287915488,323.225425904231,1.1407293348078,249.180548387638,56.7127962810929,432.299545214813,21.3031584865935,363.266130560422,51.1823578745465,2029.2671847993,-192.213686625979,264.123865511522,6.74111770391584,584.664530596351,288.887384589446,871.882175787854,20.7146422786009,726.264894636314,-8.50898681560417,334.490794577939,46.3207203551919,876.715431259641,125.514551038404,846.818943629343,-23.9321183340563
802.575498206088,376.372259612982,569.267293708841,227.863616293089,414.421838333804,94.3404623068008,323.006692618509,1.87653257621877,252.670038528798,56.7252305497808,438.522856942972,19.0717137966414,368.499445328715,50.7734181364738,2046.40438844144,-195.939471285675,264.646474879858,7.72512047426485,592.130950162047,290.752675130163,880.68438838161,21.7909396271109,734.484304836326,-9.42219977739372,329.498661894528,50.7794384604202,880.833722228516,125.01837948221,852.017767462594,-24.8753108786435
812.385077499997,364.567527482015,576.815550520181,234.725148369221,416.780859517438,91.7503206636331,323.705506902497,-0.00918794800062062,248.869575635807,56.3054186315958,433.723342876505,19.4798259260153,362.775010675711,51.2296715170657,2030.73068569226,-195.065563844986,263.419649941243,6.771529182729,579.932764842134,288.249560565842,863.856564916523,22.5163236659049,727.566258944542,-8.7012520204901,329.58283087352,50.0221916306402,874.713680986285,125.06994155787,845.288801070988,-23.1474915601573
789.625439427511,372.613591375698,560.08630697919,232.734959977502,410.899753163169,93.7102289295132,318.829108769873,1.70443127216579,249.458331482494,56.0255089367826,431.521125743132,20.6515319552014,361.352613789171,51.6328787799746,2022.96329717102,-193.800917765664,263.19589451879,7.43453230413966,583.114900567388,288.619771468308,861.124742529243,25.4066509826804,729.08599656055,-11.1809908041254,337.402290631024,42.2148046281791,873.370977923714,123.023433870432,844.692368417045,-23.1426494456862
797.245517056458,373.847871158509,566.105526742246,230.233546212339,414.731670401898,93.2045410509946,324.333166357075,0.925063116959232,251.460422667774,56.9321774294063,436.575564907888,20.9694476737803,367.189999377941,51.2170485653102,2039.62097294537,-196.372099201297,266.814806545877,6.70024151549066,591.052931568281,290.781814939582,875.133148505296,20.4273401656359,731.348129704623,-8.34792601741132,335.462842774885,45.2778428978815,875.81513242275,125.008998527232,849.098283418355,-24.5166898909617
796.188754208922,375.499710067314,566.116632219808,233.445073359036,412.514059577357,93.4161518063948,322.967275189127,0.0566750117919461,248.142896425771,56.4128850904599,432.558313449644,19.5810108698681,361.47121731518,51.2298146653468,2017.97610072154,-190.330317411686,261.06546956519,8.40769171535729,577.53012395678,287.028584800788,858.16272559259,22.8630321201023,721.380784521468,-9.22174961761203,326.531999068562,50.802689026016,872.704214366157,122.959566373841,844.135287208897,-23.4482447567042
786.274120021415,368.34331974811,556.7743558697,228.046544689979,411.26725267858,93.0902003992502,320.334357544369,0.916649804712753,248.648396850466,56.432330352959,429.091152736962,21.6696839519054,361.479174276458,51.2859756896256,2019.61077146333,-189.552999341808,261.493550122261,7.94439895518642,580.220431515988,289.800125841148,858.219138547933,23.3069769163695,726.580275013738,-10.4548972432181,330.611261354131,48.7677875888294,867.906181463954,125.349906335857,846.450488196604,-23.2647234554002
790.242122584482,376.027195645923,560.304010528026,236.22717182644,417.167925435613,92.5018723406653,322.122693137642,1.97041292034303,252.55001922539,56.1331098186992,439.757386824168,19.3826780573877,368.007698656304,50.6862301994362,2046.69286298421,-197.367362028737,266.106636484881,7.84181101972118,590.542268300422,291.587413383867,869.957136122464,20.8120087595448,731.861305482086,-9.53320278404665,340.690409595092,40.919856847534,881.564502935587,124.02127667178,852.941748107038,-24.5262656086577
811.327542164214,367.670380880801,563.859841530838,231.292331939319,414.229522978938,92.9591785209483,321.617571927329,1.06900902686226,248.045957424146,56.3022361044785,432.133911745255,20.6878160293545,361.341221498184,51.2602253588384,2019.89424838058,-191.220573204062,264.703544529179,7.01724321560817,580.045839845197,288.306331265466,852.904261118686,22.7969727143204,721.054902160168,-8.05276685026079,328.975355056582,50.7384609253387,875.252472311211,123.514964782474,847.548751540543,-23.7572002612378
789.322376124406,376.88237710033,568.912181029494,222.765791540795,411.284472265659,93.5548055650952,321.616299849654,2.12570429463909,249.204951145047,55.9516954118102,432.404885147617,20.9928183240668,362.672588647752,50.8353339943146,2026.03541771635,-192.511589378063,262.826628242441,7.59308724698692,579.501161371957,290.208032184963,848.925362713707,25.5445628006553,729.135008922412,-12.1590843128032,328.709740577864,44.4940646329939,875.328691315694,125.196451060557,847.525550620786,-23.3555418857684
800.537262613301,372.05283353604,585.469813830122,219.687542924139,414.250884620785,93.1183017995912,326.173876826625,-0.151759602878826,251.942911916309,56.5914005401598,438.179505217369,19.8658773913279,368.797995394599,50.1367927411424,2044.0219693094,-193.34036748267,265.191479239896,8.00091629789463,590.850003125388,291.246321568402,867.95501471788,20.1101453815888,733.23720734429,-10.3534319276262,325.464086088256,53.0805325719267,876.182327652363,126.418581013266,850.489318090879,-23.3371326673003
772.309175904029,386.898554560144,546.174333017733,237.569613083946,409.799925906511,93.8099747827192,320.757344442883,1.6593426854575,247.987364918611,56.0212739289703,432.102348958098,19.8697701478486,361.43737488023,51.0778080959919,2021.68139388203,-189.897399654877,259.991690725635,8.66385762951922,576.814565219596,290.45156312995,854.126866968622,21.5504548599702,722.820915700324,-9.49218817303184,328.265757813009,47.4940202524256,869.859703596525,127.006191690762,845.881867075568,-23.0127016315055
792.578968534914,372.316865597134,552.395171702677,230.740676645269,411.306090800796,93.4113609760753,322.879943844942,0.443715199691634,249.169794227148,56.2902836320052,433.259986539134,20.7097505481779,363.845699837543,50.3291862121935,2029.21287795153,-191.732461368585,263.60483470399,6.82012994963153,585.723608922034,289.436613460245,857.187316762418,23.082236441551,726.738301483267,-11.5328502052778,336.039711147815,42.4427001715977,871.965656551139,123.772269727866,845.74376010661,-23.1766625813531
807.592474081468,375.443561427194,579.927697520199,224.393725584533,416.503356673029,94.1843228445724,326.053502637524,0.0897904120306862,253.519056355231,56.25421844508,442.269037935439,18.985162128001,370.501173986201,50.4310944278016,2057.9227065859,-198.908460976383,266.241403540308,7.84342567876687,594.040985801593,290.378495339356,871.623459418337,20.0927887371098,734.026507172117,-10.7072497106472,336.132012171715,45.9461973422502,876.175203139951,125.344954677072,852.369103759075,-24.7656615208379
784.824877556256,377.426981495645,548.0488646241,234.715461805103,412.283418830839,91.7672939946456,321.020515354165,-0.0463401354230475,248.379107956477,55.8033245361309,432.131846127674,20.2252880514144,362.665228126738,50.7400782201565,2024.54962221208,-190.217047857839,262.092386133026,7.56590145157177,581.964615518925,287.308350801993,857.549209793056,19.8165146380045,722.972739817193,-7.84822871851084,327.531819266558,50.6915246280171,868.391450299789,124.889766603124,844.20242638366,-23.4293519207453
799.009409627214,363.208582548649,560.35703555854,230.552877002636,414.406873412408,92.2633009559298,322.556485281149,0.151523372363127,249.711875570668,56.2021874532072,435.325570283317,21.4504807305156,364.381632599749,50.7884519779457,2029.73469512078,-193.766981261844,264.954012283346,6.2906661013566,582.992478008838,290.311302081553,860.082864899222,22.2129505435494,727.456881656977,-9.84610971861699,333.832903331017,43.0796228814619,872.289026990057,122.119299859946,847.653339211942,-24.5859927114399
805.86730684299,370.911816881732,588.917990635932,222.368200836186,420.335607545353,91.174824126035,326.078150567792,-1.03469410983649,252.738245963542,56.3681636588131,442.922354009111,20.0517479095215,370.146609267201,51.0041219048239,2055.855045657,-197.024534165452,265.571582332928,6.98860397048539,592.504447356411,290.71002675829,865.604821314204,20.9335164582741,731.034131329868,-10.6229098601495,337.788632961541,45.787582255906,871.076613554997,124.28506732355,847.518904798114,-23.4890198563428
793.219332321312,362.805416082191,556.818269642265,228.600523613046,410.590030540202,92.2745668061027,317.407296329642,1.82101562261935,247.368705788646,56.3476773674815,433.942053755169,20.4655158354704,361.672431485151,50.8995012337872,2015.91145537342,-186.787780274866,259.185697508481,8.56378960553596,578.112150961736,286.550796192793,851.794907318039,22.9425871554492,719.058936890056,-8.37398188950698,318.101473487704,52.0242051478145,862.915095673396,124.931402697286,841.684412229713,-22.3110046346007
794.484224419856,367.654905916472,582.202949259453,224.532308866962,413.159403955463,91.2489200808346,321.126481485188,-0.239781485867713,249.241135071426,56.4486200820168,436.643274125502,19.3686400166541,364.965264245129,50.3741140500283,2025.00716716644,-190.957161553138,261.838465608376,7.72337453864953,584.273646197321,287.686180464973,859.253773803486,22.1115002134087,723.741983875964,-10.3338366404458,322.846765193046,49.6959864419107,871.071039266216,121.999597454526,844.782733549107,-22.4424841706878
808.868331958008,366.634950355891,561.415584865796,239.63173937167,417.616072335127,92.6315943654734,325.201715861386,-0.456286892449762,251.875009439209,56.7850586240253,442.415526128428,19.1139613334669,368.952321467808,50.301400176518,2045.47186251585,-195.164339976205,263.922903199419,8.46156727745523,582.457827697085,288.904036688153,854.748580677034,21.5332826930533,720.372082656494,-9.78522430350806,319.892783907209,50.577111781068,867.074143343241,122.130488741074,841.686632602823,-22.6157594974616
