1193.65758710999,343.124054464815,1006.79019510153,195.476969386962,211.911735910114,12.8843429448063,939.56310727767,80.5715083723482,391.751559175036,18.2702905016502,276.331319691995,4.84874542700057,345.472501476301,3.52272077944315,650.48093919588,-25.5355183866516,1586.39161512292,-125.824350541818,178.100656718626,42.3361428415485,1009.84560277165,-11.0658532213023,1248.17085713121,-106.053862198686,327.888657004682,92.9453273105075,1438.99262447698,179.244873268797,1177.16563616593,-64.7098311518854
1218.63722868015,336.28425302711,1014.59881306112,205.178493379778,216.148404847368,12.1072775639196,969.911795324012,65.5423201349512,393.557364417565,17.8114555440581,275.470259485938,6.24832705578226,346.516077753841,3.18198233573497,653.324065037908,-25.530263345088,1606.40988281201,-140.517143215483,177.362009663356,42.3768059512614,997.339084126161,-7.75721595501825,1242.61697104589,-103.733036328165,322.015376968096,94.5386282776724,1430.70576853381,179.784677529335,1161.5431393289,-58.0739736962902
1192.45551663167,332.252361522691,995.431301652025,206.914135739287,207.687559140533,18.0508071296935,943.665060961255,70.1974605875057,388.11376394642,18.4315629910721,274.247114152601,6.33166095182768,343.289087482673,4.14236715266049,651.031616841802,-25.1277587357416,1572.13986342464,-122.789894986084,176.488758867009,42.6881578251801,998.862353031741,-9.1958795191122,1238.90614860511,-103.02605337404,322.731890631636,95.0198772680624,1432.49255571613,175.325344805288,1166.20721941665,-59.9727009688261
1191.94019500319,344.732445498653,982.351416436646,222.42925432076,210.716538592969,12.9948230135449,955.370426729453,73.9269419210228,392.792122903817,17.9514294779022,279.317578290976,3.92035496072886,346.592641967103,3.41890310209738,654.543020061841,-26.1649381065095,1595.02088999698,-130.187122936282,178.634854071045,42.6750067244333,1012.81357986782,-10.0712842273378,1249.82539896375,-103.373274042456,327.882909798022,95.1888721853473,1446.98429079595,176.788301662083,1179.27007304629,-62.5598427764016
1219.7971005252,338.871207128569,1019.48823157423,208.212410794252,208.731664750786,15.4550180581925,954.919415913401,75.5321967222893,399.693695374153,17.5157109227258,281.253325898733,4.36320449535537,350.401470532892,3.08780876258173,660.804598544229,-27.121732764546,1624.21215675552,-139.213492474491,181.510767511516,42.6147620205251,1032.36522324337,-14.5882792053592,1268.52271164877,-109.433278390677,328.484729240669,96.4445561544012,1459.83701326873,175.503795936173,1183.96694230397,-63.287430556642
1216.5871316251,330.111719913833,996.023287443962,213.08489918107,202.161887984315,20.3845984470765,950.033805091177,72.5396054575018,390.820832424293,18.0849579218111,275.808089881514,5.28163910907658,345.448581682106,4.08049928357672,655.805531961164,-25.8961590767047,1593.87160747259,-128.793063475645,177.639200969585,42.4168542050242,1004.31537552436,-9.76765219711689,1254.4674541391,-108.285304538913,324.672173344634,95.2506660041362,1445.39502657687,176.730705247198,1172.15525297191,-60.7089296709321
1200.92229115249,336.137516201069,1008.57387495585,210.372186819262,202.167385521592,17.4019368536635,945.420695317302,73.3812338484553,394.626844769873,17.7613351045766,276.932324220647,5.38991683618953,347.149415439425,3.64369089282055,656.292514080735,-26.1995499975527,1591.90480588343,-130.071519164121,178.627754363472,42.9115591225524,1015.78978199655,-11.1599180561773,1257.94466156174,-107.947706209965,329.244729950581,94.432877428525,1454.97066163069,175.917066391739,1184.78878093774,-65.6799004472574
1203.02090893752,348.193384740598,1013.82558608127,210.416793762835,213.565155029238,17.8266510658173,968.10882719524,68.7048788382753,401.159465001042,17.6220166535281,283.4310275304,3.37547466773886,351.175433463366,2.86104198095585,661.952980102282,-27.1029102652353,1637.51841356987,-144.977857765963,182.388338370294,42.4942747940158,1035.41766750551,-11.0552905109963,1280.06595774889,-110.211588823636,333.522981816864,94.839327845262,1476.32999776547,173.507042398244,1197.28183384458,-69.4737462509486
1207.81844814632,336.505345280102,1003.36056969236,204.305379551318,212.57665899155,14.9857095347353,968.397551169731,66.3815909509249,393.875603610634,17.7577978423858,279.870015389276,4.42524828231836,346.651542522285,3.93480868904561,659.335663666176,-26.9308713890973,1597.70482051187,-124.557677887593,179.180986609078,42.653669723317,1016.31653869276,-11.4070766644244,1262.23964231928,-108.70210729061,331.222610957858,93.0126397025025,1452.62316692984,177.015486246518,1186.56756222261,-66.6626826917857
1224.58431777325,335.603464050861,1029.86482830024,192.873032969298,215.905351107308,13.7740518709493,968.365453970316,66.0845070094343,397.989862335877,17.1484788678225,278.870855905119,5.14236728319556,348.931893859746,3.32342783390836,659.57552009022,-26.6007027417992,1604.4783836818,-128.52256190351,180.779165625686,42.6869594695701,1029.61990362376,-14.3303222669496,1272.58829897355,-109.730426522346,332.390987801941,93.6397239134797,1467.83855860299,174.009229452565,1191.07113431172,-67.7499340814498
1231.04139857883,341.752739168387,1024.61635976002,212.431361755894,216.478356150268,16.5278671864412,988.327769916092,63.043396111429,405.646638429843,16.5156756679272,284.809062915401,3.95939520142827,352.338444377654,3.31176792925513,665.557600495905,-27.2498913756031,1624.41872843848,-130.412839741865,184.023852198195,42.6063743492452,1055.14970310979,-19.3332562577349,1291.73941559453,-113.982942161064,340.107174737112,92.5451621447651,1483.41399611762,174.191915734424,1206.23655622607,-71.1552104788513
1219.19652084888,333.526326494379,1018.00892838401,212.292745640484,224.218083861126,7.20989324984997,959.909399348525,75.7619363244059,396.110624604559,17.601987891369,281.211717781428,4.0048628627091,348.114460231873,3.58607957195704,661.480340469791,-26.8983194699844,1623.51388144574,-143.125930004193,179.058090805038,42.7982178582336,1020.94037233023,-12.8501142645733,1262.46676946294,-109.288870391792,332.94217776127,91.3680498634597,1461.18991539402,175.625503689674,1189.87042871221,-67.5399794405796
1211.56920273231,339.268305345923,1034.22415390063,201.008924334473,212.534572164714,14.9504725369721,959.440486627853,73.3493176867581,398.133171286567,17.3939078226843,281.423338391185,4.06602063972967,349.343536150113,3.00522692823357,660.176588952185,-26.7335958800036,1611.98765320375,-134.227810191345,180.493160257164,42.4733816889025,1029.71801570913,-12.6462848236951,1270.83532365832,-110.222098606088,329.981331672652,94.9585268347009,1467.16470183108,173.184649926954,1195.21962989303,-72.4400281801891
1229.91220491692,339.090739829304,1030.96064315218,212.418275587019,214.498973124014,17.3944040032472,989.296487135692,70.0939050873329,406.669522740601,16.6915394661351,284.006074041652,4.09844381437977,352.433352069726,3.20908016900783,665.351998812033,-27.8610890009407,1650.2036415947,-147.564231325361,183.806858163351,42.9046588300785,1056.33768681821,-21.1961540581915,1292.69275645615,-115.804830383877,336.797344882752,93.6576812516041,1483.70010114911,175.068743806975,1216.43667158718,-77.4000315535308
1226.87793153466,330.424572622991,1036.29852528199,194.848239783106,215.773422100774,17.0419689876188,962.172218857281,74.5312487954698,398.124210640434,17.0163170128368,280.002809430555,5.7804193041521,349.386429510044,3.17888869688375,661.571927563456,-27.2140732217115,1613.8766343503,-134.28625156964,179.909780858142,42.538345650808,1026.48069479703,-13.8532135192686,1268.27283389119,-112.111561379626,331.903473688702,92.2518709038227,1465.84845302332,172.387012078065,1191.50092335739,-71.9055842501182
1220.46522764578,333.435131664837,1020.25441131087,203.510036203158,222.009982194587,11.6713539282874,962.064939379195,73.1197597790191,399.227328793815,17.3524719849171,281.431116707534,5.16856700769983,348.361978120971,4.04265905796638,661.676423834547,-27.5911699654918,1620.39358363653,-140.224616898609,181.377759969205,42.2616392055298,1032.35247423194,-16.0009707031906,1276.83298300714,-114.777390130283,333.616251882219,92.0714589259386,1465.80493840077,174.786088847983,1195.67093959722,-71.3343922440874
1234.14363135196,339.109373102234,1026.3514511042,206.848234659847,211.307635475464,15.545709353135,983.278190441289,62.9083370877858,406.278186391092,16.9314837968569,284.940941403095,2.83839399895257,352.920902343461,2.95856631453943,665.721223038388,-27.4536063760374,1629.61571749058,-136.517886546476,184.097664218066,42.6709459485289,1056.42990236142,-19.8228078799828,1296.49701220364,-116.24076859076,336.857006282479,93.1717200924003,1486.84079758709,173.335809865111,1209.41030187598,-73.7414554124217
1209.09843063294,328.692550474772,1028.87888480643,201.082929595296,210.001073735978,15.64996616932,987.887103275376,57.5836258637716,398.753576891001,16.8342806607496,282.06335628091,4.35983705891876,349.455627699945,2.85629872857999,660.48605765457,-27.0627494014915,1611.04245868659,-133.032812406097,180.152776379478,42.5599569512971,1027.92640623962,-14.6060443032519,1275.55557174618,-113.241582942495,333.046688875538,92.5696449200168,1463.93688460212,173.355803545926,1195.1044995705,-72.8514676451656
1221.51422207392,326.988481295227,1019.91518973309,202.745615958145,202.044548759102,21.7401299053421,977.23468800653,71.7659733353661,400.72982086819,16.7038720313776,282.218546104972,3.67876566332491,350.078469475445,2.98605514711711,661.474350600385,-27.8312983440035,1625.28692010521,-137.613557143756,181.738205694026,42.0509734698941,1039.11472291781,-18.5106146436864,1277.4761096601,-111.251082191294,332.842738894098,93.4043122792935,1474.63500363856,169.721512910078,1199.63385169295,-72.4373615448701
1242.64620129086,328.14773804851,1027.07234534528,206.173574219848,218.417702533185,15.1168383744823,987.234638448039,60.1843866643874,408.066078128622,16.253705043033,285.617799859898,3.17556546739519,353.514325653008,2.65886725602578,664.866146342351,-28.0429028596996,1636.8306790588,-143.848874349397,184.821422537869,42.1625399681912,1057.69403387311,-21.0605845116376,1293.55684923039,-113.794012649556,336.883937773618,92.6138683925965,1486.98180479524,172.449030416539,1207.30193466346,-73.8429673405438
1215.09207091511,339.3043098827,1015.26812040077,204.801673152814,212.740804336654,12.2609124967174,971.819559377412,61.6614812634493,399.126627713578,16.6831198932383,282.246926423097,3.57812228877339,348.895043445876,3.33726441042385,660.235431042882,-26.8557501704947,1606.44633480472,-130.808330719474,180.387882783641,42.5260329899931,1027.3232530105,-14.4032511787771,1274.20802859143,-113.450889510186,331.041877477593,93.4232305902624,1465.25497096298,172.921917653338,1197.66300607348,-76.7637602131676
1226.06327881875,326.486448234901,1035.79465170826,200.975011204095,214.565119382423,11.2023821520916,966.420058484835,72.387062871501,401.813812251727,16.6081969009219,283.064714780168,3.80049410749587,350.316252550692,3.31331692998786,660.714287155325,-27.2442270662874,1618.20816568355,-133.887005740049,181.999431675196,42.0947833878197,1043.11777733074,-19.635911561458,1282.82446051005,-114.859673570595,332.013082365502,94.0869281177602,1467.2173091289,175.093945822392,1196.37199930186,-72.8520997517302
1247.10429943685,339.048041590905,1052.21296605149,189.822631450665,222.711026740695,10.9149969176889,990.789254803068,56.692564359291,404.606462035771,16.6982398963422,284.227526573746,3.58427839019046,351.653774814589,2.93810265426938,664.227548750888,-27.9085108908267,1637.3317084363,-142.974107582358,180.688301242703,42.5076737457863,1030.49183691633,-17.1376645899458,1274.93587962804,-113.897468841083,331.960470780373,91.7701908569513,1459.59119840534,177.917778198431,1191.98228922842,-71.4211528107385
1218.43343217441,328.131411924886,1016.98338397453,202.215091469795,213.784711605942,13.2046104388873,956.411393541346,73.3880926025273,398.216973125999,17.1046604973317,282.510262347061,2.54503897200662,348.059423807757,3.4331903912007,659.116278078902,-28.0229329928333,1608.64002060737,-133.120524183316,179.797330805028,42.1569231023058,1030.9832636845,-17.6614660241084,1262.580349817,-108.199642261841,327.453359027914,94.5282986757708,1461.21459367063,171.094718971715,1185.31583951473,-70.5127546827905
1214.46038532319,331.531222474344,1029.46564281984,191.946497654862,213.084393486675,14.1352989686838,976.022234997005,63.8098756521376,401.276134754645,17.0288134487782,281.394273194217,3.9783471336935,350.057172779431,3.02983479940618,660.024183416301,-27.345706927706,1631.96671584231,-138.091206514838,181.422476438378,42.6902998687915,1040.22835415037,-18.357925670707,1278.97376069892,-113.315376147525,330.848075876249,93.5062069081168,1470.47247334754,174.439139873649,1197.39550940366,-70.1966376644547
1212.59064560085,332.149717512872,1003.87006969822,207.58778447828,217.516332951298,10.6088444819359,939.600586993555,77.4854079430687,395.560649197752,17.5088234454314,280.457460485056,2.81471760681814,346.411890841183,4.0960713625855,656.584282746291,-27.0446745452031,1613.40888288621,-142.397138720307,177.773817918476,42.6023831025058,1014.86808916023,-11.6639808478361,1259.24633373349,-110.436148215198,326.933480271661,92.1943789739233,1445.56465640982,178.125783911239,1179.89158015917,-68.6589245665794
1221.44081495989,322.006906086751,1021.09370676827,196.413289207967,208.692363077609,12.5443535278322,965.453237848468,68.5065829368248,396.593994948488,17.3119067613622,279.55613976058,4.44697198893052,347.603700321202,3.59413922917576,656.547660208125,-27.2952988283454,1609.88492699914,-139.86589062989,178.999218841339,42.5410302945705,1021.74244811626,-12.4122446705914,1261.56567093889,-108.546221240715,327.922881236317,94.0290599266949,1454.45015994314,175.359992217695,1185.10514474492,-66.3955334863963
1233.13987177555,323.758311371082,1028.17397507953,203.987062687992,214.519025575902,15.2527371961317,970.721331351459,75.9237517233156,403.024309682579,16.2462002558179,281.855676427006,3.4234380804816,350.384988358012,3.11011480939492,659.02606451617,-27.0397595148899,1621.8181723657,-137.979433067996,179.589224653363,42.8878723083197,1026.49942413266,-14.9670764812188,1262.72269816175,-110.777252353517,327.317954492887,93.1351129403526,1448.79689079475,176.305366659302,1181.1018892644,-66.5045082469179
1204.58529601925,328.861283967321,1005.41648539357,205.866150950059,202.406506679091,18.7962785471209,950.757044848075,73.4132006508519,394.364169637305,17.4264471992812,278.592984607475,4.47491251771845,345.403094791611,4.44948838138125,653.99298305492,-26.7441594051556,1610.66444679938,-134.66127109938,177.97981722192,42.5787140113936,1015.43119459834,-14.0447140141731,1256.98153977322,-108.548544702974,322.940776524861,94.0856105187378,1448.73171264591,173.80204947132,1170.29985429023,-64.508028104272
1207.2935026301,334.501430764253,1021.39051046079,212.690844421561,219.585632713003,9.96346790209044,952.692487065465,75.9262022323263,398.075289952599,17.1772773026744,277.229157242847,4.69440651457197,347.472180735743,3.66117270623033,654.344907579744,-27.0709219413547,1605.18644980767,-134.370065031395,178.868748797264,42.8995101272381,1023.55832716615,-12.6524917630514,1262.51722018147,-108.252081131169,325.653308851488,94.8542869663767,1455.73183527205,175.569760528797,1186.04741212034,-67.0794044842256
1183.74751595211,333.025240450746,996.542562746463,213.195295627596,213.949618734083,10.4590415788766,942.882810153795,69.7797396483786,392.532269744656,18.0611647688552,278.391022917208,3.62701939008236,344.572981590703,4.24247551721475,652.845928587771,-26.5855333866211,1591.18773376582,-132.160894383381,176.534882759174,42.3240305883271,1004.43870514906,-9.71813732357626,1247.14708122526,-106.837574292288,321.664487590234,94.001021163785,1436.53138577212,178.036563670454,1166.9628896287,-61.6719918811384
1199.95814731707,326.546378370008,986.610127325745,205.758318258503,204.580202397505,19.9966037364439,955.355095007278,65.9745218099068,393.046462994593,17.7350991602874,276.17172299046,4.3534588135996,344.192333678899,3.8877393529261,648.6960729259,-25.5058695146785,1602.3401976745,-131.781551706672,176.865650900567,42.5491150368214,1016.83986680043,-14.8455308823963,1247.03569078558,-106.657116174964,321.583685596159,94.2028788865626,1439.56064270165,178.31371320624,1170.21728027021,-63.0244301359717
1215.93136896657,327.901942460579,1021.23563938761,204.948005296993,206.694300676228,15.3638957448844,946.157295526459,81.3523211787168,399.6054111994,17.2568421165846,279.620039687059,3.08045259940273,348.194869642455,3.45912940505545,653.083226611203,-26.5019424250574,1615.78976861964,-136.450560481126,179.280443019101,42.6223300656471,1023.57636695752,-15.2290663548446,1252.63661726346,-105.685771874966,321.362805816615,95.8336235475909,1442.60075963959,178.300248375186,1169.61646770488,-62.6031293973885
1195.32888255493,323.073915618646,991.423823468775,213.532138917793,208.804319767226,12.24183619492,940.547170760561,71.3720326565541,390.727545176217,17.4850011174926,273.638213128755,5.40134174624834,342.976374511272,4.39598746115958,646.281130640729,-25.2439722362369,1593.01952559612,-133.448595876382,175.685679445289,42.6494082671557,1002.09048981517,-11.5931773093062,1238.68818763338,-106.635077825517,318.640656026272,96.246728627074,1427.8456036304,181.168656056546,1155.9365297711,-59.7812843892509
1179.39137537727,334.185450339279,1010.92020501254,203.007832386845,211.7264433582,12.8010614492956,953.84489589851,68.5897547207375,394.10624916535,17.2306874259863,274.892802779628,5.57386096693588,344.74331640789,4.12601007574476,647.182489826321,-25.5798583622123,1590.53435030921,-126.091958042867,177.532497264748,42.5293259457843,1012.81580995953,-10.4495990761077,1246.7195538753,-105.920980309263,319.82231013602,95.7851959044341,1434.96967127838,182.857496369834,1170.14039719218,-64.2668466680915
1195.33079315374,337.684726874603,1013.76965311711,212.528007304804,209.45511593393,12.1954305640601,955.871656914323,65.0266289196064,391.582972004769,17.5484558875206,275.352419731707,4.34203112406942,343.527704793383,4.59894909264036,645.701674786126,-24.5894230401365,1591.915536024,-126.183931818683,175.05343779565,43.3319673555769,1004.39357495556,-13.7235061582116,1233.61180514311,-102.605869328048,316.392949164115,96.3383769885381,1427.98016518452,177.96096417763,1153.62556611329,-58.9814383990763
1186.96432281581,329.564383016177,995.969845045047,216.799489644742,201.875326049378,22.2675293709231,949.978816019567,58.5462193039254,389.911489512784,17.6519131038615,273.381260389016,5.0945242429426,342.154166716448,4.18587441422042,642.179837523327,-24.1420794812211,1581.54862737936,-126.620721036751,174.871025991525,42.6417475164802,995.692329712338,-8.14581268810256,1228.60758572614,-101.958955068428,315.499238450607,96.2205604392451,1424.06662756734,177.384877152062,1154.49282420571,-59.2634209775944
1170.32158155727,345.102580140699,1006.66759897105,208.320580162986,219.48422283884,7.04517534375671,956.358004387509,70.2323422908215,394.790811549888,17.317544077002,275.283995014028,4.37294782525081,344.854547846504,4.00563627720672,645.629290017331,-25.4942363310377,1596.28795678024,-135.725900774491,177.580903791224,42.6220775793457,1015.04905364841,-13.0204274658219,1241.47114824123,-104.213306544463,320.238837776569,95.6203889474454,1430.77136665344,184.256943710885,1167.14301445946,-60.7791088053899
1185.56505972202,328.196149659692,998.365063076481,205.699222788225,208.55708863433,12.4338421864676,943.105110492477,66.9503235687544,389.188971936842,17.9548642186575,272.714671843646,5.59120379909814,341.733527466638,4.60758406961727,642.938467936848,-24.5224288266105,1567.70135841526,-119.772849825047,174.835732829183,42.640554614138,993.133506957971,-9.18393870662297,1223.69632650229,-101.348850305381,315.191017321851,95.3916127976449,1418.71980822008,178.126972538717,1151.91689869622,-59.4825419632066
1174.71538545055,340.460352807139,991.120749533889,207.865518664164,208.855793190564,10.7732594061391,942.209259835837,60.4457177155843,389.404085368643,18.1784405659277,272.862935810944,5.04335182362992,342.264117406028,4.56552846795898,640.066842831696,-24.3780344738473,1583.20346659535,-132.088549448004,175.63399290908,42.5689722937065,999.929207964735,-10.3750932007647,1226.65768451932,-102.902795462442,314.943821516717,96.0540009454176,1419.07237998946,178.703342453803,1154.11939104914,-61.5062102268026
1211.89650057557,325.751458359253,999.316331430949,216.421894503779,204.118633268828,15.7578367867021,951.40141018525,75.9216281528865,396.577540181732,17.2848018388411,277.101070715215,2.98209672976768,346.581503689333,3.5249593458955,645.279171614818,-24.4545086482036,1580.85623972111,-121.321637110295,179.005219819052,42.5700283190257,1018.36387366192,-12.2715723102876,1245.29634634335,-105.598992785033,321.707889402493,95.945954629181,1427.97760630685,185.792588701402,1165.78456083001,-60.9567339482442
1177.00732303547,335.734357892688,997.068038952524,204.564125700879,205.19461737358,18.2356779770454,930.824756421894,75.6318142124667,388.850703796204,17.6342510599493,271.817417943291,5.39566863142876,341.998987637629,4.25360972684726,640.78674722895,-23.7341109701525,1582.81461989267,-130.094290945236,175.565958102983,42.41579054513,997.92618055614,-11.2278930148613,1217.32516355863,-98.7607156860464,314.311030510625,96.2524636417762,1411.0640512158,181.440655146319,1149.34502074759,-57.1745449937282
1191.36951748207,336.074879397528,1019.35389327347,201.154384456938,205.08398007605,17.4586554260594,933.081432623928,71.7721681954334,391.473981859242,17.9368076308163,274.669426258985,4.06192369896787,344.636479441547,3.57135274946504,641.956673770302,-23.5510281359648,1565.2895834461,-114.049566830491,177.56928864154,42.2706801782982,1004.20680836038,-12.2058569734238,1225.88185207292,-99.47917778342,316.716079728334,94.9989523069794,1419.60431241229,182.232260021281,1155.32876046525,-59.7324004155198
1211.30252680638,330.522858180536,1044.11780590795,190.064530107313,206.970252076602,14.019086265037,950.055087974792,79.3812641198068,400.024776195018,16.8375689812631,278.391170199256,4.08218540365283,347.424700686756,3.79487892667111,647.753914069861,-24.4993072435904,1589.39375763094,-120.2076282025,179.459798942802,42.5110280508408,1011.15986664985,-12.375058058083,1234.86892711462,-102.639825081047,317.895300190907,96.2140496142019,1422.92130631269,182.056390666828,1158.2897979523,-60.4278533326532
1194.84533376933,323.726219764967,1007.712210344,201.557852543384,201.881629346257,14.2465134909046,942.333348331034,66.8237927727912,389.642374441708,17.733992964904,274.165322059243,4.64499606628622,343.727050221168,3.85003491368521,641.173061091504,-23.1912995049597,1583.70254603686,-130.549069757067,176.506617419428,42.0987983562742,1000.33702767074,-13.203629666831,1213.33683071772,-96.6497132846225,316.80085698099,94.1352888649694,1411.46072970423,181.112441322121,1149.10892293308,-59.819248476502
1201.44112740261,325.821041311555,1011.73476973378,203.660509754868,205.02088492912,14.4136101560852,937.131183526141,76.2593810279544,393.343513717202,17.4130335236874,274.687854029992,4.79537722532569,345.501684780985,3.65607880873175,644.307329411247,-24.3774962363106,1587.80001149016,-127.208768443971,178.477564190386,42.3624504963099,1012.13215868139,-15.5976678206978,1229.47302044524,-101.312124638037,318.75516234033,96.0120245373984,1426.37404105605,179.337378413915,1160.79609539085,-61.9107214200448
1220.33763450725,325.787198438389,1030.63587752411,202.570573876332,208.068745079877,16.0230630995242,956.433530956158,75.1706143374349,398.939862903831,16.8507519836268,277.740447522013,5.12019971639019,347.367888542296,3.46547101023805,648.733521601425,-24.3678671286046,1593.47071428454,-119.752314021726,179.782677677998,41.5981071139637,1005.2589496781,-12.5991051438474,1223.34655244469,-99.9221598300529,319.683282808713,94.1880085795217,1424.10623077265,181.034757840114,1158.06198658654,-61.1686989027278
1191.65700922016,324.507392284055,1009.34569530957,208.237247831362,211.928720494739,12.5903338056573,948.278510589872,68.5460097820378,392.747051470534,17.0035997195475,275.730538983481,4.49163830724224,346.095541990695,3.70397404226709,646.300750669556,-24.6008290951713,1582.89118136733,-125.620169721628,179.03225142784,41.747023316428,1005.31516360316,-13.8306122781608,1223.20709087277,-101.305930286017,319.609640635397,93.5995772123685,1418.396077523,181.138774076427,1157.82509968281,-61.5423403597711
1223.49902979942,318.468521093223,1016.34140375309,205.67586824368,211.107173053147,15.5743761534876,965.167958554521,65.1574975644939,396.847609934598,16.7929328932582,278.427455043109,4.41129661900188,348.249287638731,3.62050414324963,651.250475147153,-25.33891335684,1589.50272672375,-122.910894781152,181.538639278015,41.816736529304,1020.55583750082,-15.1374291807575,1237.87601757525,-104.845844773879,324.907887540288,94.170059004067,1439.28085610037,176.774500421873,1170.72831583444,-63.2590264244005
1234.77222522331,323.458848557913,1034.91535150622,199.849359441931,211.371696284823,14.154483818219,966.354595931592,64.6404148428969,397.414337878399,16.0017299854442,281.714212440628,2.77511120918639,349.205502848885,2.67973773007747,654.53590100062,-26.0866774416056,1604.8011618332,-134.077147236672,180.774649545543,41.2162049505541,1007.76019616345,-13.7605598920801,1224.45232332556,-100.189911754239,323.234939267031,94.0830237232214,1423.89942154051,183.67351248025,1164.7743924258,-64.8529156801941
1208.02161147656,339.659629231534,1016.3149231693,203.515072170296,210.809203140751,15.4921359457741,965.709920217014,71.2102481429061,396.520204501745,16.201554351931,281.284812831979,3.41300608310921,348.587778501735,3.01273607806289,652.714460704745,-24.6389081739135,1603.50353368065,-129.036427786211,181.783971862728,41.3014397997112,1014.75126301343,-16.1880599468885,1224.92764903177,-103.079349376759,326.891785790106,93.0242834787194,1436.04880771802,180.375960309364,1164.48837499709,-65.6593340252154
1223.09834656075,332.481914380667,1041.68096320269,187.923530095479,220.634379221729,7.63708139864819,958.992967554805,74.4603217657335,403.624926490452,15.1837698009345,283.005482843253,2.85678661606108,351.951372636295,2.95859412620552,657.728406354634,-25.8417749997547,1611.77307030185,-130.261428895595,184.389942098867,41.4463841145371,1034.909744151,-23.0847004042354,1246.90007062393,-105.937863024569,331.624876313885,94.5553947309413,1450.15817964398,180.184885916431,1174.24612590081,-64.1518955650207
1250.54702455877,310.393378189719,1043.82559983445,187.565873477814,212.509856257272,16.2455064205993,972.34759644469,59.9909583914859,399.018718313033,15.6675428250674,282.109708228861,4.75001219067916,351.099010664246,2.89604241733335,658.913659059881,-25.7453786746259,1607.71304286941,-125.119673737511,182.696970317807,41.2441982104079,1013.22634281449,-17.0272339925462,1234.29241549811,-104.687926343024,327.882173467706,93.5458067976427,1437.00241423365,179.95115746397,1170.73047486557,-65.3365781746167
1221.34604120946,331.840943162035,1021.93550914063,204.486937588622,218.53359679992,14.244976599971,968.576751837957,72.020633448272,398.257712226999,16.0807115723578,284.116593057487,3.49889516854218,350.574422858661,3.09379999530502,659.33350062203,-26.0578880046457,1610.50782541502,-132.937168659078,183.553776086935,40.9818472200812,1018.9283024206,-19.5820201404107,1232.95427838156,-103.334639416991,330.389482684835,93.3611002369111,1439.24106509028,180.398538497204,1176.7798338878,-69.0690653232729
1252.21982458413,319.775988111776,1026.31099611366,206.092406917247,217.48184580312,15.3466457191167,982.672948945432,68.0598003576243,405.400119323112,15.704445361271,287.434468475435,2.31662736205251,353.844136467776,2.50821800503877,664.721200740554,-26.9827766831461,1617.34297510183,-129.011889971765,186.226736937443,41.2774369686065,1042.58745871071,-22.8494643433724,1257.25233108313,-110.731140816128,335.51079803676,93.3605098173873,1462.02389913927,178.596932032851,1186.38525166466,-66.3274366256413
1248.94094320777,319.621664727982,1034.35561419027,194.288398503466,220.433767660713,12.3134033726732,990.227072069998,65.9884379854103,400.554679060832,14.8320182101401,286.186260221373,2.75373536410325,351.853338711191,2.38073668984862,664.179158938679,-26.0703026415694,1615.42770068232,-125.559941784675,183.586903085862,41.2762462475715,1018.54131826342,-20.3507059489161,1236.24021389103,-104.660757480898,334.792322326493,90.9753752173377,1444.73233419813,178.795326055506,1171.75497548087,-64.3049462230669
1218.21284472506,333.668022309095,1034.45917823814,197.899698635024,217.603494940053,11.3201256281148,986.330788981624,64.7246912618468,401.031436766712,15.8380836885271,285.584101972652,2.97045480713849,352.555817430975,2.18384427282133,663.655781125978,-26.414780936369,1613.71744246808,-127.322167453939,184.491650212265,41.1783723595187,1023.25859202351,-18.5742352013037,1235.5194559814,-102.351157081462,331.11387017036,93.9412830825803,1452.21609190761,176.945331830777,1181.0267592438,-68.6707936409075
1246.63565864741,326.311099675521,1057.34223265133,198.345447531815,212.661786283554,15.1517433838618,998.95853873449,58.3382702278289,408.303736793017,15.119299087106,290.8273174304,1.04860602280924,356.352524991047,1.53520151112917,668.814611132012,-26.8053052615761,1647.75240056983,-143.29299034316,188.483652321899,40.9779514055292,1043.10249558851,-21.9138640130583,1262.70867080653,-111.225349894563,336.124206446609,93.5026691855639,1473.45389338669,174.530848777617,1189.98095762791,-66.3863422411789
1230.11075036353,337.214767744559,1036.20549191747,198.441755568811,214.020481597914,13.6245900208029,967.651965569807,69.1670542423854,401.094518914948,14.8509544100854,288.514913851353,2.17440459282557,351.747168728585,2.93598324171949,666.093174711204,-26.7706211147338,1616.01554836528,-125.334839028454,184.983213251334,40.8472990150843,1023.55220796779,-21.909577877822,1233.93029707039,-101.291262082277,331.512372197821,92.1462264489128,1457.31849066544,172.703387139812,1180.31737243638,-67.6986368176039
1240.10297213984,318.934623039459,1037.39546688949,192.594698329406,217.090762857228,14.003764491253,980.096817527233,62.7433719486694,403.179628883116,15.4165569902666,288.641733179514,1.69102780033032,353.497853790257,2.36402842248334,667.636222596793,-27.4161110696186,1626.18994077146,-138.252578131185,186.497867923499,40.6929881673995,1028.88807504399,-19.6129842882234,1247.92153745239,-107.967764059734,335.805439708252,92.7886261788689,1462.19931280677,174.864704827771,1187.69288724791,-68.3763286139647
1265.4435711507,315.275026027792,1046.24149006162,201.535246201261,226.07814970937,10.9338706272577,1019.82906921359,51.0060439802574,409.851220044933,14.3748494985395,291.227286983015,1.67394217617017,355.593730199673,1.84308647001232,671.281107471703,-27.5089513187825,1640.92485514032,-140.830589330335,186.436785095948,40.8856941106984,1021.28695846759,-19.6229232451886,1242.58756464783,-106.636209656644,335.210578850569,92.6936321067697,1448.71187855738,182.70250759306,1180.60633805397,-67.2632894695378
1245.36033729129,316.705433670212,1025.78867606972,204.015655484227,219.266956306676,10.0103405828197,996.921191903729,60.16646597819,400.787135585815,15.3311034650687,286.617210993114,2.58316049052393,351.440609061028,2.96155225135063,665.586674195359,-26.7374644282164,1603.85433966618,-122.190165033193,184.182829979772,41.3219468134607,1015.01461778357,-18.688187995917,1232.75635430502,-102.432844979268,330.669619798884,93.6933808562399,1447.67359348294,178.839386643898,1180.09875912349,-67.0902201999093
1232.20493501363,329.20917924009,1041.57001706529,197.53692007233,218.062547356572,10.4334546789485,992.828023980823,66.290949942091,403.074877748099,15.5389299567984,287.859180608288,2.2109031138832,352.074410579762,2.86806142733219,666.16073246543,-27.4316629715363,1624.99272768341,-135.812023763128,185.777279980933,41.386722364962,1027.59744065012,-18.8547449782926,1245.6077488955,-105.597232098154,334.244644961498,92.9781629466564,1458.83053107068,175.499769129505,1190.17516840634,-69.4344884811986
1254.57407170229,317.448434776807,1028.42227710793,201.170963164601,220.916658288969,10.9112174622199,990.408492470333,56.3351940563492,398.472563034873,15.6947513596777,287.254941651594,2.4100205925047,350.223552085143,3.14243469196082,663.831042185397,-26.3033706741958,1614.15813800221,-130.577924518122,182.973924957665,41.0611104682793,1003.00714008977,-15.306934836045,1228.88986031888,-104.266043867692,328.728713273183,92.9450784484499,1440.02416924994,178.416326463463,1174.67370536052,-64.5448451705398
1230.71603973356,319.901262172084,1032.04556698157,193.926101862153,223.795059997854,8.83152688107601,973.944727309135,61.8130959003699,396.940158259427,15.932648806312,284.360997732729,2.92462196608406,348.823835377764,3.13859722737484,659.668116649204,-25.9615069486668,1592.24721413672,-119.378191833619,182.382256984147,41.246252456407,1007.14593905636,-16.3725961855145,1226.41120996085,-100.536513670102,329.431380877418,91.9424116201188,1437.487627207,180.734914885429,1172.98203630098,-63.0303166997429
1232.36125425266,319.321983686271,1033.4008408483,194.585891187745,216.061792835328,10.5553313536945,977.036745732979,71.4844505573738,402.514988671162,15.580347253455,287.928589917344,2.59916361749815,350.790412368849,3.61127694138423,664.283273660977,-27.3225684395555,1624.10661553768,-134.161090692164,184.820256132955,41.8710292640175,1028.91762339044,-19.8640856477302,1245.42380110661,-105.615040757816,333.126092420103,94.3594937155794,1455.97882351528,179.963163338761,1190.6232596761,-68.0248115720134
1229.46252304815,323.911427812807,1024.79968257561,196.714001193853,217.631337289744,11.5651373608794,955.248852339081,84.2356072762263,395.453382819285,16.2062624307291,283.302054411274,3.37166743341337,347.454328051041,3.78334144788113,660.654139748622,-26.162121493665,1597.36710618274,-126.494764589055,181.616854784408,41.5002885765796,1000.69877403715,-15.327519152917,1222.03623040168,-101.063019119688,330.377845767166,90.0660880541247,1434.18935964784,180.139540310601,1173.19834281099,-65.1154985039001
1204.234461591,332.828441815973,1000.53845658591,209.981880584494,207.118366062975,13.8302088957584,978.615715568242,63.3877314426867,396.557523122286,16.1514944437225,284.380373038346,2.72105156056324,347.748685644602,3.71516087593435,658.274263071832,-26.0156608977135,1595.77925067393,-126.864939286436,182.685498490909,41.2549452380231,1007.36187380526,-15.9314706082268,1226.2692636305,-100.97588996763,328.478923699829,94.170836184291,1440.13039285459,182.186368842811,1172.0224593258,-61.8293078307156
1231.137051856,327.253354997861,1026.55688557463,208.521727247113,229.07580534398,7.48177179407219,984.219982958163,71.4243344822305,403.241530867843,15.9013606820233,286.020727325918,2.27840343070641,350.277264815741,3.86691741295828,663.141828152476,-26.2233278813586,1610.75990293636,-125.576527959215,183.758034041983,41.6738971758682,1010.18363122322,-15.3910449603014,1230.1326849286,-102.273942988528,329.146515585191,93.5753690986356,1443.26617958117,178.711039451588,1173.79112733054,-62.3593498593078
1219.76287247752,320.265160191396,1013.69132445387,206.542005063687,213.515907156313,11.1961670576143,971.298415967334,68.5629335142456,395.538076077146,16.5637713090561,281.156105627015,4.84857630685953,346.459728586368,4.16634653471339,657.909209897365,-25.7704626160818,1576.73570472407,-118.050917938059,180.814131706476,41.9138267827668,1001.35863460031,-13.9014274606952,1223.05522930854,-100.402539270102,326.79037173903,93.0283869629042,1438.07463662958,181.01728449737,1167.13488658334,-59.8053437311958
1229.2671991715,325.905562834666,1028.02324976007,204.141047142699,211.193178108841,18.9065449195826,996.273501737521,55.2826215536469,399.395507274376,16.5046079881625,284.652623753178,3.29851623754129,349.392962454036,3.73578322629888,660.947959410029,-26.1035026815663,1623.69945249087,-140.308004032221,182.903994219388,41.9901392677313,1019.2591461926,-17.474213992661,1232.07546885909,-100.558358966568,331.052752703849,93.8562249993668,1447.47270002764,178.739375369501,1179.02659034472,-59.8268929224609
1232.964715076,324.732187623857,1014.04186083338,213.61139550785,220.505052510106,11.8817194439824,970.351000062338,67.4606209931181,396.351885179636,16.3842464594771,284.299324064447,3.1282787490221,347.557225238586,4.16989906605421,660.368472749916,-26.1485845742178,1600.81852497461,-123.096174768587,180.807490438772,41.8566250023188,995.757330815097,-13.0033477659998,1220.14902615142,-100.928167926021,326.859029757851,92.994586472576,1442.3432445477,176.897436396463,1169.9355224676,-58.8756776274439
1219.28134619235,322.053941702393,1004.27498674306,206.30000707336,221.575219285522,8.54326261394969,961.330371637292,70.8694957802562,392.995285799055,17.2691457795075,282.7985266183,3.52611773850125,346.080892413742,4.06954503178329,655.513932423257,-24.4778344561047,1582.81235027045,-119.521083600218,179.38868130623,42.1317701770116,998.483375776101,-13.4093810533982,1216.85170955432,-98.0261534615482,326.132364705041,92.9518342542159,1434.10112540809,180.760944543824,1168.58116497093,-62.2491855870834
1222.39683602986,327.729096391111,1018.06349837322,205.201234392772,217.557678526255,11.0365271008045,988.587613471869,66.1713199152855,397.945633705139,17.011151404866,283.136656315902,4.67307107872606,349.12025618795,3.74723836074435,661.550295213354,-26.9808156880273,1610.45430989281,-133.564290515875,182.365951238841,41.6705365995557,1017.2160948518,-16.6117939476838,1234.71180156629,-101.861112977741,330.895434713946,93.8369365917049,1456.13181177713,179.162531120718,1177.98138529935,-60.3667551046088
1208.11878165738,333.18768610597,1007.94753727917,202.801669091018,226.011879171733,9.0253747849664,958.867177821482,64.2075949062153,392.337584663217,17.6732959124277,282.147824427898,4.43080145225922,345.811046926517,4.65470166715722,657.390015259165,-25.5016764970287,1598.63424920904,-128.994474445737,178.631937946969,42.0430226053689,988.634915653316,-10.2817678743344,1212.54015679574,-97.8986183478323,325.268181762344,94.3454551557642,1437.00018022564,178.256786879072,1166.25835069256,-61.1408494342878
1205.59521489342,334.514531048532,1002.48974388304,206.564537670726,217.123477300744,14.3981678240623,969.168617655956,63.1205897885976,393.124656906045,16.6380213681197,284.238227666705,2.71814252309296,345.93526324482,4.64091826000326,657.388810021531,-26.1036905466437,1593.90634278255,-129.296846505335,178.484845469965,42.278591233968,993.818473510904,-10.4118261537241,1217.39156973196,-97.9553625443942,327.237429854433,94.5820106421603,1444.14906105249,177.293870556817,1164.04336305719,-58.3331540642058
1235.36287696037,318.730936268913,1012.43058576003,207.998422953871,216.98709592888,10.0799253480269,982.440239260728,62.0916687184969,399.620051385825,16.6154999172264,283.565596208543,4.39573051044521,350.241009407927,3.54569048895365,660.637981885034,-26.1449325207388,1597.89363370341,-120.561420695777,181.518046173526,41.9268050149227,1016.37226871126,-13.5112567321749,1238.48859357483,-99.0820465024695,329.342753801791,93.9672186186326,1459.62817564775,179.108409386436,1181.0376421999,-61.1137965526171
1195.52141394472,335.246245456537,993.839955402333,211.868280306227,222.682602865194,9.0910774389109,948.722806666211,75.2286972719694,392.584669421062,17.0140200964185,281.085591200152,4.29514464956994,345.36854045981,4.45105592322467,652.265702159154,-25.3086793492266,1594.97439078408,-132.896174450023,176.77862837205,41.6197664032099,986.381677770284,-7.5618215680104,1215.86265557322,-98.8296377848084,323.970208531417,92.9422868554421,1433.6046148323,182.264366343104,1163.22535358197,-56.453084558003
1229.87445951011,316.17554644458,1001.46691459971,211.634376202195,219.305472697023,10.2838881334893,945.038930454537,75.5600204476824,394.33372204155,17.1780462134412,281.446448250089,4.67178632154844,347.373338919914,4.235360638651,656.768641154361,-25.6898575913292,1591.76906658603,-121.489958687836,177.85840595008,42.2129513395125,996.162440847093,-7.96660849029633,1225.95144992265,-100.212589335694,325.15734736,95.0044245324812,1453.28247925398,175.738809133013,1173.0157393275,-58.6952088046058
1240.79604141398,323.866505138932,1017.19201823042,206.358002917021,215.625472680929,15.3286118381824,972.967018315814,73.6610609977532,400.204909727448,16.6766806745611,284.405269169409,3.28765983627512,350.432023076787,3.91388559095918,659.829623596423,-26.4958939330217,1593.38813397587,-112.462290067481,179.512016349183,41.7105210500847,997.454921806565,-7.95587682776776,1227.5140489977,-101.246450034474,322.911874562215,92.9949545144448,1448.07267416756,176.261718663633,1172.77248168968,-58.6045183032857
1225.77319017008,323.298645467223,1000.57756931966,209.788255313707,221.858194590188,8.13930141489056,943.487137240002,74.454968042119,389.379514110711,18.3359407573146,282.80026378789,3.71778238542067,346.237720064511,4.6768340273894,656.333137567004,-25.63937887215,1573.68612488882,-116.152023952342,176.993628452225,41.6730350142212,983.402492296905,-6.30550608294618,1211.79956386917,-97.0752503866873,321.380840845364,93.9469897863694,1443.1740397895,175.580438788885,1163.23110587964,-58.0194073883756
1231.18502967507,329.989649031548,1006.13079944895,205.464875717197,211.556695078005,19.365078890352,978.733070275032,67.9743533594298,394.745570132792,17.6654857422131,287.07277710517,3.40736354247437,349.571673277963,4.37767729636341,664.400171939223,-26.3842224593186,1613.28916905846,-131.266798958807,179.577009120702,42.401203326295,993.73388640256,-5.75870659826636,1223.51250213078,-99.2969133783024,325.128257668602,97.0462482162043,1451.86182099893,180.956397716964,1178.81837414996,-60.7224264139527
1247.62091445128,327.812272058243,1022.90170396369,199.728372133082,216.231125407148,10.9294369393904,987.091801063046,64.7386224626127,398.296297265385,17.6873181727135,290.94128743358,1.6777951648701,351.842366005539,3.78059163756784,666.601684898037,-26.820715651193,1597.90980385951,-119.00793503493,179.562319151394,42.1663823407182,988.372067959027,-6.19585380733957,1217.51536756933,-99.1348556403157,326.836026090814,94.7310029861719,1450.58992789122,179.995405917215,1176.86946296181,-61.1661816702614
1235.48445939596,327.810209651226,1008.6197570211,217.706551106034,225.810966024764,7.96912575573845,973.665141743798,73.0028841054209,393.024044801327,17.8688757278835,288.058618153725,3.61568898204923,349.810064512548,4.46324315887901,667.936330846713,-27.7474767092098,1605.34613585852,-132.61743986996,180.004631618097,41.9060616020119,986.466204069528,-5.74763748792005,1215.67998558209,-96.003759647899,328.351181001976,95.8077007971123,1446.21473801078,180.879865999419,1168.87826855277,-56.2335669923417
1243.22281621461,326.928545494789,1039.49761703175,198.208158369678,220.211370849737,13.8236518419154,987.161294588139,68.9758474823645,399.02861744475,17.1514604420195,290.384933820693,3.16579819128511,353.894421126966,3.29534159583769,669.429936690248,-27.0813723111988,1611.51909367036,-129.676892815905,181.688092501938,42.2718828965224,1007.26556442641,-9.51765701804057,1231.10446732506,-99.8453616065533,332.995618847017,93.7187474342668,1459.66214689414,179.791211021105,1184.95992135715,-60.263103563157
1259.43158398487,334.240595989237,1019.84358439622,210.434003253275,226.77211890545,10.6673746005016,979.832947167724,66.8390684563025,396.374663964785,17.2278138264929,289.175531767291,3.94017280522065,352.631165810903,3.61161667997127,669.737093926896,-27.2007571596123,1598.57827379483,-118.136170738359,180.468993222711,42.2241239946833,995.203751930702,-9.23370472535938,1218.0172494088,-96.3804696370466,326.726664116223,95.0148534508919,1450.13312660976,177.992793071124,1175.15200350212,-57.5882638802084
1267.65319127092,322.866698893798,1022.01225938892,207.171386875232,218.409702895771,13.7845551675995,1003.11917595131,58.3499264925586,397.459106011831,17.2153520188023,290.203899907623,3.37801553215871,352.622078768928,3.69605071674461,671.161915756224,-27.6495054803258,1611.60638288241,-124.781151659801,181.644439954416,41.9858099183853,1003.55690548962,-9.1184299937611,1227.64604502789,-99.5945521976768,330.629491143697,94.0582181122363,1458.85978596994,178.06049896341,1183.94061425914,-60.7305336889321
1266.75540451221,329.97431570049,1041.17781115319,210.73085096425,231.095215323589,13.2491181839364,980.130230205072,77.9692138819782,404.517071731073,17.0636486511399,293.60091159985,2.36774290910535,355.827054328664,3.41237063254001,674.456329789373,-28.0751698455674,1619.98297345087,-131.880688607755,184.791226588611,41.7765906620467,1022.64720304934,-8.7299072343526,1245.48069131349,-102.873512028483,333.935691949978,96.8705153016309,1478.34953364681,177.971752480649,1197.42475194633,-59.2425808787673
1254.02124699359,330.654942648279,1036.4157843502,208.173785296371,228.382836862864,10.8776302087795,1005.70122133507,57.8316180990879,399.477443823539,16.9086520550229,290.463181006231,3.59106863868509,352.727027819394,4.03058552294675,672.791018700627,-27.9806709849869,1619.5488617788,-132.814577723568,181.205244624696,42.0883891586023,1000.23656686181,-4.93298274772448,1231.43757937033,-99.7316692380732,333.253977868885,92.9946777981018,1457.62189283445,179.500999689908,1184.96285393412,-59.5711497339345
1239.01629370801,333.055567193016,1047.37373820895,202.144485257237,224.879252292178,9.97410965942483,1006.39180279361,61.7375260645302,402.303719302402,16.6926066706534,288.774738866846,3.96371364467564,353.475227113107,4.01518794850919,672.171751258633,-27.5879165458926,1626.10559336898,-138.444821763366,183.077503525576,41.6769330100803,1015.55614531049,-8.56984988964341,1238.44937714174,-100.251715194982,333.909909005181,94.5440799549309,1471.48826309674,175.655685488991,1195.16765005918,-61.8309208789454
1273.66020814689,325.978404485231,1049.08307379913,213.345217140033,225.462291080109,14.1783693060078,1012.7216925742,66.1074185869821,409.875226638792,16.3709947459384,293.133246106942,2.69958185487079,358.803710446899,2.5532330951592,677.809249801056,-28.9595453792208,1629.14071309009,-135.661642604088,186.641845962888,41.7635339028338,1040.2089246539,-11.9182030288709,1261.90985108019,-105.633538346291,338.656207254805,95.450166158467,1489.22410852556,175.720389093402,1209.43838909142,-65.4228590073374
1255.57428687553,329.497573129985,1036.51219763081,202.047423174662,234.584880471151,7.86990949765365,994.342908867945,68.7052800684324,401.409885141102,17.1901328363037,290.678147924165,3.79356274737917,353.932499714914,3.50263721194218,671.07482798481,-27.2436018491285,1609.78987246583,-120.700389773087,182.735406476528,41.6615553400704,1011.93065721949,-8.28528229123262,1236.41782480183,-99.6090505584824,331.812458856976,95.1058901596474,1468.21298071497,179.9485046921,1196.45324746066,-63.651701210911
1260.18500741014,323.815134412178,1033.93962356593,208.161753956571,222.080777486885,14.4673217975171,1017.07297824011,56.1382618365906,406.729130191989,16.5652954974201,291.020591562272,2.74067420064441,356.057742729706,3.00119968992644,672.149388159732,-27.3836971181822,1626.58928754717,-130.651820612314,184.229977439407,41.594645652196,1024.91220953232,-9.02947459373706,1255.77316399075,-105.923288207137,335.63632949249,93.6365649635447,1478.99371175315,178.476913970789,1209.61000924932,-66.8791167104981
1278.78490226945,329.269519998373,1052.02295664351,202.952565854287,225.796076465864,10.5922323724139,1019.60982179677,63.0512749138754,415.084613116699,15.4697211711985,293.000092573116,2.14857047570584,360.253772944601,2.39101091914116,677.705188853432,-28.852090917546,1635.36344107795,-133.52650060967,188.018194228718,41.5477775416602,1050.80465579052,-13.1325984994282,1268.89245455515,-104.514624565915,341.097949493387,93.7364771435183,1496.93884661245,178.290731709697,1219.51347191453,-66.7000587623049
1261.99162766995,326.038682018422,1050.66197514145,200.736264791864,226.05117698342,9.99687182542684,1000.75920994582,67.3095787073995,407.087661819794,15.9416919603875,292.099435646263,2.12510575100459,355.823925614394,3.03485289648164,672.760790255347,-27.7050742797162,1626.25332746642,-126.203526022635,183.63515819145,41.7649113982926,1025.54918959462,-10.613400767372,1255.4017294815,-106.619843296625,335.602061483965,92.6856728588885,1476.49874531626,176.310948812194,1207.90749467577,-66.7749013674557
1256.42141200749,328.248020748461,1045.66743362601,205.324642994843,229.671619647704,10.845251710314,1002.87877760607,67.4136762300035,410.527765296835,15.8604426320384,290.587751408538,3.07661692894732,357.487365076175,2.66159607125786,671.720701757046,-27.7629233630579,1620.37885098025,-125.053440218205,185.346142536119,41.4044970188553,1040.77096809488,-14.8451034789358,1259.18957565459,-103.66066193967,340.13379416893,92.1185251338206,1488.18286024896,176.595447741175,1215.30950622485,-66.7037888078362
1290.56413645071,316.888431332595,1055.68876532209,199.73232767255,219.147451995991,18.6601864243854,1009.16476870614,60.9870904434381,418.557951109296,14.8568087657857,294.007640497515,2.33378268680177,361.920568162005,1.62301657396946,677.368869350807,-28.4239638565434,1640.71905034344,-128.484366408294,188.754008120476,41.4221969629791,1058.73722301987,-16.8686097736494,1274.32471899898,-108.113544728118,340.749193890771,93.2049719446325,1498.34333366848,173.148306542742,1230.55868359769,-71.2947445191854
1247.62697173684,331.716922499509,1052.74875210295,201.339495968817,232.826743717836,5.58813022246899,999.838160927901,72.7607052554524,410.212160779236,15.9353607164137,292.069376074179,3.09562231258454,357.189472439903,3.04380389033049,674.210344628457,-28.6372106238524,1627.04740510702,-136.580201866409,185.154969462787,41.2709879340472,1037.41402247028,-13.6044770342506,1257.18145421781,-103.265744897227,337.045414568142,94.091373616039,1482.53650831177,178.231904616189,1219.02915981924,-67.8273176773188
