1349.16809820224,327.25014343515,1119.93181915212,205.06887379497,244.018363635935,4.8510158477796,1061.49949423147,59.5109619131038,438.509051514047,11.5771796706038,308.986566490157,-1.82670277648619,371.140271293316,-1.52232470975548,684.223913449194,-30.6348279809074,1724.2405894914,-151.45957104399,194.73791633612,43.7240837623327,1164.82769292502,-33.8151613172335,1410.70962835504,-132.760954427308,360.233339857941,96.4233088142124,1588.51422439644,172.862652299527,1338.37917237805,-93.8918553881032
1328.2993240622,333.28468789956,1117.75739979568,198.298579564487,234.930522737047,11.9786616382927,1050.89202129788,55.3436288494512,429.014532143707,12.3032880107473,307.492289431494,-0.821928375363236,366.951923751233,-0.900060222643382,679.287010629526,-29.7359137625028,1685.84162063806,-147.011395757773,191.538815292815,43.2227313112954,1132.53526961069,-27.0919302247714,1390.62388539021,-130.361870830906,354.590373043682,95.5554412016254,1570.01549516629,172.593551188946,1327.58301503089,-95.5563093930568
1340.06001833065,327.183452294291,1111.94365646249,198.574574993609,234.632898310118,11.4000836139775,1062.48441574589,53.1016579608351,431.755034110521,12.1961367507648,306.839237249384,-0.0644918598011299,368.193421297486,-0.751118935146948,680.457751790936,-30.4828475872383,1683.48249974314,-143.037319174897,192.273700656656,43.5183300577128,1145.43407902458,-29.644890318749,1394.61340496357,-129.423977670174,357.673229669373,94.137615839365,1582.11917487908,171.067878326963,1335.63350707576,-97.3002025395487
1359.50958708171,335.263944403115,1122.47968193577,205.760868379439,247.829458200662,9.04321740433355,1071.61827411484,53.9434827931831,439.238997929543,11.1643645677335,309.345256959285,-0.0275565341314337,370.397098314753,-1.19603115459146,685.605302186858,-30.4949617491034,1733.91530796135,-157.303108721488,193.432201854765,43.6517758846138,1141.63160441635,-30.3273913153671,1393.99565214044,-132.034156919321,354.825109718305,96.4135609559096,1570.70874016445,172.954452132268,1330.06321984148,-96.5546471245012
1322.48951815284,332.386192951833,1114.09623875911,202.429460228404,242.011522945014,8.69562080780327,1044.86620129874,67.1093826667376,431.101302642841,12.4159481619116,306.399941358669,-0.603516875695653,366.984054825306,-0.572278198019777,680.806797083041,-29.7577535549148,1686.25900193663,-149.563450756869,192.214421153891,43.4631334438532,1135.22054514922,-27.1347929470178,1391.40971072312,-130.290977516485,356.245386896955,94.0291930336486,1571.24421673419,173.963288304228,1330.2394956664,-94.7996860593448
1352.19900286551,323.642257976537,1115.68117527079,205.524045757295,243.591873451357,8.49858354929784,1044.02798331404,65.0532347640028,435.70005949143,12.0357504173685,308.79527742251,-1.15751126902972,368.710030557758,-0.872462052045267,682.91268347275,-30.1478533432198,1707.00231706433,-153.418509949162,194.55991633475,43.3461867514954,1154.26039696802,-31.0705504978617,1405.05179199363,-131.859735871816,358.185625244012,96.104624054213,1591.28238146686,170.003770021555,1345.27800537211,-97.3528035374618
1338.01867807315,336.975384857843,1128.18392817343,194.833210346952,233.91595755741,16.1904953789001,1059.95382343854,60.1824150160564,429.882582240304,12.2764104894955,306.868235272944,-0.0163811350771201,366.788917378939,-0.5953886018408,681.393563643056,-29.7296495937236,1695.01981565553,-146.750685835573,191.528957998569,43.5483797448728,1129.33748465112,-27.0167640658773,1383.60251466485,-128.254326180403,352.150416844707,96.5345133954425,1567.96876016238,170.046048078318,1327.10821375216,-91.9695320595324
1326.53519858743,335.469504585244,1096.85137203939,207.538510242991,239.392733283198,7.6076941948338,1046.40970544882,61.8132572828185,429.840726899001,12.2217859234334,307.977275495136,-1.91752071983494,365.735058741284,-0.339354404327958,678.028964176755,-29.1861155705407,1672.06297595341,-135.968454976062,191.396829419424,43.3493147459341,1132.71594749654,-27.8679704778639,1382.64955313732,-127.983947151927,352.491989986966,95.7403153446967,1565.83717526036,174.810699689843,1325.8018406687,-91.8680452603307
1347.12191248703,329.67804541452,1140.63482111554,191.336454469099,242.089692395014,12.9200293166067,1053.75867634416,65.0866389831756,436.110633650223,12.1445360217255,304.655602023671,1.10375800367078,368.193481490656,-0.379605792318115,681.722234708484,-30.1847397922832,1705.08669126833,-151.84861364808,194.167119212929,43.3101491035729,1157.89173926724,-33.2768713167275,1407.06151082778,-136.119319106449,359.570407273047,96.4031678827677,1585.10733302977,171.382109326464,1346.41149598062,-99.8776740533108
1327.39146143564,326.25119310819,1112.81779868669,193.31758568825,244.922390149183,7.07963868394867,1031.26440295135,62.6871332259802,426.225823850786,12.8465782728573,304.530514374574,0.182077395030183,364.981151403047,-0.664452330515836,675.881987402891,-29.0179147043154,1692.41386556962,-153.066804838864,189.452717994144,43.5531189072977,1120.50564130789,-25.6836534028538,1376.04153593218,-127.827095564067,347.748416964091,97.5386788756509,1556.2453755937,171.536972768983,1322.7642862,-94.0853588102755
1325.47327264748,323.435778424529,1119.71168618529,185.633327557843,232.272628628081,12.3925301412041,1038.45627028662,56.4118885609092,428.343534441202,12.5422278495311,305.587076728182,-0.200300250581374,363.973790124607,0.128901346138144,673.758609869231,-27.9397932891841,1688.90257702912,-143.686313119315,190.774300388835,43.592387343758,1130.84680829048,-26.966449637359,1381.20624894294,-127.445374662249,348.857440549902,97.7922976232744,1567.82384498847,171.324104960866,1326.0809312329,-91.9636541766611
1337.37086559595,331.204959247394,1112.5024402419,204.110192209725,232.037819104563,16.2934929053597,1057.36478699492,55.9022658821287,435.72525603196,12.0857132574091,305.631023744966,0.986294978986218,368.344103589823,-0.849181506267323,680.738366778693,-30.2926359686539,1705.21610784569,-155.572905769195,193.960870547906,43.5433493779446,1149.8649151226,-29.890843886684,1405.32582417978,-134.854904816611,355.500365609822,95.6825514930444,1580.25362134863,170.869541100659,1334.66033704069,-93.2380164196525
1320.64864016356,325.753600307514,1106.84233655034,202.263925520542,230.645227658397,11.8304416286529,1025.9614920476,65.2473155228392,425.10858321151,12.9092352297989,304.642761481819,-0.645523239930623,363.08467921855,0.277750200744541,673.337176029216,-28.6555166986977,1677.91755455058,-150.129484537235,188.599400435063,43.7614920891293,1121.65524486594,-27.7800379237279,1376.98068022915,-129.580982717405,349.942158655271,96.4774093707137,1558.97074137587,172.798204824814,1317.20377173983,-92.2909437413471
1319.68915299437,328.425650623238,1109.14644365507,200.96310229236,232.508460548917,14.0631555134838,1047.93583614389,58.3985885875244,426.964619954774,13.4387292695755,302.568087429566,0.496136276410353,364.551185685537,-0.247681972474084,672.919931733119,-29.2494869055707,1675.81710939396,-139.094729084829,189.892018719172,43.6410449441388,1134.57226947101,-30.0886074861433,1383.90059214319,-128.155210813829,348.751919836513,96.2588883925113,1565.51530268866,171.201420200906,1326.78840651991,-92.7513379979206
1345.8018897358,328.92022946794,1097.58815880666,206.093014049149,230.089714777441,15.7688474703768,1049.14311564391,61.2844242494786,434.450692765151,12.509520239621,306.411406280287,-0.666258737577069,366.731132562358,-0.00840021379604032,676.913104315804,-28.9901109455194,1703.59774285391,-152.651248002397,190.732285768485,43.7663686739041,1131.38026271855,-28.7100258438582,1384.06338258141,-129.942366702768,349.134673991691,96.2663236601887,1562.25531811457,172.004618904055,1323.27337452877,-93.0165970516241
1305.24469862016,335.487266077074,1097.98165292354,203.928291652085,230.312688464123,14.2403335214782,1037.83422439809,55.6266382936912,425.395636185506,13.1426110993955,301.168471600458,1.40123648325902,363.133898287388,-0.0933026862777085,671.32135499878,-28.4604047736235,1676.88566268628,-137.095880605842,187.932842167022,44.0697585040986,1121.3661290737,-27.4448919660295,1379.91227083631,-128.433455044667,346.53633102932,95.9372741379603,1557.4482597807,170.487123624364,1317.79753519531,-92.1284914404883
1312.66916930987,338.160476425929,1104.33083133475,202.904338100705,225.298660015604,17.4891439701772,1049.73546680015,57.9492352972135,427.534881474357,13.5010909320631,303.309090598751,0.0674998892121891,364.803672832243,-0.00372267329782445,672.17568049081,-27.8222919994861,1673.87296485361,-142.894204836785,190.101678092398,43.8214104149568,1134.02450453397,-29.3494778141576,1386.83152069059,-129.319911190934,348.627929348343,97.6409584415652,1565.00375140698,172.88178420494,1325.94223996172,-89.3723320589938
1329.01540121001,330.109554397797,1117.3572437501,195.561347643801,232.914189041114,15.6506283331814,1053.62423002846,47.0402842729931,424.610765612319,13.0772106033986,303.191062678586,0.54772005748203,363.381756345881,-0.0450854372758289,671.737457413309,-28.0675134575061,1682.30376871987,-147.080814337435,187.777822465409,43.7213827587667,1113.92703132708,-25.4741453407858,1369.24981021463,-125.012287527456,344.811267881335,96.539898633381,1552.54764169178,171.717096661626,1316.72187400835,-90.4187213115776
1300.99166699751,344.078002123429,1118.36420065779,186.369273817493,228.199174494019,12.4191506240795,1027.09393762131,63.5591343502804,423.141040403063,13.5689004091327,300.734350234442,1.22386879551926,361.553013480869,1.05660309285895,668.750636425614,-27.3234164227062,1666.34079801679,-134.198065571849,187.352339225006,43.9484088432788,1112.17810296075,-23.145596949734,1370.34584963058,-126.074220641848,342.32235823249,98.2836193625249,1557.94718144351,170.329524399923,1325.02415464419,-93.9341128655868
1325.3226687709,335.57679824534,1102.74420496519,198.74021793901,235.559843153078,6.3691298356615,1043.865000775,63.3730948893215,428.998929139216,13.0178468749115,301.523154204467,1.16698071409485,363.912810031169,0.458370066507767,673.907357053112,-28.7114688628179,1692.60699359109,-155.899059413228,189.410875108104,43.9911927288585,1130.88412071759,-24.5531915699745,1386.588808661,-125.236025283346,347.903134418551,98.143340386923,1571.89272427344,170.849241593339,1332.29329144928,-92.276952187044
1303.46676709687,327.715988628595,1089.81137194353,206.977370112884,235.002875492227,11.1154265762645,1026.59923158905,62.2211325013436,420.688023625348,13.9732133220981,304.238093472358,-0.636266103715003,361.296535752722,0.54880215258918,670.079419451507,-27.6616659949676,1670.72434161014,-143.842490545135,186.493464093421,43.8318640567616,1104.13176363347,-20.3367552899192,1363.00277735608,-123.60464157854,341.843773623217,98.4590915427222,1546.60814150593,176.063797852882,1313.15707791447,-88.728772874893
1312.32977537355,334.77061510377,1091.6651857664,200.844752473566,228.969586374472,11.3844241864792,1037.57364178304,58.1143337159729,422.755871819464,13.9762098927816,300.368717137647,2.66370657681084,361.665942707176,1.23568186512779,670.05271495699,-27.527895971293,1660.29635364227,-137.205805062824,187.274763174254,43.7852661556477,1118.20280322131,-25.430044929352,1371.97838335773,-125.318096010401,343.107952615047,99.2042920790307,1557.44038706374,173.107352823968,1319.6052179503,-89.3554342308511
1323.38182939656,336.458526986548,1100.27601895028,212.159681916047,228.160779609154,15.0646876449865,1031.6957166945,69.8644498522208,429.247738700243,13.3586333073767,305.208171604404,0.48846792877636,365.516691060987,0.21079579607384,675.981756879568,-29.0575157901146,1683.94131415922,-142.909565264462,189.996789791336,44.196918349149,1137.41370451689,-28.5824952267071,1393.04718809749,-131.816691883494,349.573059780376,99.0919205858955,1576.97781248654,172.500186452902,1331.52185172959,-93.0625927986493
1312.74671219241,335.243403726618,1088.27863803514,208.424925324175,233.984611572222,12.8241633085312,1036.64485992475,61.7172146921265,421.354441439022,13.8947399797481,303.026904894507,0.476093080934169,361.298416143089,1.13373193202061,672.483176195435,-27.9020673095352,1674.564328003,-150.546483491719,186.219699184447,44.3585717493303,1112.56255008112,-23.0334341354252,1370.34829617709,-125.349262188781,346.052512024479,97.9808081204665,1561.06067413876,170.92077714342,1318.35636843746,-90.4005001031213
1310.56519173668,343.673305111208,1102.24996517239,203.70641666189,232.671148721089,10.8953103464599,1019.20116563745,69.3653774119047,424.537225105202,13.9222672578642,304.554051540851,0.995242738660633,363.471507673271,0.911459461093174,674.712069357731,-28.1508851977023,1678.53736515767,-143.119566297647,188.160412983913,44.2034996254536,1122.55490964299,-24.0190436386879,1384.55155160822,-128.425906318125,349.493467023021,97.5990653680882,1573.02460577481,171.834295112537,1328.03942093034,-92.0777744262536
1320.01850815037,343.671071157976,1118.3812352041,204.460060176519,242.046164344286,4.68199432981375,1045.66264639375,67.3984166847369,431.075929416432,13.6211530763435,308.684826431029,-0.129754702192015,366.331461934515,0.557050492875521,680.590254769639,-29.0620466377076,1693.30249712652,-147.880233912433,189.920188457679,44.1147277867691,1122.69491136343,-24.0559323016686,1385.02032982564,-130.163803114209,350.289243699407,98.8784460279311,1570.58645501597,172.362480423425,1327.26880521079,-93.1521773990374
1323.14922331507,343.052647955842,1109.66461289235,196.693394046375,234.494310219399,14.7236696305563,1044.15304567997,62.6384288376831,424.832862553461,14.1283999645997,308.571225575852,-0.598176656020904,364.206816237963,0.976832418087421,678.248790731626,-28.6373016934255,1669.91595163347,-139.529908347572,188.401284228384,44.1325422495177,1117.7667879693,-22.5882929747709,1382.96420054145,-128.438451212131,348.281349179111,99.0747153134755,1573.62491397559,173.843055344435,1326.04906651025,-94.1588654706527
1322.33068942608,351.682240239875,1116.61989788725,205.087817311998,237.854587175168,6.2413954355037,1045.66071371093,67.6567476918609,429.478235773382,13.4504437069072,309.209275907745,-0.218394609034133,367.238344527887,0.192039553967538,682.663846290921,-29.3324381988156,1682.28745431348,-140.781819229486,190.797848324695,44.4308864436341,1141.33430799402,-26.6950066585648,1397.53248955493,-130.183306926497,353.350562852847,99.5831354742808,1595.88264998311,168.643574693225,1336.81839689387,-90.2495182405388
1369.65204083057,327.275829818286,1138.87160910783,198.922216160856,242.974282182653,7.49083088460032,1054.03868734703,62.365457660001,427.95529033996,13.4654445561087,309.813240902639,-0.033785970830931,366.775225406727,0.315180885939365,684.658296580873,-29.5493203871368,1690.14237083564,-137.459883807812,189.392039455512,44.6151223713085,1127.58667698812,-24.329579878654,1381.73543714086,-126.133193002946,353.049612409472,97.9454014424546,1584.65394091651,171.20650838938,1329.60123259412,-92.8208071261614
1314.18120820039,353.133667165936,1125.40747740169,195.557709026073,229.631964335515,15.6608970851374,1045.2631338412,63.1187781314876,426.714885683117,13.6995686140543,309.721003077044,0.236860561424884,366.011492305039,0.797456715384207,684.733507074924,-29.2954928544594,1696.44272389922,-151.1707529695,190.477931073857,44.3251429447471,1128.34976785701,-22.5055342399815,1389.05036387445,-128.573093242313,356.996526848191,97.374190644747,1588.06836563102,171.511108038453,1334.32160325405,-94.123910457369
1344.02949373016,333.336009451243,1130.36192467201,205.734381345914,242.121317544986,13.2639518328205,1063.31510734289,64.7476813046542,432.424750824048,13.3825903310314,312.564838806241,-1.42897175877852,369.300216518486,0.244309671635495,688.469497530854,-29.9365760235946,1704.31123796294,-148.547565525949,192.554498552471,44.3447087244657,1148.88550405172,-26.9367336811691,1407.02471960434,-132.052469919656,353.33335695028,101.827925572664,1608.16012433426,168.115951884659,1343.11442197668,-95.1655677058412
1335.6617136176,345.57373556199,1131.13367560903,198.945501978737,242.215276407834,9.21452318366933,1078.94113587871,57.7496998116091,428.567692259516,13.8354059715709,312.796867299495,-0.899031124265281,368.338926071915,0.687236356255858,688.91442994375,-29.8271123053805,1702.12132206846,-144.847125117469,191.55145323015,44.0660104731053,1132.33850566044,-25.1046593872158,1391.31636998353,-129.192923834333,356.306563912275,98.2665905766833,1593.70250027993,171.357573302873,1332.90506090913,-93.9312477117986
1333.83668316746,340.152066807815,1123.65740877571,197.639160305545,232.112870551391,12.9491035675489,1058.04616743904,67.5901674149083,429.981465086522,13.1854192520171,310.711993656435,-0.704224605699137,368.709924797081,-0.13152164134026,687.959985791395,-30.3112733295211,1707.31306007916,-147.604598656725,191.489963616085,44.4242266402724,1140.62934865334,-27.2224480998693,1396.54374174985,-129.357907949689,355.337166018616,100.443150689852,1601.68859756378,168.740013531762,1335.54966813901,-97.2735697677343
1368.57174312031,330.837574103681,1122.09757675638,206.53400995458,233.758516066201,15.6261844703911,1053.77115017794,71.3392074664774,435.587244838281,13.4297387395348,312.102475201961,-0.317846873211806,372.128555497543,-0.770634817464716,691.677502026419,-30.4882741340756,1719.4043041009,-155.74113284471,194.871389800182,43.96900038268,1161.14239190698,-29.0656752953386,1417.56501027583,-133.963458783246,363.047880719153,96.8318231878309,1615.60995828238,170.052719465074,1350.94564752579,-96.1779940805986
1341.16871008052,344.206579524807,1119.10940940188,206.700999330445,243.894262126873,4.27832931424769,1063.31766786465,62.5868640846044,431.570807273443,12.8696259640981,312.230904729185,-1.04625822474521,369.702101282142,-0.0159123629226983,690.839643298333,-31.1326183573851,1707.26766584723,-151.718129869174,193.165286610126,43.8190128857465,1142.99048732538,-28.2537881752002,1399.71430858478,-131.281224625078,358.497036656492,98.9760894535318,1600.86639605769,168.904043577646,1333.61748041627,-92.1750514459936
1354.58384611016,323.698618046801,1146.55912537736,193.593397475275,233.743008483164,15.5539086730641,1065.59971632033,57.7366328416809,433.992053961604,12.3648543141189,310.748561112658,0.111501700067029,370.564464820091,-0.328355708401523,690.547724689724,-30.1459667852071,1710.20077508301,-147.95253052777,193.797649147806,43.8551595990261,1155.69227270306,-30.5956379007607,1403.79065152737,-131.932881106938,359.074689670941,98.961590384753,1609.05526824697,165.95521062505,1341.53011864093,-95.7899626616451
1350.43102914003,345.759921219309,1144.10489713567,200.446599991087,239.248255831861,19.0866811366963,1093.2201674418,60.4398701060274,441.788874701939,11.411205646305,314.079735415835,-0.905186370460425,374.185842222388,-1.02823328486029,694.291814300893,-30.3140234124978,1736.03121352109,-158.458668587828,197.418463800127,43.7541650784462,1178.16307222455,-34.4206936173935,1423.58027605107,-135.512275612104,365.004009018181,99.2456196191896,1626.35422558816,167.936238673322,1357.22350948451,-100.234917519278
1344.47739150468,341.441504024473,1145.28947553425,196.239807805732,237.45255840684,14.3997115133929,1064.76451090076,61.4444800232057,433.134605115865,12.5513391694547,311.242782042537,-1.41947986413704,370.805581914237,-0.43860087989853,691.079454449348,-30.2525116418046,1709.33339657414,-145.922169685513,194.498264349634,43.5346565963285,1151.31805830314,-29.7722672807031,1399.64284643852,-131.314091963391,358.954055099033,98.6415893956139,1606.65384213422,167.291065440305,1335.37900293946,-95.2582376807361
1326.58296916417,343.99938115563,1143.32153137026,188.806820756807,230.566916692965,14.7699127797295,1074.06671215461,52.8930611289789,435.290294319469,12.1837589233992,312.192681815553,-0.855988017218784,371.349521300632,-0.685916392773023,690.121756719249,-30.5437019664921,1713.76284719477,-145.358888009389,194.904222099062,43.7468132553944,1161.32609472256,-30.6480770176352,1412.44213012036,-136.110156598975,361.766380654136,98.5586480097731,1609.06066263877,168.359808382559,1344.75228980798,-100.360745104331
1368.3579932765,327.360732731466,1145.70169555784,188.919108716931,248.9728737917,8.18388416891914,1087.21138481037,49.8781963038073,443.641471643815,11.2927364015635,314.058241066922,-2.0134396345173,374.61789027568,-1.32951024642633,694.492962382711,-30.7300843003923,1745.61760760552,-161.433160042581,198.706664331965,43.2443107101676,1188.32201042664,-37.1755057263032,1428.40195892102,-137.789026149026,368.231116891709,96.8405290218849,1620.496858092,170.778017877069,1348.39620960235,-95.9702329660139
1352.68998475092,325.358178801457,1127.71897907248,204.857331455179,233.689717313518,16.5921165697345,1078.9681538438,48.0334538440281,434.879711800816,11.9319861820476,310.255772718034,-0.16430246197675,370.88714981704,-0.804198045100421,689.775167175441,-30.6147059678682,1729.03141847961,-157.59217074804,194.618341577654,43.6945273232497,1158.97953510219,-33.2139553355412,1406.53086062626,-136.835974642969,362.342064717648,95.7507728023343,1597.07334773753,172.339201019098,1332.97525220599,-93.6566242517731
1338.06794396182,334.227106156814,1152.56290157464,181.847729929701,254.369410780493,1.52035496612461,1058.40996822599,58.6261907069319,437.02364454966,11.6667874952497,309.330860349644,0.7162753244213,371.300944893956,-1.3153873733487,688.684762705286,-30.4900036379743,1719.75433375442,-155.110690161073,195.396244259658,43.4544352089692,1169.09729043288,-35.7621744931641,1409.43264903034,-135.50961546763,361.987362430593,97.0332329589048,1609.04812026783,167.849281275614,1339.19804709224,-97.7535645820366
1360.55689901991,329.880006978538,1151.97827651967,199.666068769267,247.655829123561,9.01949938372261,1081.66028672131,61.0631124283797,444.12678901159,11.0986567800933,312.744545188208,-1.19883131764813,375.057587616879,-1.82780995812125,692.60140495041,-31.195975786582,1727.51856425977,-151.368685965718,199.377854169456,42.8287588848269,1190.74925812619,-40.3069532075647,1434.37972031817,-143.341891784141,367.787554785925,96.5870933819404,1621.14151128889,164.540734914938,1344.72113111204,-97.5851592399907
1333.46319620416,341.835535031743,1135.21061906988,194.763753010482,240.064147569205,8.37481306777919,1065.66487143445,58.9405882027178,434.64314226853,11.9868755042639,311.280531603647,-1.01804659059855,370.736185601662,-1.11111368562321,687.632133288737,-30.6118334590282,1713.92192435325,-152.350257340057,195.38999390946,42.7217630429782,1166.66140789574,-35.3183943111572,1413.31886290611,-138.871081282142,362.877757785505,94.8977517521516,1604.18786874902,162.993015511726,1331.78329725948,-96.1317251136777
1346.24639607562,330.10555490088,1120.6523410672,207.897044447283,241.05230417653,8.68467652180531,1066.83563939085,67.9581488921012,437.873231462765,11.5689416915263,308.652390992496,1.23132804138594,371.630221593858,-1.15879078844459,689.81179941497,-31.3826062441694,1708.28133050718,-141.389414872477,196.352974018354,43.1549218342259,1177.81547930546,-36.6855321801264,1414.06196478964,-137.053575662367,364.551591432336,95.8297613911077,1606.29093987317,167.141131265702,1339.85787533321,-93.4135222807581
1363.63047735217,334.615153441716,1151.85118935493,195.055874163427,245.668237540623,10.1759121409547,1085.44092013628,57.7011459541823,445.339420235259,11.098919900267,311.320309853853,-0.656713819174588,373.820065573781,-1.16472012657779,693.03912851403,-31.5898416016642,1730.55824557227,-147.600848294659,198.08808872425,42.8113247875108,1175.33075962608,-40.8091970230649,1412.91471243721,-136.498517485721,363.441970929189,94.5199590570749,1605.84158965038,164.474400326855,1337.80140250251,-97.9913287135193
1341.97089736005,332.283337511869,1144.91577837487,191.120541447402,246.927153947971,8.38043760817609,1065.69842598415,54.7943302956444,435.472306977107,11.7553962812255,309.606713233682,-0.0773749232883987,370.199188677861,-0.787601569726058,687.809119113165,-30.5949913139372,1718.32613340157,-148.36151519734,195.932458197808,42.7101743034704,1168.18329690459,-38.725166562684,1406.55331344708,-134.142085491312,361.44249307437,94.3610279844117,1593.84632092809,171.894423880106,1332.82422989955,-94.7218017126303
1350.18105444607,325.851300069856,1126.97204775996,206.860865897164,230.64782753761,14.8987408153407,1065.8625615507,57.6455858725146,440.280526537725,11.0378550248742,308.926290151918,0.282958948895438,371.412103024291,-0.806011529323888,688.710624479055,-30.8900008347634,1722.38177387037,-150.056329920475,196.856011725475,43.2236139226969,1185.42976696791,-43.1755866023307,1418.23655793748,-138.696087082999,365.283154903238,94.0709454658159,1605.59117939971,167.111931660972,1345.36272623345,-96.8015044984126
1362.7055635303,334.597994967694,1143.03093624418,198.47600704584,249.581814965967,3.85041985553476,1090.44941772765,48.1206899614389,436.13691443128,11.3521069466354,309.501923448055,1.0773053472742,369.991458409043,-0.734288514581837,688.861208007258,-30.7690348113369,1745.56375300491,-169.124050899627,195.802199936844,42.4878183975449,1162.75917247046,-38.4037036801918,1399.70313959329,-131.934382114347,360.299486744444,94.9363045945249,1586.20197082101,171.099977549242,1330.78129988917,-96.9693844175823
1325.52166138886,341.185181345502,1130.0857084884,192.336921031028,243.082550964014,10.3873076137853,1055.46437068998,64.2611173953446,434.290485184422,12.0068715468158,306.080945293788,1.0201038270043,368.070631319562,-0.0714558046175263,685.570341237593,-30.884319347654,1700.38276514992,-142.010411843458,194.828605587407,42.8902349366156,1161.5458754405,-37.3021692075877,1399.70877116993,-135.720223163264,358.652573990426,94.7253209402748,1589.31570190802,167.638431103251,1329.18653831261,-97.1077063301856
1331.34103389814,349.168625431637,1142.86413781715,194.541070829796,238.856088913304,16.0684396797015,1060.26103094,61.2824731913222,438.434452925729,11.6310328719285,308.136125579356,0.235900147172607,370.110889577513,-0.322935978148937,687.216009497398,-30.3339542884989,1719.76985314648,-151.530212591043,196.801640409171,42.6268448261001,1182.67942580514,-41.7274050919451,1421.19928383454,-139.9430602511,364.234911135204,94.8150067161909,1596.94207754286,171.372030158654,1346.5773140262,-99.4963319529054
1342.29772343988,330.700183033904,1122.96498031731,198.789440977108,247.782314839493,0.788683841247294,1052.14143521767,61.8657839309408,432.07721550909,11.6447012151309,306.079969977293,1.01110796109507,366.72163998812,0.180742836953152,684.153294922963,-30.538183259428,1718.58301692819,-159.029372307663,193.176876947441,42.9975083497978,1151.53396491465,-34.2410713769931,1390.48259315176,-132.678072986956,357.132948256417,94.0028757568988,1579.62679851963,169.989541989535,1324.66019399855,-94.1992654640467
1333.56819714114,330.149957950616,1115.53878243879,199.903869702945,232.334584825975,11.2632436675793,1051.9727953835,61.5969933934183,430.751469386251,12.6079405451124,304.66476266947,0.540522723338184,366.122488080683,0.405305953040877,682.046164026638,-29.7602249759044,1699.58978839805,-147.742889756833,192.94504651214,43.0322554818837,1157.49737855556,-37.2859972834913,1393.46728761522,-134.110155292789,358.924735815264,93.4504588391313,1578.56484872677,170.571142630091,1330.15031978105,-94.6617844850425
1336.4043755975,343.913257250361,1136.06159061979,199.396056733555,240.807597592078,8.15447181103609,1071.82327183428,58.5131144770195,436.568542081247,12.241923478286,307.96323305001,0.143314887659758,369.440461605167,-0.473010727367935,685.441297244874,-30.9424299151892,1718.28908709802,-158.779966067811,196.111246469045,42.5216747383275,1175.45360988309,-38.1798433551277,1417.18479396942,-137.201417382946,362.793659108903,93.930260776566,1596.80059773446,168.631850342654,1340.52662817415,-95.7506075744405
1333.61676700088,327.576368591078,1108.02874175371,207.034093817656,239.639400221664,10.7681644608634,1045.01633741088,56.5418376040844,429.202191005811,12.6547295832644,303.820220109017,1.26511101894002,364.952713750943,0.884459241314804,681.86702661538,-30.0077299898366,1706.39016804007,-152.950604763198,191.671722484091,43.3235690504246,1149.38526548875,-35.6235886928094,1388.44539108768,-130.298041562628,355.747003128318,94.0806065648692,1572.83813203376,173.110681963921,1323.41070918093,-93.0788470979908
1323.06870862208,338.604439619162,1124.35514956591,197.067437938729,239.169461282859,11.9023213060519,1052.49442366436,68.3020470995194,430.347130990165,12.8424907759404,304.862628218608,0.625019721238533,365.201836073241,0.866294406106835,681.879838479241,-30.2858559207361,1713.72396742364,-150.727659482812,193.440844728074,42.986537192874,1158.02930528568,-34.7509915595586,1401.33935850798,-135.594107139143,358.435674679583,93.7584466403019,1586.72249037756,169.326734581799,1325.78722112441,-90.0795046476025
1352.54135905374,328.785454421303,1125.99141260234,202.788840855815,239.318593215867,7.93217556194792,1064.91969787174,63.3847263901927,438.063345991369,12.0301981727071,308.114359167235,0.27912798216076,368.818875897211,0.276413877457949,687.183809243169,-31.1458359879997,1727.33688376897,-156.210743343247,195.329900484655,43.1972522805838,1162.45954083617,-35.5711064246239,1405.19864605843,-135.255507774511,357.464745964631,95.6212996912508,1584.08425050897,169.195947330876,1323.31160042739,-92.2003688330598
1319.19674563923,338.095510038372,1122.56822764393,199.468852738995,238.112222597393,10.9527497755441,1061.65433273879,51.3025794996678,427.423757912287,13.5089425471133,304.734307505548,0.950697006644211,363.895064426834,1.05485259387913,681.215470952493,-29.8175137359745,1699.56643425355,-154.848860539533,191.888285710775,43.0760424960844,1149.15015371736,-33.4477075849249,1392.08688146926,-132.175365754517,355.596247681104,95.4458039947305,1576.64183122616,171.104452173292,1321.8488829241,-92.2408412434327
1325.38872406675,338.958295726363,1107.06621902689,212.066485777857,236.282155491429,12.9033630465224,1055.60121433082,55.4223595553213,431.087555952539,13.2378344266098,306.755287597809,0.380356328527604,365.993811801815,0.796547382970233,683.42708297073,-30.0554490828204,1699.88565941101,-141.640954677294,193.779850668586,43.1771267229204,1163.73029204206,-36.6646544800029,1405.24818403775,-134.26164781727,359.425937643046,94.3577477998414,1589.4547535632,169.128042651361,1326.11034137176,-88.5215641396627
1354.82580997201,334.160318705332,1122.89805166017,211.016016533655,236.323498197462,12.406941156412,1076.64362524262,49.5958376760287,434.371688279966,12.878490250988,310.173407647349,-1.01539689918525,366.221977750186,0.589144882815845,686.571796425181,-30.8240105678485,1709.41606074587,-151.545604661933,193.284854306611,43.0944257346698,1152.00849696285,-35.669246204457,1394.30012849774,-129.359790967168,356.306734069995,95.0677510219057,1580.38088830712,169.70885032748,1326.57337065604,-91.936692672882
1323.78949239073,338.436169550671,1096.10648558719,204.218763921598,241.668478849668,6.06728781017807,1063.85359195375,48.9498757655936,427.313132697101,13.1159721586122,306.362706093833,0.574211626477449,363.621836517505,1.13447166780442,683.742282321434,-30.9571038409829,1708.05428351931,-158.281213881255,190.80503060565,43.8464357337833,1148.47129354068,-33.6648299127007,1395.58752368339,-134.836178677435,358.523166651986,93.9662569608466,1583.08295700709,166.743848709855,1326.46862669647,-92.871382733109
1326.97863246654,348.698386434253,1113.30633563556,199.803266945093,243.167879601874,8.84266378832046,1070.63191052582,54.9177032822785,430.901312033484,13.3737833034539,308.83686783672,0.0590071076162879,365.476563031369,1.03463105870157,685.723585218862,-30.7124623379988,1711.55289745666,-157.536547326077,193.525187700727,43.6945428650631,1161.96287572717,-36.2014637424433,1405.18404480885,-134.786247039329,358.910975227518,96.8515408254638,1588.35133316108,172.398582969265,1332.02653913919,-93.3149810478889
1373.83082855625,332.396377177053,1137.68671679257,207.530147571444,233.389268859697,14.5461988382673,1084.40997823516,51.7326141978804,430.063760406177,13.3758735410208,310.547791674486,-0.209595871784841,365.736631245601,1.09918220823088,688.347750190477,-31.1892508166696,1710.46866874132,-147.957279147659,192.143562100375,43.7065509608685,1148.03117277249,-33.1812630804676,1395.43564846619,-132.172871903206,359.89633738016,96.0019063540889,1587.18736560436,169.935086303631,1324.2851694229,-91.2580754469251
1334.05310347143,333.555227839426,1117.2777607516,196.859591813505,239.434698903681,12.3034795260551,1048.03886967757,74.1135050402032,426.73933255201,13.9068113334606,306.258206241276,2.14722521157509,364.81748259504,1.0510470309101,684.796712063471,-30.0240483485506,1680.17572779581,-140.302202420303,191.779422975398,43.8669337496408,1147.38990052921,-31.4867079047286,1394.49428341553,-131.474786588956,358.563254790603,95.7185269007678,1585.62513886215,172.502013766269,1322.5642078644,-89.3955269660848
1338.43445076625,343.911036667309,1131.15278869449,205.045208450088,238.784666124437,6.93544377852048,1075.25462909973,47.9723686394555,432.491320467952,13.4725943355867,311.248411092045,-1.02342935756538,367.031352195274,1.02245418425619,688.611568600649,-31.4519456355343,1718.62892366897,-148.091284516759,193.961131110497,43.8873177922003,1167.34973546547,-35.2821351093625,1414.67584021874,-133.520982442584,362.812501236118,95.7649376196889,1598.77110799418,170.874179014217,1338.85486428054,-93.9539786476456
1362.18172696405,338.374531884866,1126.24267469649,214.995274769775,244.384850085961,13.2434079837381,1070.49066480027,60.8260338202831,431.584706022666,12.5346309020894,311.110973216947,0.480233210404542,367.05175044905,0.672405103684521,691.440088704545,-31.927026423378,1721.66952199749,-151.232573543534,193.060038273413,43.5557064828925,1153.24411011106,-33.0276083400537,1405.28460275905,-135.095039515171,360.94591707625,95.3787993697572,1589.61614635791,171.038902357865,1330.93311091474,-92.1860314134372
1337.50051250301,332.853956199667,1114.4914241251,210.591239286078,242.926178937691,7.18950916309561,1065.83588315655,62.0900515550622,430.832248141211,12.8513008028153,309.836578614052,0.560570408729617,366.701585579242,1.04073653738631,689.700335808931,-30.972472513101,1702.91059397318,-145.949574203942,192.963027190493,43.8325808888205,1158.73459034341,-32.8745239275476,1404.63525490686,-133.338717764407,361.446466771283,96.6823522980643,1594.68707587968,172.202982617119,1328.26817801159,-88.1862534236602
1364.04829626304,332.120833163818,1139.01262159122,194.623168307442,239.43425850806,11.4772660409852,1067.1883816514,64.5094379604704,436.330325672977,12.8188023257273,314.696835243007,-1.20026616627834,368.630432484367,0.859320494517047,694.130496582067,-31.6428162815383,1710.87880334233,-141.558040695227,196.861536665624,43.3029526986547,1179.35616335865,-36.8933687567598,1420.02774239705,-133.958381517147,364.454107406308,98.2829385307305,1612.19292753285,171.081162392709,1349.50802551663,-98.2797735365246
1369.38588040442,325.132566067731,1134.19209565949,204.257689924729,235.55704233138,19.5726908286754,1080.52773498577,58.946171757199,431.05436056418,13.5174853638635,311.187936008776,0.9763119731387,367.525821815201,0.872248829272143,693.804634756666,-31.405066073136,1709.38987210077,-148.065298811548,193.5355196365,44.1172152948988,1157.41831045422,-32.8425207235659,1402.9448418207,-132.626063640032,364.069902800865,96.3610599659915,1596.57996176928,173.907983403655,1333.41558986976,-89.9713394951997
1358.29414830365,331.186477125488,1122.09381242728,204.204185521563,243.555140874252,12.7304698415025,1082.87696599214,55.8564302059808,433.824571312567,12.9241943615013,310.221380476086,0.331518237533352,367.617072976661,0.576708160157375,693.673132785263,-31.8263994530511,1711.84165844509,-151.974663101164,195.08511027651,43.7357954730305,1162.99056271754,-33.2430400040343,1417.75047439076,-138.455600683959,364.399538304197,96.7501578478982,1603.89100599717,169.527083436552,1331.21913276615,-90.8284568073223
1375.99775706424,336.615668079258,1153.32558247301,194.767491240135,243.403274780094,11.6363496623126,1090.64374949184,59.8754600336142,440.624093455135,12.1675013686217,314.773708766769,-0.102583231744591,371.95492506337,-0.250768794740494,698.246787789317,-32.643874842049,1733.73894267071,-152.553466414303,199.421800582676,43.1236236213916,1189.75312025558,-38.7462102469505,1431.4889440002,-138.239056677418,371.980232680233,95.6220481039341,1623.79936476148,167.008327744321,1352.0111998416,-96.2707625151715
1377.8354608956,321.846414744031,1136.03688077988,196.062152162985,239.879340336719,15.2935615697218,1080.47471856974,61.0325713564442,433.677986518441,12.6718621148684,313.967753572783,-0.326282996353331,368.757749023616,0.776831638385727,695.127754852919,-31.1641085252477,1709.43736458982,-144.498282862656,194.839781427286,43.8872635321852,1163.5039063653,-33.4704857692388,1413.7437860014,-136.710814872794,365.981555660187,95.6233677577809,1607.64881348136,165.827782004492,1334.53145240828,-92.4643417429403
1368.22326094646,336.966885955222,1132.8422199355,200.38965647229,247.104974431669,6.01005550558714,1098.56425483805,52.0061237808008,435.186958029343,12.9810275010426,314.154297856211,-0.121291211947983,370.045392046068,0.429070203677079,698.131926781048,-32.3785943562332,1729.58496642143,-160.352234540783,196.309840365628,43.8476529031674,1174.27240933244,-36.7517130488577,1417.705826894,-137.689987239079,368.676203174855,95.4344067974332,1610.12869877228,168.483957013852,1338.92766822209,-92.6362457160073
1364.54617403439,336.730715990897,1162.44415758461,190.156203407328,255.836728451774,10.8103593912755,1097.53264851426,55.8676237482756,443.10877708659,11.7512048995561,318.040340149118,-1.39827100114007,372.592325411689,0.0872580115293383,700.764003958972,-33.005384510334,1737.55459738755,-154.084673115686,199.720775796229,43.4416260281166,1197.49435048555,-40.8327462231298,1433.43935617212,-139.371290840438,371.889664042194,96.8922843388855,1629.90498647515,164.290281029374,1359.32360842791,-99.3970064692823
1367.17914456755,332.18679868911,1160.63478250028,189.856831730504,248.307213723246,5.50880607381378,1087.65929381124,62.8734219949978,434.995736509179,12.4548291436911,314.095479940795,-0.930044679332723,369.992328287064,-0.505312068823185,696.01190655174,-32.3185271561936,1723.86125070167,-147.803992585843,195.709256195563,43.5106769416122,1166.119585465,-36.0376675307108,1409.90824126434,-135.397215762252,364.984632522483,96.5361070258665,1606.48439087118,166.207214395652,1336.02372047541,-91.3488369945558
1368.60839031861,328.618160602612,1148.21904151031,191.028979445628,249.936961739762,10.6118486935411,1095.95568262051,48.8758910949447,437.529974596352,12.2219424322206,314.143822131341,-1.2956080199485,370.786793945018,-0.2987065637651,694.080186908738,-31.5828458770029,1722.59695039893,-144.681993304004,196.774906985069,43.6147675550139,1180.24902488633,-39.6808114760132,1419.39679296909,-138.672610802861,368.308670432268,93.2843913615737,1611.88460321732,167.353241334041,1340.14548495772,-92.6229886115071
1370.59080958145,334.120134967346,1159.36347414087,199.238798162858,242.888899393295,12.7237061163926,1088.90876910088,60.825962032918,444.843208558011,11.4509697848127,315.637421473644,-0.973027279426092,374.520541281018,-0.753715781297065,699.034538287788,-32.3846761132029,1740.35851683799,-156.299084991433,200.200859706474,43.2925216879115,1202.1832652726,-42.4444184613645,1441.22662300251,-140.889367463548,374.055367993311,94.9274035521596,1624.80059242328,170.821973610659,1359.61776342794,-97.7376853889396
1369.50680183641,325.702034466768,1146.8796297297,197.228079141201,246.191857858929,10.9588051076934,1078.6594883187,57.1905121308867,437.153921858889,11.6967452948464,314.826995448687,-1.42234806475909,370.99547438032,-0.54292434783739,695.357077832036,-32.0875518151045,1725.43941043093,-157.900419251477,196.748711204098,43.393420776304,1171.75318694705,-36.5699531062137,1410.7678697198,-136.588341733852,366.91813125579,95.2522153416802,1607.33288258893,166.825662761094,1344.33388621002,-99.0738965293541
1385.83119752581,312.85458619551,1139.34477755602,199.797819730956,249.941616293949,6.72597429154139,1103.34084607872,38.1694664182969,439.704579806451,12.0866067753463,313.763680164195,-0.548309091601742,372.808750305328,-0.947042851804058,695.100507998195,-31.7853652484611,1748.22002828023,-167.303848451394,198.191104378587,42.9374801406233,1179.98208037918,-37.7628957541493,1418.5469241419,-133.660259382671,372.78663578931,92.5624920765277,1610.11819963368,168.11813799805,1349.16246433944,-96.0094126076667
1391.45507240047,327.154439228921,1161.26600800614,194.900137039678,244.903555806865,11.2289536865091,1104.94528616574,42.0479730351687,447.79838079136,10.9379492492205,319.37006303688,-2.60469519308487,376.412087403241,-1.5670240556674,700.256976281177,-32.6365385608105,1741.70943127478,-151.463004118711,201.785407145812,42.5878981324429,1190.35913241658,-38.4414268301639,1432.32078955398,-139.227650957588,371.328327342063,94.6334196071045,1614.70255091798,170.44383852461,1350.64004258811,-97.9667010010892
1376.67562647346,317.445344452174,1137.50949626473,199.145728626416,241.304847214209,14.6606285490115,1085.03526562929,54.6432473860682,438.751192219288,11.553405331422,315.167740526199,-1.52924460841933,373.031165166532,-1.2358700028688,695.575215199019,-32.6205689385755,1733.00676468651,-153.478765894634,198.728095979998,42.5064830247513,1177.41292215525,-37.702244874315,1417.94984295141,-137.822559479166,367.750868445514,95.0401814438843,1602.99199638829,171.311123171854,1340.5994796322,-91.6836524423862
1364.91806607111,331.865232021375,1162.87349434826,194.517513165962,250.573901848932,8.80513142513913,1091.34049311658,52.0689446814345,442.567275965316,11.4899115705288,315.94285620706,-2.22023828910209,375.128640365016,-1.95795083204179,697.572813949523,-33.051662304625,1748.95939907872,-163.403386808494,200.093173944444,42.4006329144779,1192.7672172902,-41.63335281433,1431.80313779263,-141.410888487223,371.491243983959,93.6426365128091,1616.73378120074,164.366840598976,1350.45572085303,-95.6782175518977
1380.75099241645,333.793465649486,1156.38678096161,199.849834963663,247.841549077093,6.60994333170588,1091.04517816602,54.0697634463507,438.728020051755,10.9565555264609,316.660845687049,-2.75782353884014,372.919170848466,-1.41443398665261,695.843771032023,-32.2740091314376,1729.41852882516,-154.372133739132,198.09179122591,42.054908820638,1169.08254981266,-36.5745408439989,1405.4883489476,-133.097022258435,366.294980243423,94.2478870737223,1595.0181022974,168.736754021951,1336.8961812092,-93.0400194896651
1371.88174973332,318.054641939489,1143.59368543521,194.915360969508,238.178320396828,9.99560007197367,1062.97788515453,70.9345921734172,436.381151209085,12.0571482224213,313.486592604777,-1.09091064570016,371.666732858094,-1.54468637990069,692.392082501884,-32.3584006327217,1719.54737757223,-154.156834819759,196.46156621166,42.8693219270747,1168.84314235795,-37.1787002931932,1410.91246818852,-137.154746893007,363.78371849407,95.6759614431077,1595.23630186842,168.831955901499,1333.87787860933,-92.0906619071826
1370.84974151236,330.811465766707,1139.61724307797,201.437968756591,244.65131934063,5.73176743273534,1082.29105693388,60.5770062330843,441.684917535454,11.0564266738637,313.615987121691,-1.30972303065784,374.050187298494,-1.88315462820292,693.808950320151,-31.7270973541485,1745.0293524093,-160.675725237463,199.221563251122,42.51832179659,1187.73522083672,-39.7039323593623,1425.15856303189,-138.997855106308,371.334492582185,92.7832790693373,1610.05199388048,168.211909592569,1352.55435012011,-98.007703174788
1352.76069010042,327.046445107328,1135.63052203884,193.574895534017,235.402714075401,15.1133433186184,1057.83428763742,57.6014711454109,431.880886769095,12.1710939814812,311.256448031788,-0.850750210372794,369.76802216713,-0.822799414399762,689.166839485001,-31.4862952243939,1706.78295389078,-155.312268113251,194.672438011084,42.8140511487724,1151.51133752248,-35.4427429186781,1396.81900275236,-132.991354558995,361.30804444362,93.6072355426424,1583.59201086039,170.099300664596,1326.1278204501,-90.3644014955255
1349.33248365766,328.529652952765,1148.89630893908,184.468085342052,238.971300498615,9.863986279912,1066.24363790029,53.4104730151221,434.047753683049,11.7961351913615,308.749510921023,0.164856431996102,370.578357428934,-2.01041045076749,688.082369108229,-30.8315063571716,1721.69342368502,-155.336400766297,196.143091677365,42.2701122204516,1160.83102263666,-35.2042074948842,1401.39957897981,-133.240049122978,365.418315156183,91.8507032121216,1590.32757774969,168.436214765849,1332.73894405785,-92.842024844125
1378.15787957469,313.535046355961,1141.97856555858,202.249415847171,254.246624543689,2.49796444526867,1074.26975364053,63.1518977054102,441.448072345931,12.0473173438049,311.976723002646,0.0227788366955969,373.430684095371,-1.57467199116346,692.640164575167,-32.2047354519503,1738.67540933368,-162.036620259822,198.216773237552,42.5691506155652,1169.33210812238,-37.1480918583034,1411.96469817609,-136.716583525242,362.847490501682,94.4989151444946,1594.74654749162,169.681090837917,1331.09611241044,-91.6905537576426
1331.96393835879,334.866482924752,1129.05104988826,202.429830851545,251.075907108347,5.61400469458747,1061.38358711411,56.735299266458,431.067494694357,12.2368939293481,308.80945181128,-0.0134552069733403,368.279665704667,-0.661068850478405,685.196935854446,-31.0891429974421,1713.06251651725,-156.67916037955,194.397433950604,42.3725417684661,1152.92932729351,-35.8945250432496,1395.11183686162,-132.925504378251,360.241386540881,94.4165404335409,1588.83187528445,164.619195250879,1321.84567259946,-87.2772946923478
1349.00625204779,329.089758826156,1132.54486426492,198.375130772562,244.492242730716,11.2241658021616,1072.72967343613,50.9131116188967,434.240238463616,12.304592432417,308.248110394303,-0.343770574831028,369.380232982946,-0.936298823486266,685.044575324382,-31.5072515874143,1716.83912579364,-157.840915046101,195.814920867463,42.4146036413825,1160.94096672472,-35.0914428453606,1402.15607692166,-131.483717815136,361.754131439913,94.6469316752639,1591.45581366259,170.453412259509,1325.10685197867,-88.3811471604518
1365.54702202508,329.038892993681,1159.61599544105,194.228569021292,248.498795195695,6.01399676290314,1063.75480147628,62.336793632892,430.874169668825,12.8041676634619,309.39937641358,-0.590182255017657,368.075741435079,-0.350684386276283,685.331510306021,-31.2192189774752,1714.50979706428,-154.341507385803,194.04201280134,42.2474448946434,1142.95424174022,-30.9678266332646,1394.73501716267,-133.727555958947,361.222539495476,92.5622733518936,1580.7521973565,169.898769133119,1314.61332254602,-84.6507272081465
1347.76357221105,327.210639763471,1147.12926725908,187.296960233981,240.1329862738,7.75040863602294,1061.62824972901,55.7908057026686,430.581974879466,12.924730417731,308.1449772805,-0.683852577382303,367.634539695425,-0.389250441837461,684.147867634481,-31.5136098250639,1712.16642639865,-147.372945969378,193.780996329269,42.4640216999649,1146.59046067639,-32.083581860108,1390.725559629,-130.795364610225,359.620926727371,94.2466845448622,1583.87782047439,169.374750162241,1319.77810032472,-88.3051696418883
1337.14828545034,336.894190696804,1129.41550060129,198.698149151813,236.908043569074,14.6590091708618,1074.79930247181,49.3650888771162,437.221769923281,11.765093827443,310.006210891929,-0.364006409051931,370.95868452499,-1.08902031625623,686.248120885752,-31.4894357613487,1718.81965640191,-158.47597635589,196.411316900553,42.7443701101767,1164.35878656117,-33.0242338618779,1415.36604784635,-136.17326553661,365.888498123029,93.4444870630038,1596.56123621992,171.529632932866,1336.30751500441,-92.2587268665826
1340.39665540824,328.887577673917,1130.17092780935,194.747824284544,232.438987445113,15.5198650205762,1057.55961226108,64.0612015480032,429.557219667028,12.2522028881831,309.102420902215,-0.835207192808864,366.200875141429,-0.00381946880213487,682.470392857291,-30.7640486158783,1716.11572611544,-164.869269519117,192.357333172121,43.0308929829114,1134.38445647709,-28.8021178190636,1384.516028549,-128.368862575424,356.140803836437,94.1729563063708,1576.80098097459,170.111971165916,1316.9375359981,-85.4514938305779
1343.20946706276,322.592524304318,1139.69811669234,188.301581280983,245.358156207039,5.77685916008109,1062.45265130595,51.9657258584393,430.068743945894,13.2018998454497,306.553529155314,-0.719190348445357,367.379232843871,-0.274069790272876,682.181072294551,-30.5389322657672,1715.41402072849,-156.121038685075,193.470620683001,43.0817790611991,1147.6274674321,-29.6477074829038,1395.0539528879,-132.697120517021,358.035490760144,95.2180342522235,1582.13247893823,170.891158392543,1316.94667577472,-88.0140755453633
1344.3762019303,334.374894694862,1126.54201563831,202.080458161922,236.084656345303,13.1168846046876,1080.80189663169,45.8735823807774,437.87385034868,12.0864908934045,311.104574801218,-1.31056328622585,370.80067715788,-0.611546907143377,686.85780647806,-31.3857525070554,1717.73630422921,-154.846933724475,196.301790175282,43.0112148658751,1171.18199850584,-35.9306004524238,1412.66524938037,-134.390209361193,362.199649409686,96.4918780737553,1596.31523315855,173.550082290675,1326.16463315308,-89.4822345335587
1334.10254395654,325.077085483417,1117.53561140108,201.859828042546,241.150428734438,10.0184972994614,1061.16863588729,55.9576445476643,427.374749917634,12.7852851782049,307.902020106897,-1.20889129347134,365.736204036598,-0.121013739520326,681.167454492814,-30.3617498673931,1703.61694765392,-148.315136510875,191.543316218327,43.0524145771444,1130.24061111766,-27.1778862662167,1384.93472643109,-130.79705621308,357.093537301139,95.2306606910973,1572.28616885957,172.276616901591,1307.62436696423,-85.8389248967842
1346.27967915972,330.880899380889,1136.98223127334,190.989281310954,234.288095188484,13.3927637788923,1059.81693755445,55.5904427146461,429.974008784311,12.9818441279032,307.386817140264,-0.543804637579722,367.460789054869,-0.255640744237565,681.409897799887,-30.2519856741205,1717.34619679682,-158.801155474509,193.115175413934,43.0294350517518,1141.86432707545,-27.3236890662422,1396.42069403936,-130.867384567646,358.177491970776,96.3410756578235,1582.20666683967,171.473931277015,1317.64137215602,-88.3549237615914
