1306.67458804345,328.510446121746,1106.70624376637,193.912360424887,230.908115812158,11.1493877415363,1037.9428568788,50.5666017982648,437.524958996873,11.7570862489322,304.819969781843,-1.12191693138103,371.253512304759,-1.47213119648478,683.193988915109,-30.716500755505,1702.83161627843,-148.936733633861,193.325038908429,42.0866468395243,1168.78976584848,-35.0086806858641,1406.76340983356,-135.261489140215,355.952079208285,93.7451711052541,1585.07363642105,168.732705370533,1324.55338603628,-93.2228150220658
1304.75840676299,329.077124458681,1102.15255275634,192.063657417219,226.607535299422,14.8925991435503,1013.58359227576,65.0174290070451,431.454227051592,11.4983886754015,300.577442166851,1.08241123613403,368.697160229413,-1.23239599858504,679.620893890192,-30.4844942014655,1709.32578857096,-156.14062369539,190.110887145788,41.842770157356,1139.59369185329,-30.5234163051301,1379.11905284668,-129.024217919638,351.568747301672,90.7951917815817,1563.24917846501,169.677457782875,1301.77437336557,-88.9835300959702
1305.31576947868,315.50813626027,1106.5399986808,193.364677643287,232.658804595308,7.83484948482408,1030.91499844712,50.7276856894887,432.164007964237,11.6658173588992,300.496762289642,0.64980319819006,368.733584503119,-1.23901408444766,678.988111036439,-30.4302579080743,1708.57981679315,-153.731974023674,190.718416205152,41.5900651798655,1149.38042481122,-33.2545632305572,1387.55706380202,-130.805841079433,349.544859617865,94.4322077841076,1565.17603863743,169.538907726855,1310.55423841314,-91.0583798019345
1324.1828950675,319.064708325277,1122.9002372738,189.172181160436,234.009758606804,10.0707545371759,1027.96489290387,67.5183269048629,439.245140016015,11.1145939553846,301.754009046703,-0.304775874700549,371.810822651301,-1.68835190341576,684.22564703759,-31.7053598105086,1725.40330086909,-153.399751083252,194.280275693266,41.6101820123003,1168.37692199196,-32.852817676592,1406.18785906385,-135.389448588207,357.397444874169,92.6157275519867,1584.95460451293,167.094820668025,1319.78954362376,-89.3850721930727
1298.48546284077,324.963189673445,1098.01980049565,197.559288236218,226.312174502994,12.2668855682639,1029.71071244684,57.1408948187716,430.573255153254,11.6503461653457,301.519013968094,-0.324821635842593,368.730823197317,-1.5178696625855,679.173681487822,-30.2653140060724,1705.38936693172,-154.76404048154,190.01726332202,42.0252073246302,1141.68260225204,-29.6601149688296,1383.14522960409,-129.132700861279,354.356292177659,90.6033501858386,1568.09051170914,165.209855455524,1301.9317271593,-85.408381741364
1306.88554244988,320.932375261713,1107.40891303187,192.759312322573,232.620400369445,9.11060945991621,1013.41070235689,71.2337802081448,434.054992367152,11.5841762132551,300.097681047516,0.525411165249091,368.765684406313,-0.679417460812919,678.989312778529,-30.3897807547951,1716.00715742899,-164.953504391489,192.544668328246,41.5306403747785,1154.43096261129,-32.0815925618438,1392.46818665456,-132.125686423277,353.919934628443,92.2877269034212,1571.52045257506,169.375580808873,1312.21034256679,-90.4026655307054
1331.94155826722,322.565335022232,1123.33051156373,189.113280462079,236.891033640024,13.295846058811,1048.94998010208,51.5906633089387,442.198114958696,10.5762389006787,304.179386188453,0.356925385093445,372.73011993613,-2.08379262225288,683.934441885468,-30.5823937198772,1733.61071026787,-160.521082507436,195.009647737872,41.8113459740344,1172.67186556614,-35.7788281594088,1408.7109951528,-136.984147038457,354.242949058556,93.211535281853,1577.28660974092,170.322018270645,1315.02867663074,-87.8508746311284
1302.07391207232,324.487102921631,1103.97478820211,187.524263795859,223.112135182836,14.7157189053417,1015.92599677673,66.8686495809135,429.157861871347,12.0897721246698,300.960914385382,-0.894659229645815,367.657334649514,-1.24322400722775,677.610503605609,-29.8470491799763,1700.95375635689,-157.070617916627,189.988109737647,42.0958462297237,1140.96776685942,-28.5592031079972,1380.96587663903,-130.452141258063,352.161197023922,91.016467365954,1562.84047337113,167.369378324182,1302.89183055338,-85.0276146363408
1295.62349735781,332.067581094018,1116.06736220742,185.725432973276,220.357620085686,16.2423945677093,1013.54179531225,72.0633338529842,432.811566730799,12.0661207566781,299.76933103957,0.618677822852344,369.167176180222,-1.44294258031823,678.401042349025,-30.7976459264381,1703.54655347982,-152.26187592405,191.28166922852,41.8533328645178,1156.04913428628,-33.1091503905264,1389.74720487349,-130.866792847971,354.650277013138,90.8087488275626,1565.3154260355,169.027969938604,1310.90394777652,-88.9426967429257
1307.82243243657,334.253168944528,1126.9022218705,182.929637866148,217.691527776261,22.9750646003913,1049.9589049797,47.8892040899285,439.954194793326,10.8465950155456,304.442832628475,-0.301601718425136,371.027032692218,-1.50661548106029,683.09360449523,-31.0200825407278,1727.54272797875,-162.72942765246,191.622816890901,42.2045595782817,1147.86467697365,-32.061392725435,1386.57945692338,-132.542106345725,348.25208754458,93.8433793792314,1557.31513285871,171.131931503932,1301.93382905184,-85.9409595064456
1285.97610528486,333.093261584658,1101.86142572485,191.711810011218,229.398366725961,14.579478577553,1014.74998574386,63.4261994535576,429.162791292834,11.6152895603093,298.954585604965,0.914738985860377,366.348609735268,-0.665236237769291,674.62120446214,-29.2190557623245,1690.36746551429,-142.286199542479,189.242219248476,41.8477326310994,1139.26501279305,-30.9113306082233,1370.43397417146,-125.038096826932,348.796365294049,91.3764034092983,1552.1154440598,169.533379093602,1299.18892608789,-86.4958359899473
1290.39960801141,336.05777870988,1103.29332963776,193.050473249949,230.431355012885,12.1801892379732,1026.41331655952,57.9516262616655,431.678054347342,11.8185543934825,299.231342073757,0.741387634213423,367.081622719594,-0.611914730059871,676.194164868843,-29.8106131708373,1703.80783285583,-154.053848778475,190.562080471862,42.3556009192271,1151.34570048039,-32.4936636080619,1388.23182472814,-133.182409837771,349.140352165386,92.9315757411568,1564.16366018629,167.48395567811,1308.53019453615,-91.7017525751365
1306.11228524542,331.100770868404,1095.66863455823,209.967777706193,230.832740158845,13.3510624120977,1023.51258390075,59.9945352386907,433.15532205316,11.7379981754772,300.518968632211,-0.227837969829779,366.790632333519,-0.397132322524265,678.106682219695,-30.7892879754679,1706.83550405555,-162.915040321235,189.163697879196,42.1887251970893,1134.51676719555,-29.5371264267005,1373.22291825849,-128.637036103292,346.723658367796,93.4038232311031,1548.8125679082,170.533736498774,1295.98418640958,-85.594908233075
1268.41759263879,342.695066780348,1089.03405377948,192.535609815268,222.85541050559,13.2424049935771,1013.06669794869,54.479495676019,426.422950082126,12.5859955046309,297.321291927204,0.710406577580127,364.519596513596,-0.346472009525622,670.441940673711,-28.7045672070271,1692.75464063121,-147.462284592555,187.880104867897,42.2951168168603,1129.99407572393,-28.8433035763438,1372.49976239599,-128.675975189965,346.133423453931,92.4739515227043,1541.71931433945,170.857687046883,1290.61886127997,-82.8399929615733
1285.05801965503,327.100987059639,1095.20711793954,196.635010884837,236.071469925335,3.95580475238445,1023.056327031,60.2326747972648,429.846128857054,12.7804113200641,296.434276329278,1.30471912701565,365.493319707393,-0.0503802876946464,672.299815593596,-29.3814690753807,1694.26311413054,-154.840427623474,189.500357436697,42.271521344864,1143.85644655869,-28.379208031138,1387.5746120231,-131.200214460652,348.82687432567,92.6040935932638,1558.36227375672,169.189628463778,1299.09515675472,-84.776677011129
1290.48247505398,331.424209588042,1094.982933867,197.722879955046,221.245717433707,15.5973479367284,1020.4048688078,58.943030642606,424.557191563776,12.9398367876653,296.828963680475,1.62939601654278,364.428181099709,-0.129475847906351,671.05601211122,-28.6749616885335,1692.41990411222,-151.026594191579,186.747687533344,42.5086787830511,1127.08663028212,-26.6036379815232,1369.0174314783,-128.811135759908,343.841724615704,93.6747495357356,1538.78789294172,173.403341545513,1293.10871721786,-89.2944349193744
1295.20046389067,324.282399110903,1097.55641990967,194.767428078384,227.894377364018,10.8225387193832,995.774110299753,60.832224784912,423.358684952776,14.0823852904823,294.868257176916,2.22954160730295,362.206645628181,0.717290678693531,668.424918070237,-29.1063677994941,1675.50160731271,-146.781276910996,187.615054689942,41.9626477085197,1126.23462019637,-26.7781459924827,1366.86582859318,-125.630830917562,342.368621725531,95.0940653305758,1541.13372659506,169.372438441536,1291.42989546039,-83.8868199142576
1302.14561886648,322.282756027848,1094.949937823,195.868129279234,224.49189695718,14.5950407879752,1012.11490674848,67.4239462751475,430.532832532653,12.6832954362425,297.470865162341,1.46531976077244,365.699428294325,-0.0720278524149497,672.551616386557,-29.6739251035362,1692.7263098732,-147.18474753703,188.674038695905,42.8809510207645,1150.06148806552,-32.2592408010054,1381.91539978647,-126.558148761592,348.255788310595,94.0930807184287,1549.13103849862,176.359903170782,1306.35415794236,-88.3207984595627
1274.7358937295,331.232465334776,1086.03282395707,191.860178078462,230.196749486598,7.55910854469029,992.863054022434,66.8922765279024,422.870129478178,13.1712254864574,294.954214902463,1.02435085921868,361.885080263467,0.462557630889689,667.83854136434,-28.4791656510074,1681.58474137672,-148.105761500159,185.10512532948,42.885978115732,1120.1283026331,-25.6258623818576,1360.21265347231,-123.207801651947,339.073568866355,94.7965678642321,1532.86362218402,171.35277919935,1286.81746964078,-83.2456758478297
1270.87661010591,330.746981385494,1078.19108578916,198.258146026688,235.217447357396,5.27230548078444,1009.96057620136,60.8544563302104,423.329440326096,13.632235207268,295.387950379506,1.70918950751178,361.683469450059,1.19767177022393,667.286578426813,-28.3494381347898,1665.78234152002,-147.128907316303,185.864597084072,42.8387372743386,1125.33272686644,-26.2568384301139,1367.12345820071,-126.668081648537,341.853642364551,95.3488585244603,1535.56901499965,175.069852428056,1286.53902474362,-80.4590158968176
1290.63106572582,340.174729717222,1082.58361711387,202.560022524885,231.421904356801,5.24753778768685,1027.65435087374,56.1210851791311,430.278886505919,12.9853576683789,297.555277574514,1.80201444297673,365.776774129921,-0.0792572496035606,672.511139745885,-29.1289898631792,1691.40614344078,-150.252612765936,188.915393432557,42.7637758364839,1137.25530966205,-28.1211734660317,1370.58524180424,-125.33389495303,341.36610570304,95.9721922244095,1547.39264837708,169.58885765994,1289.83102332249,-81.0484795975897
1275.06786485879,332.970209693695,1100.87218214916,187.208724101879,223.95056355163,14.7918643502037,1007.04236242879,62.1651959533773,420.746635179148,14.0617773912776,296.727926938035,-0.598772318110571,361.39932340593,0.945498486348769,667.82803012512,-28.250768069631,1661.57829347505,-142.653496845603,185.224968803173,42.8642951047707,1119.73826541336,-24.8365070954275,1355.58042062511,-124.102430738498,339.914651451115,95.8479762672147,1534.96962611336,172.236241522583,1285.52639134311,-83.3691120734613
1283.68787137142,327.021403212221,1091.5300045039,196.047163350689,219.803725073637,16.0234725896328,1009.87774875194,59.6095465556092,424.015214972077,13.9806191325016,294.826534498354,2.26593343942202,363.138577480227,0.597512104341349,669.340626624933,-29.14368042144,1682.16464130249,-145.928123740744,186.293790346192,43.1354735724294,1137.16265995272,-27.4226290859945,1375.35249675842,-126.730208391584,342.442564661201,96.4049596895825,1545.13763571506,171.319014860976,1292.51448158541,-81.5723938247773
1282.33101705389,333.471490171481,1079.79964554159,213.163016911881,228.192891365718,11.4126912410921,1021.99684156086,60.3566226393113,422.215088571822,13.819851888346,297.525075445483,0.798623577166887,362.800932768075,0.75698883266037,669.808072565124,-28.6725033553867,1673.27460184045,-144.809788478898,184.850334477037,43.2066002723321,1118.93422126088,-24.8826148419169,1362.91986994778,-126.454188502451,338.478323464281,96.816356525107,1541.38727747096,171.514160296195,1287.72854982863,-82.6818920759083
1277.6432830007,327.041294415198,1083.01078485288,200.174261543902,231.56335387466,4.91969257376964,990.936651893333,67.5686490130861,420.92723536952,14.4879824480265,296.419905059862,1.25005162939,361.675400920374,1.06750635659803,669.553722903863,-29.0887142081471,1667.547857861,-145.95774798775,184.247145935313,43.5723155007829,1120.84166948843,-24.3979356647805,1361.02670281247,-123.859120905475,340.440590487063,96.2170628999234,1539.87193571775,172.095759571455,1285.02481148543,-79.5767168937978
1292.36277527921,324.339385766752,1090.21734391762,202.66469685062,225.524348089165,12.4148669541712,1002.32577750651,67.5807326630593,426.414525006882,14.023538259124,297.611932599405,1.56160513806132,365.017876560807,0.642220175481822,673.265026492582,-29.6331627443485,1695.36902763989,-151.191991123849,187.633778070657,43.3090300930101,1145.35808846104,-29.3231208108041,1381.45460153282,-130.260227753658,343.208088355342,98.1224437367531,1553.9679247687,172.973894233136,1303.60154001613,-87.2484814155972
1266.92330236393,330.48765676105,1104.38209566049,189.711016288405,214.696946476455,19.4057391959627,1007.25420894111,59.9675034002787,421.467055090172,14.2036825999307,296.553871909765,1.6384861706722,362.555474807282,0.953889156925973,672.061529988809,-28.5569096187825,1662.74702505939,-141.951207820987,184.665372043207,43.5378208549985,1122.94999636063,-25.8235355690463,1359.66028138078,-122.337362622754,343.444802752719,95.3808407235711,1536.01953481222,174.47901227728,1286.48407116706,-80.3357932670074
1276.53717064421,333.976169394508,1093.00481361585,196.293211483989,229.269849096089,14.2322481880043,1013.71728692766,64.8604717763341,422.631045280488,13.966121074596,294.318628819931,2.99117405556785,363.261777920169,0.67064560681278,672.721818214901,-28.6432692044337,1685.67545978306,-145.992014165707,186.301191428612,43.2746859574183,1126.7972318602,-23.8913728368547,1367.07699712001,-123.453716471449,341.092854483403,97.4169284793369,1546.63077841792,172.029813819928,1291.19348345214,-81.0996925653307
1275.88060348151,345.856847777306,1108.45841380887,193.090413180051,231.86350814825,13.4803006176573,1024.25825168886,61.0574131237281,429.196230529519,13.9518236969472,300.882219255967,0.906033253998386,367.076875802622,0.3355502046757,678.173656583326,-29.485376731646,1693.22997701176,-148.935378748483,189.744834545469,43.2048001486149,1149.17374227872,-28.9544387501744,1382.17258407239,-126.505317232876,346.422557465617,97.2234738464956,1555.23084752083,174.494654210767,1295.1710577428,-78.403228532801
1275.80961536401,342.080269389913,1090.01805395593,197.034807798819,231.968064315981,10.293487016734,1015.60150969476,59.1831282154767,420.915161430959,14.630004629275,294.387735410348,3.58089555975869,362.395782680336,1.23135769638618,673.416418407758,-29.0435769648269,1663.85171782921,-137.878502766479,185.618636986375,43.4374381910713,1125.15452415805,-25.3450925554344,1368.5195617276,-126.938603487068,340.628008931883,98.7545248238706,1543.94131547688,172.981576758774,1287.28564553807,-79.8420019902003
1274.95710099777,338.936020552195,1090.95001375184,198.079372671362,220.067802910603,12.6527589524398,1028.1737881597,56.5846365077396,424.91110755658,14.209534228997,296.10275599645,2.18337245021588,364.5762923344,1.05318143994655,676.200920338882,-29.8070895418162,1671.66916378932,-142.034348223066,186.961657562115,43.3359179754707,1137.73192037054,-26.7184665879284,1377.1413131979,-128.903273367102,345.780057236486,96.9309529363628,1552.32270437511,174.675855049602,1298.41385579207,-84.6060907072574
1315.72585447781,324.78472744827,1099.05299523454,200.057848314494,233.562780369853,7.81472328392671,1020.13548423262,71.1277803203648,430.26266953436,13.1266676528461,298.537715617951,2.32467243495643,366.008944925481,0.74760866663177,678.427517528175,-29.3179382322662,1683.11610389527,-141.163425251091,187.994070438679,43.22262960785,1132.38577307672,-26.310052672388,1368.44148265901,-126.480332299667,345.278109480075,96.6821566331254,1555.41845421802,171.187515471191,1295.72252145395,-83.2190293693315
1275.82145966259,340.8164553313,1094.77218824454,195.6001270115,226.123242710282,13.6309209146413,1007.56820760522,67.1642860887862,424.4522510095,13.655414322264,296.864822769184,1.53256308339902,364.686621638913,0.440011640291123,674.688057157912,-28.7787946350292,1685.44954409134,-146.075346351308,186.706095426733,43.7649704560274,1130.01837802624,-25.8965537515752,1365.15507331505,-126.891220858267,342.309099556134,98.4710992511591,1551.49682194121,173.924898066908,1290.77481845858,-83.6773091414954
1289.13665307075,330.40653194366,1101.57953450516,204.083218802889,224.978763333286,15.7852708110773,1036.06660954885,56.9618738248599,428.583415317699,13.3317585127589,298.910168891733,1.57560063150284,367.107379512503,-0.126027201318107,677.345585113167,-29.0704975668946,1698.16133313774,-146.979013847581,189.516737946305,43.3398669593842,1147.9890715727,-28.5495851602548,1377.13514756081,-126.863114583292,346.55755932357,97.6318601360644,1564.24964520862,173.408973941331,1302.28427216141,-83.8728560017667
1302.78006958852,327.39166566413,1119.56405171257,198.572834010882,237.039950322188,6.54642658898896,1011.86438182153,71.3262401084745,426.378070582057,13.4815496920497,301.240266251822,0.509682564521551,366.652548491405,0.0826816291496794,678.85219841292,-29.392224555561,1695.21869833296,-149.257259703643,188.108618282136,43.153115711914,1135.05476406851,-26.6906769153898,1370.0114881366,-127.294642062021,346.44317210713,95.6126940869612,1547.80877470062,173.959897998974,1294.98911181919,-82.4234415889012
1280.10857835229,339.895682716659,1102.27796849419,194.710855182727,221.729943851783,13.2320202156468,1021.94185482651,61.9149407465856,425.877865329524,12.9839005552093,296.527542546442,2.19595896549122,364.805303986456,0.784658168403876,676.404910456679,-29.1063609829094,1666.03944714352,-135.461185206473,188.091216833535,42.9652470898613,1137.5972880111,-27.2880906046263,1367.44882469823,-125.523520765955,344.033165301522,96.3333310249277,1548.56649908321,171.898892496849,1292.16944524171,-81.9304880189145
1292.39657198673,338.794474982052,1097.89976333431,200.484843457758,231.312396345518,13.5178585881338,1036.79519859412,62.4036499294813,430.963050032994,13.0361019617024,299.747427522542,2.00616853747993,368.331933504696,0.115967012788415,677.948720103801,-28.4849867417737,1680.07783448152,-141.008819295608,190.876113188616,43.0010063484602,1156.79965842036,-31.2813492179221,1387.17783451788,-131.379408039989,351.772340807621,96.5294898065859,1561.10554925236,175.226264390315,1309.3614062206,-86.2233699619406
1315.78251115307,323.721965101552,1118.79080469904,190.609188637473,225.689089078082,17.8749602478188,1036.68776830692,56.9270188331218,426.769804938321,13.501703606706,299.703704030844,1.0179405430763,366.854580607927,-0.0596762007349803,678.827983166126,-29.314551480268,1696.04041664443,-147.953531351259,188.900329658098,42.7403788634373,1137.83485806472,-29.1213416279786,1370.41560454953,-127.284257067706,345.761476396166,97.120265043357,1544.53568313979,175.452188532655,1288.8987468859,-78.5613664265122
1288.84588628198,338.828733463883,1091.11020918816,201.528310094912,222.175526754022,15.6925125768536,1024.51347389684,66.6622581236932,426.299050980414,13.3040788158065,298.126594107916,2.49693808233514,366.090141100829,0.127223375620756,677.130173316722,-29.8157616010144,1680.87530522377,-147.0640881203,188.88564574737,43.3083424359342,1134.4298133862,-26.1466206211893,1365.68916127409,-123.537305135594,348.100045973687,96.3458401105008,1549.94281708245,171.95237226853,1297.02970802451,-85.2431908450967
1289.63848779917,336.24149360314,1105.52599413479,202.179389776692,223.219379441247,13.9662418724406,1024.4578321,63.9832271136774,432.387392340119,12.9893628209512,301.29555552574,0.844798079391182,369.133614523128,-0.403469565092622,680.503842210944,-29.9553628040009,1691.25396520813,-143.951837513494,192.073420980477,42.7727682751684,1162.48706049109,-34.1893692571113,1391.80416199726,-131.727833719446,351.172281842568,97.614604862919,1566.60880095942,170.523071072477,1311.29170481964,-89.3140270246481
1301.65611814782,328.352186919353,1101.97353509581,201.42360265795,231.353273923362,14.6092226972065,1018.99564746518,65.781801393815,428.10892064163,12.6364404135495,299.861971058945,2.20273531662912,367.177355142081,0.0582319027447474,678.610386866926,-29.0603367655732,1685.52742387353,-144.749028593891,190.244617382421,42.4326337808746,1141.85009451739,-31.9538678779503,1366.31184333237,-123.974421593699,344.805402079348,97.3404257713739,1548.22127993458,176.528362239799,1293.30537043139,-84.2732579312279
1291.9806767004,332.182004232979,1088.52602400668,210.480187571161,234.230516913474,8.85791191280429,1024.54862312774,65.9614704217323,428.820611697672,12.1292352427923,298.571623419425,1.81166733315071,366.969718871241,0.123560960932801,676.793033342683,-28.7222074378679,1679.80081181634,-149.426092062495,189.792587950414,42.7948900015282,1146.82314808841,-32.7270245275678,1372.39621089036,-126.915912252644,347.621078683063,96.2504453476575,1551.34268470011,173.689764177822,1300.17245946783,-88.5874539958931
1310.36342016519,329.096708147503,1133.72303672075,189.724870136894,229.23537169228,13.9412004305598,1035.3386319761,58.2434936546229,435.454958643335,11.916677495876,298.770846791629,3.28123754702542,370.566227763428,-0.263444915857568,681.576396559432,-29.7166487305061,1703.55347223824,-153.483981038098,193.42866273301,42.884311597077,1169.92279516609,-37.0186077881566,1394.81023556291,-133.320011558566,354.319458236933,94.5282769859585,1567.74307669458,171.840803482843,1317.1678751916,-93.0296414740817
1284.07265967253,339.45918212374,1097.65760590926,192.253410343973,240.72449598215,6.5405586659818,1024.99157397563,63.0738158682822,428.096044418303,12.5622721535035,301.420968544028,1.32679881976539,367.030289642394,-0.100220156545313,679.040081262548,-29.1167600920357,1686.45813721242,-141.673832830023,190.345779481922,42.31769907169,1142.96003265985,-31.6578660954043,1371.86570026587,-130.00642315645,346.753718602953,96.494491353674,1544.48684766579,174.809914371068,1298.61485841505,-87.8624793949051
1321.49844273538,315.458963681859,1098.85593773748,198.659171673246,235.569582717816,7.34766163065626,1005.22283317748,73.8930880569582,429.732760909896,12.1219327718145,298.951779861202,1.7956804553936,368.423118398044,-0.622091073194567,679.409696531834,-29.3908279736647,1689.20100521558,-147.767090613829,191.214067848152,42.2534909327085,1157.54354210652,-37.4670193158873,1374.7215230391,-128.070740987067,350.971188126307,93.883356899806,1553.90394021155,175.38310942475,1303.55054281901,-89.8239640895504
1309.44586548109,340.956588421173,1129.60543289072,183.711975458412,229.470401220987,14.4116313693509,1043.17828237266,60.7408709108476,438.06216976512,11.1183065401367,299.619648096561,2.88919610715995,372.099202519883,-0.902517192473174,686.102213485651,-31.136514171937,1714.37294427645,-151.537785367624,195.054405395577,42.2535626431807,1179.31759097718,-41.4272420618192,1389.95191818922,-131.462362114137,357.416574430212,94.4420225383579,1574.04748181904,169.022632719975,1308.69150517991,-88.3983591000965
1301.92314991092,323.037577053966,1089.18637459817,206.41726533466,230.75240721873,13.7616262142594,1034.66169831406,56.0842092895909,427.92102295366,11.9837998611965,301.248739812305,-0.421505546561172,367.796789541324,-0.752590772139645,679.27853855802,-29.1268718139463,1686.72532111776,-149.832205324361,191.169860048897,42.0200687103352,1146.66247191281,-36.2900141137607,1366.82712772351,-126.903336229869,350.204936677317,94.0856860906103,1546.53864444241,169.715341495046,1292.49673074922,-84.9290224602974
1310.30129802749,320.19606921642,1098.4234044995,205.281568628043,237.853935870612,6.37437887793443,1014.41608395486,69.9654023647933,429.889395035096,12.0595097600636,300.663915338944,0.540830175629973,368.604221101596,-0.615926971880447,678.593762678045,-29.0981262757926,1697.445145217,-146.935047314632,192.100428469461,42.0225161369463,1156.84620889473,-36.7529290482328,1375.52988350931,-129.845376011226,352.536141659418,93.6226978674039,1550.55879139338,175.494174415882,1306.06706683256,-90.8210366940869
1333.93101881559,308.420836236203,1111.76321356678,201.310151074721,244.07413827811,2.95543945240891,1044.25672666334,62.8190116241549,437.477770599557,11.4586711623338,305.03779640377,-0.690382624597989,371.84924176856,-1.17587860325218,684.998182144396,-30.6986342140484,1707.13750499586,-141.290549931975,194.230035925378,41.9363463250163,1155.62828507162,-35.5404571215611,1380.94917790567,-130.791910955195,351.277534090875,94.4115465254801,1555.07608810847,173.856909558165,1303.84342336702,-90.3842565406818
1288.39784560063,338.410216443761,1102.35263423216,196.248694691992,230.929090947009,12.7302332572891,1029.34104640399,64.9161498341366,427.377512494048,12.2715592624162,301.656755536784,0.502166874005977,367.440410351059,-0.122310253951649,678.747862925979,-29.3166951598598,1683.854975056,-144.138266064011,191.355331403497,41.8719263265788,1147.67597614949,-36.7035516196083,1367.18564870312,-128.856330090843,350.889245202439,94.1519219829707,1549.41084496224,171.99493785682,1291.70311957766,-86.2223182024094
1306.75706900052,323.91122250122,1114.44755441551,189.252443608341,225.959244242278,12.7289923232354,1036.077055256,56.3507613412507,430.71623161275,12.114675017633,301.826384705928,1.30457331167281,368.12940669498,-0.24895694649736,680.117150807751,-29.9229215862253,1689.26497516764,-142.640575510933,192.494808620407,42.0731549095369,1156.83774696376,-37.72295088245,1375.05234501727,-128.031967101319,353.948591235932,93.183467294775,1554.53314323363,173.250157691236,1298.73840997785,-85.9569401290022
1308.88284667137,331.628378591545,1116.76003907793,196.403590122797,230.388664452143,13.0095501542104,1042.92867451539,54.501037172226,427.6715460817,12.5591856039005,303.738747133178,-0.271580007016683,367.875783643487,-0.435485700639313,681.781243085679,-30.1442064703452,1706.76846772229,-155.242423419251,191.5744091538,41.6222539113396,1143.68683839963,-35.2215963316108,1365.60207519988,-128.978165090015,348.755789239677,94.4546186114942,1546.99802268353,173.075457030927,1291.14749932382,-86.4592418857349
1295.9302139608,333.264082638292,1096.64055106245,198.998286560532,234.257253843824,10.7454544159046,1028.63302280831,63.9832822063064,426.302984324355,12.6876343288072,301.517453602814,-0.0594584510016968,366.941965462467,-0.0645159759517483,679.701371657486,-29.7219337650428,1693.81860952335,-151.217655479411,190.468364449694,41.8905451463353,1140.46570515159,-33.8426292956076,1362.76360816271,-126.552605383132,350.268294034769,94.2355357529948,1546.31191218084,172.023157724497,1294.180758858,-87.4854852830224
1315.37002724341,320.480949694779,1095.89118906314,198.92011707604,236.569705908748,15.1984302417415,1046.5772727408,55.1444369971644,431.602231778508,11.8134814910652,304.840107013249,4.59681798376833e-05,369.694132143716,-0.395506976041645,682.402929880861,-29.9460464412062,1706.3853059365,-150.258299564307,193.202326056072,42.3170067793365,1158.84011358195,-36.3602425297924,1378.76053710981,-130.07055470146,354.37258682043,93.35912189771,1557.18257629223,177.619370170785,1309.96405112282,-91.1054771094419
1295.91005860384,335.382056352252,1111.95836229901,193.975205254643,222.187870340464,20.7535932245705,1025.98841382874,57.2098799724564,424.20846358642,12.7315374976131,301.375127334626,1.25526442099386,365.742335740048,0.515290730998091,679.521054546247,-29.6164566582903,1692.45183838214,-149.014572515058,189.735895777847,42.1321183681638,1129.29731136058,-31.5272123735868,1354.83608541975,-125.795299496809,348.788535787775,94.0259356804596,1538.8371505819,174.627054969563,1282.57439109298,-83.6339416510747
1301.21592934752,325.644933597851,1093.52217875117,198.927256023432,240.370647475557,6.25459656267063,1036.95637135699,61.1814099370005,423.398795466498,13.5594117230739,300.337054105649,1.25979324884149,365.672765141032,0.250643096916356,679.223338704919,-29.7637164306452,1688.62576315783,-147.751942495001,190.398361242941,42.3121323758689,1135.79156784831,-33.205591287267,1353.38070139518,-122.567710327039,346.081449503622,95.3604714783122,1542.9243523533,175.938113808699,1288.68166570612,-85.3156133067912
1318.20710827306,329.221107933964,1102.70092804116,206.476828257548,234.536207040106,8.78139323595063,1033.16038788902,61.5823023039154,431.130365086749,12.0120254302608,301.973153522897,1.87307846967458,369.267528660312,-0.139285186114734,682.392657636558,-29.9728852442562,1705.66926180423,-150.5929017322,192.643637063432,42.2965177613709,1160.65836492195,-38.975308547543,1373.93772586566,-127.26625207835,354.365240179609,94.1773919871556,1566.11756931499,171.426586603468,1295.70557410812,-83.8797545756861
1284.65242455191,334.843131337735,1090.04589389191,198.943361991818,228.391920681428,13.8751671479111,1045.66817853401,52.4728287450545,422.223112962758,12.8002486725216,301.987775209852,1.10906935960463,364.824536669668,0.650892780006894,679.144473948816,-29.4066337252008,1662.76541780906,-127.053082556968,188.856692145235,42.4564716506268,1124.203106854,-28.9961347888296,1350.73543303277,-123.851424726868,349.481936969915,93.7143507951443,1538.87918855394,175.546663255076,1277.13477027318,-79.3946496431924
1284.76226742504,337.830782274659,1078.49329135291,206.111534076372,235.835257162835,9.96322338641403,1040.509004945,46.3891929048979,422.997384580911,13.691230022185,302.674842630694,-0.49735924380207,365.734084913071,0.450337948291649,678.68716326684,-29.2410670600104,1689.36458520744,-144.62030593079,189.900467368893,42.7054250524999,1135.72384730884,-31.945274145979,1360.18045677875,-125.911377312027,349.167840705702,93.5262905327941,1547.38913166718,175.354205543328,1282.85888525681,-81.2536133693487
1317.31244673288,333.219728310401,1095.45900292542,202.330087594356,236.237674495805,11.9784039790489,1048.64953528205,52.3733428650463,430.024721650452,12.3823317649144,304.705022948425,0.0328610482895695,368.741710799271,-0.071457985924636,683.400677217133,-29.4182317352639,1694.01899027598,-137.356649965967,191.419042842482,42.5426818167388,1136.83945527327,-32.1308024081283,1358.26712092611,-124.365102119872,349.48226006136,95.1906562294924,1551.77844413502,172.13148119946,1287.09992167321,-84.1484172274036
1302.33597269348,329.292342443494,1089.16671936229,196.760784018028,233.778740966225,9.52950424429433,1030.18295993547,62.0065942911627,421.865960455485,13.4548164097327,302.054657645919,1.04008459127794,365.321814455327,0.700918605291243,678.360892844438,-29.1155350154131,1677.47775873988,-141.623991349873,189.235195952093,42.7660929299933,1124.01711413762,-30.1039832799689,1346.38461572805,-120.914115426199,347.66576933137,95.3964060178628,1543.01541931105,174.524732520579,1275.91850543569,-79.9200821140475
1296.43444927117,337.247759005201,1076.4107304745,212.979644991501,232.281851446669,15.9422580334035,1012.69499230438,76.8339996532338,424.894773110725,13.6494001858157,303.401946860996,0.196758135060911,365.893136537348,1.25145626037377,680.563822725838,-29.3433447345154,1703.00166406589,-153.667554002517,190.941361134898,42.6521166326334,1141.77384506424,-31.7830069518609,1363.07486717301,-127.828046629885,350.936847513988,95.5338778751175,1558.10606885834,172.354303114191,1285.90409078266,-80.4747164461368
1326.73500084461,318.536840223534,1113.51902111958,202.252132637222,238.283845363316,2.9798921531152,1025.72387759412,63.1870259343288,422.799196936424,13.6876226855023,303.391095668031,0.3144358204555,365.839913553829,0.908529965604237,680.463912543944,-29.0617903341186,1684.94220063583,-145.23444851163,189.655493876415,42.6260415597458,1121.69686227332,-25.4857777013119,1349.13023508349,-123.083598954897,349.237800012807,93.3033530521673,1536.36644800486,178.502973119597,1278.39508549092,-80.3625244984999
1280.95112417019,335.239473799964,1094.24362873219,194.437030069295,240.619487290458,9.94474126450861,1022.20666842191,72.5170236009915,419.877019318472,13.7853523346205,302.092956135515,0.768651254826167,364.247927551761,0.915131418999883,678.643342426019,-29.5925457147489,1680.59605772434,-138.911281624231,188.236981897891,42.9333203879074,1121.90908016922,-29.5642599253366,1343.4782990656,-120.695767589398,346.780522160729,95.7114055645852,1540.19472983754,174.588898744131,1275.08404275888,-78.4635057304901
1305.88871604637,330.20956448203,1109.20476380511,193.717938815189,228.700989488966,14.8061167361499,1039.56897663323,57.5307589212789,423.884893813122,13.8833628270329,303.364219005419,1.17920098056918,366.197245877156,0.491777058019553,681.794353117865,-29.5256343908943,1667.45625156978,-134.60153726691,191.503043197224,42.4985166184128,1144.1873120753,-35.7417301326603,1357.26991603516,-125.716765161776,350.8945315394,96.4989325139903,1553.22695569191,174.645393091361,1285.04352609795,-80.3755597831683
1309.7512031471,335.487346298158,1089.0587593678,204.467582268105,233.657064721818,9.25042982353047,1039.00102643646,63.508161982087,419.768002920913,14.3498189991086,302.854673434626,1.00951746206953,364.238747613368,0.751403323065111,679.897608973447,-29.1058895479037,1674.52975701967,-142.962263827348,188.678575416667,42.985635495035,1119.69765786995,-29.2601509475577,1341.02061694277,-120.817683960266,348.946899117043,93.5626257630889,1540.65072697005,176.774917929664,1276.29966806992,-77.0990414598001
1290.11609796297,335.956440898725,1080.60304770597,203.11429944899,236.299975825651,12.192508839671,1041.67000240728,55.3621441464985,418.731908265106,14.3977284111404,302.117994776488,1.01867026120695,363.695058924602,1.27266156507144,677.828215454101,-28.758262808911,1679.76121205096,-148.695368832219,188.223998703262,43.1105385051858,1118.98806274513,-27.5575595821818,1343.95907243749,-120.285884981552,348.467672941385,95.4584153648925,1541.40118776016,173.427879480519,1275.07148263468,-80.2012813555904
1317.41599135354,317.70815982683,1109.27023796676,199.782927748129,231.803476358979,13.5145683906308,1041.17909510639,58.7890180850936,424.426167882136,14.003706087271,301.27887666652,1.31007752015688,366.091794815211,0.55296272329528,679.817787043411,-28.9491956221685,1698.95767465348,-151.457563838068,190.608893029958,42.7812969134222,1136.95083517668,-28.9350836748788,1357.51496174488,-123.238348531655,352.864088430489,94.6200066271404,1552.4457630462,178.399187618459,1291.34370364345,-82.0315336913452
1299.77906512703,326.566497772509,1098.98175239605,196.327842488018,234.82188820193,10.2572846466062,1039.51697805074,51.6769433744635,419.398557646346,14.2413207819672,301.899050477821,1.89056412390286,364.00519560322,1.09156562902492,679.592077334131,-29.0252288998191,1678.94889978695,-141.250258715365,187.64630020785,42.8214684110384,1118.70107528513,-28.9417481551189,1347.40754867784,-123.922166493334,347.090252996318,95.7352924407815,1543.39985176896,174.693592986884,1268.32473703862,-74.7898309919223
1283.47475602654,331.060970106779,1093.17526687121,202.271496305108,220.164727424549,19.0010804813782,1037.73245264143,53.5274622129256,419.190083977148,14.1479076670157,300.663401427521,1.52238636977938,362.533048641338,1.83964354935528,677.693047517933,-29.0978650642626,1659.99477399713,-134.687185821169,187.740099610483,43.2649952277856,1123.53147458582,-28.8665226346332,1348.3214556965,-121.315872879155,348.816986474469,95.2634960989323,1542.76102295048,177.864431133607,1276.17396617973,-78.8800543618256
1312.93076234182,328.877004807005,1108.43869427042,197.36738168851,233.94591317066,12.2608470054937,1041.88764327851,54.4331944949802,426.196382513828,14.0740600591193,304.103311181152,0.817182962556092,365.800303546484,1.10874451340564,681.587859688368,-28.7575121665914,1682.40041347852,-143.168527968213,191.339367523553,43.084862066178,1142.14149063495,-30.6648062557524,1367.84769678734,-125.309782444537,352.068631694818,94.9696664940157,1564.60924451611,172.988453486184,1290.41287804106,-83.4253615621375
1291.58028033142,330.162720127955,1065.97763147156,210.846786167716,233.269310919179,11.1645257319898,1038.40738956852,54.3878705124932,419.145381746457,14.3082487382889,302.379312859846,0.359586408197596,362.610389225437,1.35599894968017,677.834538567253,-28.0806645582529,1663.66372202032,-142.664364364754,188.647402994362,42.6038557574887,1119.61193143914,-27.2196227164169,1339.89827628903,-119.820713037516,346.018447041729,97.1344800897507,1543.54537108129,175.058332872019,1283.91679892459,-83.2654941133848
1307.90095800926,332.605343129433,1106.76134091971,190.171660785217,248.807855677462,6.74101642459809,1026.93377563011,59.6078372928804,421.992577831263,14.1878648512053,300.713363575212,3.87792013029585,363.465156366724,1.78331347377308,679.218065045899,-29.0491578391444,1668.65933074493,-135.526423247428,189.858297455834,42.7320233664377,1129.89923091884,-29.3098881987534,1352.0449885981,-121.059095211424,349.798481397496,95.1946316296275,1553.06551306386,173.686160886252,1288.45487057673,-82.0372747358239
1304.35075367634,342.7187666719,1106.5450438356,202.232726954251,244.733040653899,5.60609430652799,1036.63210210238,65.1285622479235,429.569543114406,13.7209800522767,305.633027260605,0.876818230696329,367.442559663876,0.949575076729977,683.809617642318,-29.6072943503124,1676.92439104036,-133.988006383571,191.923247608909,43.0539090451987,1134.62573823753,-29.3858100763728,1356.91637066164,-123.019546050988,349.380742410608,96.3913053819168,1552.06745107229,175.450818593749,1283.53129026647,-81.341511590749
1291.56792899027,334.28675211893,1110.56759647515,181.724565349022,236.9094661291,11.1602966758702,1025.04381817664,65.5994620428621,419.397887690577,14.3719701731148,301.543430221292,1.57970890395551,362.370050672529,1.73694706387945,678.321437333625,-28.1811014821952,1660.98184345656,-135.275005525544,187.875802915769,43.2365504373538,1120.21709218597,-26.3455833248012,1346.41176931523,-121.905030711093,347.247772833897,95.7632321154959,1546.55136905864,173.104111336076,1283.40362242206,-80.299313385159
1305.3892907378,335.916212971159,1101.64865598806,199.128321859844,234.575044015659,12.6514409698874,1041.86622403786,59.0502837485743,424.355352651079,14.1329970693971,301.722102285001,2.08165406167046,365.258349836697,1.40579491972461,680.968208647153,-28.5922896026023,1661.92101724111,-135.361213394959,190.133215572813,42.9538140411506,1134.67729191233,-28.5784652595705,1361.42166598557,-122.842016495508,348.980766311535,98.1821014514951,1555.40807893369,175.798458408312,1310.41763726045,-83.5293498311193
1329.49704943123,334.104756087028,1106.90402460183,205.190069231528,235.571180055563,13.2985642845186,1055.06493873962,61.8553333044014,428.272264320355,13.8896599880826,304.53022793081,1.88737307699389,366.320872468167,1.47089739463348,686.021105173356,-29.2929816246145,1683.71564958204,-146.424736161976,189.805273445698,43.1602139580108,1129.04062033551,-27.192708170729,1353.5940768316,-118.846697943728,351.209850095316,95.277560001581,1549.09316592727,176.478507604437,1311.55250051567,-84.7669459510174
1290.7122961631,332.405090682404,1097.61131881857,195.601662092483,237.135267785744,9.3891511129737,1034.95202924594,59.9680765862173,421.870471534982,14.4369954842837,300.889773773559,1.96677744197465,363.862378335519,1.49934136707514,681.127593460643,-28.4094019954038,1662.94763047454,-138.121171353987,188.816136721202,43.3483266137997,1124.36789298877,-25.8917203481259,1354.76924291391,-122.103071121852,349.63726690358,96.1510418508622,1544.88254703428,178.937734986674,1302.39358776147,-84.5340604851625
1327.48685371329,321.062625748576,1120.7251840238,187.768176394169,233.429159210597,17.0183649534631,1053.76290060767,66.9397577485361,427.204755335282,13.7694437889854,303.351474825701,1.20709554117713,366.760226853351,1.33329754094786,684.866429857092,-28.8539597524381,1684.94777242822,-143.495782924315,191.531628387489,43.3003662137135,1140.97168892088,-27.7133778243003,1365.51192222102,-122.640620184977,355.169276802303,95.5066491696209,1564.15995494527,176.532163772478,1316.2520725806,-85.3006181947946
1337.16156426506,330.640782493918,1107.31215378068,204.467684662486,245.837775179287,11.2409664538919,1045.98723141816,66.2333316777105,425.728401302678,13.783424877099,304.130729301886,1.64786496221055,365.464870532534,1.32612213111098,684.15571130412,-28.7067155218965,1689.04220926692,-142.37059369994,188.906376879522,43.6343584197646,1122.75427272684,-26.0646641811434,1358.10805240737,-124.199111780704,353.088521645143,94.8721808332607,1552.98956802532,174.828952344055,1307.57271950376,-85.0644602581999
1325.43592163834,318.764866388171,1105.98067911166,195.712698225646,237.082932003884,10.2862295013935,1026.89695262949,70.2079535073763,423.406815560259,14.2100931889517,302.907222598789,1.90986562814102,364.063882493914,2.27950876940475,683.485542820071,-28.0952506864345,1670.40111675921,-138.988234495486,190.026636546039,43.7840129946958,1132.15316301285,-26.9677866430556,1355.11754509954,-122.089831291726,351.592858605782,97.6450014225894,1547.64207578329,175.248155560757,1317.99137060707,-86.1669418294865
1353.32115905353,341.9688905731,1110.58366049523,203.410923450502,256.147127415527,5.43160347822851,1078.48479593039,52.5042671590542,430.928800418893,13.7996262632176,314.606766563886,1.53586188827401,368.445432831983,1.53277644291636,697.324400933775,-29.4065677406599,1690.77720878284,-137.981582240761,197.171734748037,43.9829239388177,1152.49343650906,-29.1400140449696,1379.12983732141,-129.313498937529,362.914050517466,98.0807018070211,1563.86033107158,176.17822584333,1340.44695919437,-87.3406568076544
1354.93341725122,339.202945104571,1116.65955436856,207.068127150134,247.336597328995,10.9287799876333,1078.04108091991,58.6811764896784,425.219738691556,14.2780738986317,310.482876402848,3.0883606229888,366.632384351871,1.32782436867033,693.873873486159,-29.3069335377451,1674.36835446567,-139.889842403493,194.267220760898,43.6202437265887,1132.26607353207,-24.8256019144001,1357.48316781391,-123.138788897472,358.806288512529,97.123348878047,1545.10204987403,180.458878066614,1335.27630892866,-88.0830674525656
1343.42183904373,330.742751876148,1102.98155464015,206.176407316561,242.748490719072,12.1092753861653,1060.79469167921,60.9494510479678,426.034478661414,14.112202668432,309.398721441848,1.78408065244553,365.451280558244,1.67815483786304,689.182292481,-29.1322059278937,1692.91868995176,-147.291518363064,193.181592464497,44.1204289056427,1135.9105892507,-26.4529734671354,1362.2810327846,-123.244856628902,357.179796132365,96.4557090559173,1555.26255231429,173.95781455591,1331.20926219941,-88.9740352477082
1350.57810891347,330.54797417817,1107.61508804184,209.818590483898,239.730776672646,9.48652545871578,1064.13330354765,62.2347746049296,433.189413816969,13.1440341296409,311.691512622096,0.0315264744331952,368.684115898197,1.54299095892594,691.094427639575,-30.2238688977499,1696.89527673935,-143.417814904603,195.541953280781,43.7635566963373,1160.27456976537,-30.7532655298579,1386.69628777083,-128.888396545996,359.684878956466,96.6230420769477,1575.13054053275,172.959708798379,1348.96738293531,-93.0151521387146
1343.6031310835,322.751255995297,1090.4056892277,207.170718251052,241.413483335618,12.9636895281714,1045.93392156989,61.4710160279561,426.075032607611,13.474734197891,308.446520001439,1.59673893868875,365.929259714324,1.03833819018592,686.736870049518,-28.8200137053993,1670.24987174902,-130.637909785846,191.643263111621,44.0979309038012,1135.17400326401,-25.7521210627493,1358.85867243479,-121.173411793645,356.478012038664,97.1694835655666,1557.51248490862,175.998284900472,1327.85878277513,-89.8283445172247
1336.12568247615,332.510489629274,1111.44995531422,205.216130827529,240.232682666402,15.8157722721493,1053.18109311217,66.0343568569927,430.330320239537,13.0766380102744,308.827357204166,1.39549409546128,367.004780853199,1.09765311192574,689.073591620425,-29.792233476876,1690.10724562144,-141.412733354224,193.459588536729,44.0736401401541,1146.36461231792,-27.3924606118245,1379.41643505577,-127.431318384579,357.008013626696,97.6948578535962,1571.96249743822,171.499901954584,1339.24827256195,-93.5955417864151
1352.66006346504,335.52166936476,1127.5209954405,194.458972795659,244.149430342867,7.69158165412446,1100.66681230405,39.9254927723117,439.019520329281,12.3397709179898,311.517253832921,2.40201464600504,370.324419014961,1.02931057792383,694.176424391081,-30.359712253861,1714.82259355681,-151.059038319167,196.112746504886,43.4527697809679,1147.66889448055,-26.2357812753323,1377.57101413329,-123.549336677967,358.443511601489,96.1052192683269,1570.15110823932,176.061183036266,1334.09321255702,-91.431784361794
1343.56993905713,329.104872115768,1113.63182057303,203.873817006508,231.060104893848,11.7493297282173,1075.56964854678,49.6967949187764,431.660977024622,12.9137843458393,308.74524135371,1.6466452019013,367.797590664544,0.981881326126278,689.060585211234,-29.4033983013855,1698.40999947805,-144.926243196901,193.980410348256,43.3242381663898,1147.98288835972,-28.7356170826786,1378.36541888813,-125.584645108021,358.29670851298,95.7763930370089,1569.13765982684,174.264326985935,1327.92981647106,-89.9688409952012
1344.85628329325,332.612377204128,1124.67149254381,195.24092028759,232.955274649905,17.5930184898413,1079.90402867774,42.7966459703766,435.094267205171,13.0737562308791,311.697038335136,-0.295017578420961,369.355788251734,1.31128733391557,692.133591972573,-30.139069764694,1700.8404833425,-142.192393239824,196.294479884318,43.4049517111726,1166.08636496482,-30.0782016274275,1392.9629459258,-127.610977803218,362.836802173116,95.2583562983441,1587.76348504753,173.974081249256,1340.27439366821,-95.1763148881061
1368.62909242984,312.601940769442,1128.29536914282,196.478565069541,245.402711373173,11.1561036512544,1067.08730457384,57.4541145009273,430.872262355675,12.9761086534421,309.410984931239,0.984014957261764,368.349652142622,0.82671049810151,690.409581810533,-29.9109620245037,1678.48451791445,-132.722776274974,193.660817185126,43.4069628763556,1141.87440313486,-26.4058257512217,1377.00027075963,-125.027590048134,359.719215997957,95.1456208729889,1566.50603003225,176.902576739279,1321.17990118154,-91.6687573891809
1357.58904245413,321.802851296316,1120.75664582156,197.980372051682,241.937808013169,12.4086593379306,1068.67592681579,61.4670190298935,433.494579678344,12.8856697507758,311.04468388158,0.457727830928108,369.310097692591,0.771273940456497,692.58491635158,-31.0450086100794,1694.48613856058,-137.550202729152,195.56573507458,42.9511187635158,1154.9959883695,-27.9343145909723,1385.21212314023,-125.957731872264,358.630533122744,97.2259517363225,1581.10554061693,171.874859994754,1330.22563099944,-93.317528891949
1372.76835438905,320.966626718534,1131.42215865065,193.382643683518,245.684892421126,11.2839323225163,1078.11752248252,53.3914552065188,441.824084145713,12.5467982333161,313.801614594358,-0.0807951696805205,373.272177863318,0.0597241894918559,696.535278005931,-30.5693323253865,1729.51209842376,-149.272229508694,199.220246788637,43.2876235627287,1176.92765539881,-31.5830771109314,1407.36032237712,-131.891443800005,365.91801073837,94.7724677429332,1595.77163663296,170.858562475253,1339.40576588059,-95.559133198349
1331.15026930293,340.048487111965,1114.55489638199,204.978138739123,234.848664141482,17.3922992195563,1059.09873494445,51.4783820267092,431.433655776534,13.1087070425192,308.8954303401,2.07184936959999,368.320865465015,1.02033204507239,691.419166893429,-29.9540510204196,1684.70233239563,-135.721003132176,194.489216282165,43.1917335735197,1150.51633522085,-28.7921179023099,1383.70892339283,-126.86989928969,358.727588119717,95.83052829721,1572.48789138322,177.207641954593,1323.05029178157,-93.9295188420911
1355.93382993603,321.932748719765,1119.95932940045,203.378138049546,241.84467840065,6.33204571345137,1070.03875694266,61.7186587867973,435.851407584145,12.7394627317793,310.858308906441,0.929843060757372,370.841449262058,0.236828606135612,691.267353669686,-29.4914075005612,1702.48312870981,-146.223706193264,195.680313848972,43.5751558353425,1159.58583908934,-28.9991126859099,1391.08785663209,-127.109614295984,361.775570011186,94.7173676285528,1585.98173708322,172.250726230419,1330.38524613556,-94.9422593283506
1378.61242074723,323.408454760798,1139.46530626047,200.830913928585,245.297460069355,7.18395623247972,1080.27935168182,57.1237359690307,435.328599834252,12.5380847292821,312.138940749936,0.709140207674487,370.123984476881,0.480975497725914,693.097942760342,-30.3622090325461,1726.89394896444,-155.31700112534,194.632565363453,43.1365094206575,1147.2694106489,-29.1803769592628,1384.18389162062,-129.267305209266,356.992524657713,95.5159881178821,1576.21712546975,172.134362795091,1312.88666223273,-89.7887025034408
1346.90026002801,324.874027564587,1120.62998534645,193.013143541833,235.007114841119,12.6244610784275,1069.07730215585,63.6549084339672,432.928931612455,13.2287100188434,307.640734205541,1.32930034397544,369.102072472875,0.320161082803289,688.652937254156,-29.9169647090895,1699.66037030193,-143.152253308269,194.954225675013,42.9917674220689,1142.5127325866,-23.4716119530562,1380.32574059246,-125.587114657048,358.502614152927,95.1659953694656,1575.63056328566,173.414171353557,1309.20074524166,-88.4075010012525
1361.04409941486,324.143153665057,1124.45162987032,201.119171919603,247.280643222737,5.72827509623023,1059.48868553682,69.8479624091158,438.053784749581,12.6241263894176,312.390512540054,0.20017838145306,370.689018864726,0.647156473539552,692.206682901383,-30.5717055875548,1702.41457861232,-141.977747923828,196.995507625859,43.3710332031365,1162.87775796241,-27.8113906616527,1399.58259772142,-128.82169824282,362.777069589708,95.8285298663933,1587.51379527495,172.797729155375,1328.16843934913,-96.427795193285
