77.1775680846192,16.3410220846196,300.82356422517,30.504572512267,106.663815971856,3.5037349240334,469.560824800702,24.0003506380268,781.114298254023,30.7229424281523,287.965512996235,6.52408931195035,1225.19701825203,36.1396185781016,288.419414726548,-24.3102053650134,349.556562284251,-12.8564915274052,835.33779852426,370.407878318279,584.510336701814,5.57429045270637,781.321280460728,-17.3519771334268,646.562590093597,152.028487370747,271.897614725398,24.5510358487855,823.160461832964,-62.7219311648075
83.1033436549284,11.497777031149,289.680631332837,30.5291755448252,111.065964593709,3.3617515371279,457.980445782412,25.9973482561005,756.947378586966,34.1221172431492,286.014896572312,1.19938379102908,1199.41602869131,39.737999904338,280.433199376218,-22.7155294240597,341.450831147002,-11.677558231307,783.057303358495,361.924387396316,564.85599261269,8.35134557834928,759.345178421336,-13.05258866777,623.442867943875,152.585687006297,267.922921768449,25.029834548088,808.497246304242,-58.8777694958253
94.9584411747752,6.38436232383233,297.338416547901,31.6056184594175,97.1421205974261,12.8278548380664,478.050762096108,13.665269201927,769.317719144845,32.325421177409,282.355507535921,5.92594622339114,1216.86913113119,37.022478921283,284.501191513635,-23.3532661953788,346.062537527756,-12.950838757945,809.682860311935,363.618524944257,572.932985786478,7.40125759494703,770.062528636653,-14.8448698812593,639.876308043988,149.867454880091,270.162718622524,25.1934304295586,819.236111769422,-60.4081629961461
84.7805157656169,12.005929101943,309.271821581606,26.9506610924687,103.131614473857,12.2610486912694,486.970040657169,17.9165945957705,785.88581481896,30.7310934276075,291.791199556372,5.76016230318782,1235.18607854922,37.2890281098641,291.844301214116,-25.0284468209566,354.555481389169,-14.5829629325153,844.129190208676,372.646752880291,591.130001259921,4.64439751112275,789.297405479518,-18.4242919654218,654.06471303303,151.007387169988,273.383375808588,24.9389805930368,825.809088054398,-62.7646482730854
81.7735556682046,15.714209434056,296.767000813304,29.7203979425436,115.349522269507,3.89322913441646,471.988482151213,19.7370773780634,759.924270019162,33.7344220733027,287.231360787751,2.85535091220892,1198.89227548656,43.3368084941103,281.915775407479,-23.1809219362412,345.536767853465,-13.0619389313056,795.03261348505,359.984903237858,565.827692745226,7.19577676024986,762.173946023447,-13.6157313134608,631.6331203908,150.031489223132,269.014975254721,25.0273568072799,811.138971740412,-59.5556319403984
77.6273712458516,18.3501817903162,295.216617441406,37.4777904250419,115.583492662358,3.7625485356406,470.38192309595,16.1958586878597,773.135070083084,31.5053473062807,287.969568210718,6.54877657643225,1213.48234513735,41.6375266059432,285.503257270904,-23.4687505939626,348.990645365689,-13.7837511764507,817.025463861907,362.539708782802,577.429142421111,5.4816044049562,772.754696170768,-12.9397859267478,643.707837649054,150.649056401073,271.19974508983,25.0995665409689,824.090935927446,-61.8960477297817
83.0893601863714,13.6356131682053,287.666099394843,36.5446754368721,109.537355711996,7.16290069072142,486.000523386862,18.1329138560453,789.025640040456,30.4505705128245,296.043562677082,3.09339980453639,1231.84314316559,40.2642105315421,292.41559972166,-24.9798320287285,356.25552465282,-14.455993474416,857.976214023845,368.217068041106,594.05910268712,5.40175804118233,798.540598805168,-20.1848606087131,661.653289194637,151.581459653045,276.38703381451,24.230934072629,830.478827485652,-61.4174240407416
81.145782485735,15.2746450302523,303.456542677721,31.9185423664988,107.321685643957,7.46148628407333,470.591796757916,13.7793159524967,765.083495681592,32.2559577242005,286.540891593311,5.71950269972202,1203.07143807324,42.7940207506326,282.742577220551,-23.2679738142459,345.502209488928,-11.8213714995595,795.636620927649,361.953843495271,569.716743997519,8.54018142272674,766.796363024911,-13.4511005369424,633.053233822782,149.157976094858,270.296207080591,24.9579645002668,809.878144751654,-59.195392650258
79.0121603939379,16.1674259253566,306.962272549402,28.3605721781144,109.807463278349,5.99499932251012,477.663373856351,19.9004142239211,775.305198792856,31.8182653587259,295.241039946334,2.13044297740249,1217.91765217026,40.7632900605396,286.444793543712,-23.5344030309342,349.194236437648,-12.1046116026718,820.314375645955,364.224174960211,578.32441768243,7.18562501480965,780.896383551839,-17.8534621520838,648.672941291966,149.48770941696,272.74874913366,24.4386855671549,823.832645909154,-62.9706631561633
85.829799053104,11.1493721052233,304.179885385492,27.2420176265021,105.095438906436,7.26407737986882,472.069125606385,30.4391021570178,792.489482923045,29.966978537184,301.144319589463,1.01713342735897,1243.50557569204,34.3148659946005,294.033201647822,-25.3471428833522,356.559375673397,-12.586460327344,860.044691852266,371.323269585492,595.705525160054,5.9672153307689,797.478084647722,-18.4158189328808,669.083867000307,148.392338732401,277.353615893399,24.1805813769594,840.622590260979,-64.6392513253733
86.8947345889822,6.69369935532252,288.668269025754,35.8217407762757,101.762357283326,8.32237091366813,476.106709802313,21.9908865040324,770.074267778818,32.1681080331093,290.7732111508,-1.03360564357406,1210.92472225973,42.9915904635268,284.883545480286,-24.0135707703679,350.720751049313,-13.4756658066009,801.058123525028,363.483370063212,572.405700023231,8.9649462603938,775.91071012039,-18.3854626486199,637.752419256542,149.436863017255,271.645842252474,24.9602177862652,819.41786368863,-62.6006153631482
82.1710825788725,13.0007151841678,288.484280735719,35.4982641265194,111.924068751474,6.03781675946813,487.127844355518,14.2254429850606,778.270816967996,32.0492494250434,292.113811811824,5.09499547023823,1223.90819893243,40.1475951252062,288.709673584007,-24.6989701933487,352.023133547463,-13.1190348316644,826.509381588753,366.607190298031,583.672696605349,6.58130506100366,786.141291338949,-17.0893483493156,647.049194093177,150.557197077644,273.709381800252,24.7313454218064,827.715813935325,-62.2820057843767
89.0329231050806,12.8700735628677,307.092982438479,29.8568167524403,103.731278714297,11.10198365278,495.996483675149,20.0172651336607,794.314514408477,30.2348196049187,290.999189504636,8.62238535139339,1248.12039368506,35.1338563014071,294.388111798622,-24.9389120700999,359.509417576885,-14.5681539091917,866.262604470253,373.101660667041,596.79313846724,2.94261186519775,800.713897956408,-19.5008332104903,661.38857392531,146.735511044597,275.932892278861,24.6970174888729,827.642975489486,-64.9893095192866
82.4406688350842,14.777136982925,301.547538194301,29.5407890156764,111.447286691348,6.73231719588103,471.032313496596,20.3516409418655,773.117953676792,32.3022341551747,288.334448006636,9.09724562988355,1221.72853575642,37.8514039914584,285.765511351208,-23.7387792400952,352.608795821904,-14.1411976055186,805.798783542748,369.178729468035,578.694673697399,6.77904445919847,781.087042812597,-17.2368053292295,643.694096828718,146.205881443696,272.289569210105,24.8248016327427,820.55598902492,-63.1958673964579
86.1251403653258,15.47901707921,297.798680888878,35.3378716756147,103.380256890504,7.59813315599869,475.447154653784,23.2995737876443,783.511139103678,31.494124753709,292.248069869077,3.83381141669698,1229.00606567381,41.0982139574028,289.661583384661,-24.1652095168063,353.714252664118,-13.5758706660965,839.435335687071,366.622945879502,587.371075137303,5.52966720263775,791.734504599316,-18.8505250958445,656.259670518104,148.239583548416,275.34086746543,24.1349340405146,834.053534270304,-64.9164176036746
87.9684280192107,12.2258991662135,309.942566549503,30.7325613930603,108.533910883242,6.17122532832045,496.615264451713,19.4484999610958,797.737356656793,29.0162885398422,296.776095638255,4.1499296725379,1247.33689712269,33.8851443980787,292.000428283565,-24.6333695624217,358.399637348242,-14.4819171760352,821.741387251347,369.281950285215,580.827705083226,5.48201080354568,782.991421662257,-17.772521071681,639.69006401803,149.771472665803,272.783284531648,25.0424441571667,816.80775332157,-62.9363343098812
88.2518565095492,11.1168438154121,293.518105844408,38.6581310818964,111.006539923946,4.79742340490729,484.287221266512,6.0123073020175,775.779523266982,32.3579545554112,287.541566013358,7.65575235269812,1223.94874969392,37.6542939890441,286.151152236883,-23.8326008048088,351.409515033807,-13.4952069867912,811.819286533971,365.218949447515,578.129247111454,6.91310393818417,775.803847059828,-15.497808103847,641.998540022011,147.216449071572,272.551859493427,24.4253395169302,815.974212451218,-61.7633722855395
76.8333498789292,13.8248454138038,297.512370528031,34.2299054821143,115.35438691682,7.59313452134618,472.116971757255,26.8549306933413,787.343747205613,30.4600346591779,294.937846856557,5.05142918116251,1232.18216400443,39.549840623109,290.412802403633,-24.3676263668289,355.194081226823,-14.3308373006608,845.900087420452,368.319543941897,592.136944479055,3.8435986796909,792.527102902528,-18.9658405292754,659.133898322792,147.076898188724,275.459552757428,24.4572030889651,833.251714677585,-63.7812028725364
90.8003493194016,9.39571020633583,310.873254523721,28.5321846046459,110.234710817943,7.09779312312189,489.03331682823,12.522382072481,778.56208703582,31.617107122923,287.966072255803,4.06072531920743,1221.04394170475,40.578873357036,286.139220159631,-23.8058279862998,353.56960626002,-14.1422843788143,801.101957491865,363.746791257354,574.602113739475,6.4541481935665,778.621749263335,-18.8032607017553,637.447661771638,149.946844616236,272.009652872852,24.6333515101041,810.117551172291,-60.4603505090999
90.5575379512565,7.05925867623243,297.390077924547,32.7326915001135,106.332762213716,7.87235624071028,476.368617717856,18.2908079396958,774.672920066449,32.1051994078565,287.477005663107,1.48663082279269,1218.79118216302,39.5271184919588,285.938408958888,-23.821471230454,349.933309965266,-13.2822246498813,813.210642749157,362.615862032345,577.552326664709,6.76377323309958,778.753439090192,-18.9619346879133,634.063781203789,151.300577496225,271.257372628023,25.0403555259741,815.53009161481,-61.8066175580303
88.7956021268319,8.2012028584959,308.090107365341,25.8386266700317,108.14304292079,4.43104442394034,485.378745315292,21.8948327835164,787.84849794231,31.368540085077,294.071494425881,0.760996376937892,1235.0012980146,35.7468657749877,290.690960568799,-24.4139336087664,355.030185380124,-13.0569050948952,843.626964182302,371.425036834126,592.607739153405,4.24637210244826,789.86291799664,-17.2125145129619,656.50476098676,149.558987163282,275.232987477127,24.8928357424029,835.428727507077,-65.1847618034402
81.2833546149508,14.2691519260824,301.93774693181,31.8532281070321,108.14932992871,5.40131775295262,474.744802521495,14.8603780223161,770.702624514988,33.2264629882652,285.313766856641,7.26186940616416,1212.3399090591,41.4140745931798,284.765431897674,-23.6039605530131,348.376795061227,-12.6679138041221,794.922737821529,366.20210056706,573.822654952773,6.34455253978588,770.573598203361,-15.1350418919055,628.105422161311,149.257551740269,270.843535213806,24.8266264885749,801.901776757315,-57.1991953221863
82.6008892662179,14.4379472840437,294.771840194949,33.2336732617457,111.658873316971,6.17363626648656,474.302061548692,21.9336978508603,773.281987003035,32.4702253432511,291.534192343272,0.929072505778471,1216.85877664071,39.5206389190995,283.88470972083,-22.9479943252619,349.359792590865,-13.7598147968428,802.466776660577,368.328232906226,578.07422478359,5.92779124288005,774.821023174225,-15.4267392122448,635.580502836308,149.420463235971,271.006829976316,24.7625481901433,815.713864442898,-61.0652075010309
86.7025929014317,10.8669093634274,296.726662324202,32.0819802155097,110.649631835071,4.89431687737288,478.22726741589,21.6604016823161,788.014360218244,31.1429143997486,288.810330998022,4.05436588877116,1231.98834113372,40.4936158768173,290.412640839666,-24.2110033335757,354.022384049185,-13.8548297419218,840.77159278192,370.378426036612,592.107201399184,4.9653569616543,790.919057724866,-17.9837169372179,658.033859045394,147.719191296129,275.085232769649,24.5480783426479,829.195178091778,-64.918297246903
94.2155838814693,6.57731827804493,298.037603258062,30.3149506391914,101.349858290284,10.2171360336714,475.008012632016,18.3410195844153,768.023305824918,33.2056882190643,285.235183585981,6.50605823992209,1207.03261890194,44.1955283111737,282.995632466889,-23.3339875302125,346.846900514057,-12.3874486824391,790.469159969148,364.990185951866,571.438872262746,6.06204067895932,768.071369659435,-16.2798897598948,624.262199299857,151.125490024805,269.746083769577,24.793526230611,807.154415744798,-61.1081139899889
83.5360299619245,16.1120269218057,298.507423209647,26.6056615889606,107.503935219806,4.54061350748983,478.508947280218,14.1265169352023,771.27756953549,33.222560084465,281.565488611934,11.2853887219541,1213.12562072251,41.8247438351511,283.450669163438,-22.7309758052444,346.550672612701,-12.2228195256767,801.987509611683,368.169658693736,575.672639305626,7.75047110831533,776.144351002708,-17.3896186419286,629.645550343424,155.032094184697,271.57663231636,24.8242915578221,809.56171157952,-55.882768865952
86.8342409800753,9.37042878104324,296.415957965588,30.0456934837956,107.878491027073,5.87341633851167,469.941238569607,27.2681192898689,787.219692489449,31.4118253986355,292.84173909918,3.86464451993253,1229.80425145294,38.4150510297888,290.168739797751,-24.561247368473,350.798668580997,-12.1164147346389,840.375819130174,370.445681734331,592.902234941502,5.08451394135132,793.081582482733,-18.963210694393,654.069615451179,149.777024116198,275.505521512069,24.4284993600679,826.63118119388,-60.652437573954
81.3164217910257,14.8790855167377,284.129431021905,37.5314879306544,102.468963679547,9.81926461197268,455.01014191238,21.6013326453705,765.709275317894,33.0604676962219,286.874202970436,2.27758049338295,1201.30633821961,44.0458843701148,281.438482648771,-22.5550452045054,346.838455432465,-13.123402877785,790.790444768685,362.946648807554,575.660841253198,6.45178834198168,771.923732587863,-16.2731247137716,620.704239339138,153.815154156679,271.094226868556,24.8358132983335,809.59754655733,-61.9584302740912
90.0811028314546,8.55383955989996,296.570810207111,30.8689150934863,109.50309674068,3.57346857413346,464.741727904986,21.799151912106,772.496572629979,32.9988149585548,281.298307131148,3.27679017906874,1209.04426903318,43.5230803993367,284.041482642604,-23.3425938775332,348.234296812181,-13.333727826284,808.882268114775,364.352740657713,578.66346983378,8.32355567749704,777.745304680837,-14.4572642767572,632.042891175338,152.852005024901,272.354577057276,24.785957297675,816.518102068245,-60.1443420020102
78.0552016392083,18.6892692866304,297.915214682106,31.0457604850414,103.289304405684,5.18652806714602,468.65809103237,22.3834356765922,787.493920838938,31.0799389719646,288.168424017079,5.20150866065841,1229.02658313602,39.5380765610397,289.453963626316,-24.3521011859237,353.99477985781,-14.8366427164623,837.048943429494,369.939481873502,584.375789243147,6.09177238880234,780.243963017068,-16.6664861369308,628.994749665116,156.194050081752,272.821331418644,24.7092486376518,810.108187734575,-59.304369466782
75.8777377189385,18.8087162143121,287.823802346025,34.1940771872629,103.427206116651,8.25271385884018,440.60383101145,31.8222471288009,765.210196339677,33.1549823712791,274.431542877762,8.63835234524011,1201.75477172863,44.9386783860115,281.294216900423,-23.0191033020441,345.205936649934,-12.0577155069253,793.588915627135,363.928585484349,571.256670491775,8.33044961312068,768.814886342004,-14.0728512825183,620.422265755526,155.131912756007,270.415431883311,24.5655617885885,805.267677041459,-57.9349710183952
82.8629791476789,9.92686306686416,301.33408924887,24.7525428236,102.11700536298,7.81882747615591,462.695797375502,21.252037308024,774.3747235032,32.7836001068787,276.752794176895,11.0847438169261,1214.31047886747,40.2147431208857,284.502372047966,-23.1984539197152,347.657175446951,-13.3549877887926,811.88660362458,368.000731724897,583.611774173631,6.22307041220376,778.288271389499,-16.7390530322881,635.297795251181,154.031006146392,273.605467256713,24.5077592138723,819.62765052771,-61.4417863003967
75.063645938764,16.3844472982635,297.875787235882,31.2033855051956,109.11062887522,8.15735251843034,461.700250602043,21.6843973047267,767.813447069312,33.7360067929399,278.375823177183,3.75306841555559,1205.42805360153,41.795489507107,281.265458034483,-22.7117080466138,345.634369246294,-12.8205645084171,779.990881538056,364.534029639441,571.614013958697,8.011850014174,770.595059774943,-15.4496745617533,617.773137179719,153.488296675382,270.292425290104,24.7231244230725,800.937637466764,-57.1509898292997
91.7506089881793,7.65360354271747,291.543147470533,31.092184650636,104.237779413685,6.57420619854167,443.035131620826,32.4010221868725,762.619826315955,33.8928024221204,277.050051705616,8.439630620577,1203.27577048721,40.4248340820899,279.935386194174,-22.5789332443218,343.161397561857,-12.5320164702588,788.261921924349,360.978123271161,569.18894404873,9.78086882720043,769.120212241647,-15.9785321448332,619.768308606771,153.989417643543,269.67024338923,25.255190726919,803.45497312159,-56.1535035113594
86.446180266073,12.037298265077,306.961930741376,22.1785319986021,105.909059326557,4.74350849140705,456.547602751641,28.7830719854438,774.935491265186,32.726975827496,284.249077589665,3.37852246497084,1213.43722794024,42.1771607246232,284.632724252375,-23.3269320922683,347.743717712426,-12.9469889763274,811.540637531072,370.236228260139,584.303216765714,6.59443812823141,781.361412937034,-15.2014717777121,634.35839491597,155.45054568877,274.062266828817,24.3970882474246,820.262188287835,-60.7461531403725
83.7480998402632,13.6944845662971,293.346576173683,27.4218972863394,89.0944272413046,12.2395113697817,441.669196996479,32.3338130748609,759.888973748457,34.0666572364525,282.182207352203,3.24027519498854,1191.33900422141,44.8705741598148,279.031539489546,-22.4534969045753,342.723322893881,-10.9393597197531,775.133146043605,362.46978371047,564.29937692625,11.3605593229519,758.22291666537,-12.403041296555,610.483226058472,153.632964984064,268.957684136606,25.0663253843652,795.872809095363,-56.5428617372974
87.4154980169444,8.81740547757745,287.941047963845,38.6607488165135,98.896808238443,10.0741532824165,451.338984846938,22.8205222313242,760.140293764965,34.2370115981516,278.880035276003,5.24769727404493,1193.11172988118,44.3772453744284,279.510411945432,-22.5377591634114,341.825187238313,-11.5237174856655,782.987779777555,364.314651217762,569.317206649103,8.49591365726694,764.100235441686,-12.9891468707517,616.213416864077,155.304497451394,269.664862901612,25.2877800907842,805.16360105427,-58.4847673480185
86.5435496036626,10.9473985307039,302.940868847162,27.1135947604501,104.324082053342,7.17563454140573,464.884927237421,21.891211695261,776.60157195181,32.2402381342964,283.253705272051,3.64417984616332,1209.02215919495,44.2424902179166,285.105761613503,-23.4406894409241,344.707527591253,-10.9865857173676,818.030929284513,365.01782638529,586.201304889446,5.27248995590404,775.60723703786,-12.9608792176833,638.875259398948,153.369685822329,272.824549936781,24.9805091018035,823.257565353502,-62.2415406842351
85.9696850529745,10.5215428677048,295.208247335137,28.8510932963656,97.6888724341072,12.875595447471,450.994035238431,22.0477440449389,757.95431981109,34.3201916559829,271.630872334269,9.55389310168067,1193.81506578378,44.8419965823108,278.454407975845,-22.0846136001671,341.08308900018,-10.3143960155524,771.214814032545,364.13216115379,565.818788584094,8.84158122878493,760.548528464016,-13.2597358818895,608.358700896497,154.977054573477,268.282828120286,25.281043169777,796.652670338602,-55.1955143732448
79.3476635940976,13.9070160512554,298.913447499478,25.5380590936128,91.9808806995824,11.6998072589762,444.34274051909,27.4889925959002,759.737407350523,34.2599469520747,274.046339638686,7.83289960697972,1189.72030814614,46.5606064877183,279.93510723771,-22.5794791164336,341.477701741814,-11.3883888744004,783.228921896747,364.270517375726,571.567022879759,7.91026383731373,768.467586666588,-15.2837011522668,619.310175828429,153.254474790285,268.683440373127,25.3240685900613,810.637889535864,-61.0549596989429
80.3586894331122,16.3239857551289,299.012734033207,27.2667889976491,102.192585856524,4.80026014933472,452.869764603072,34.0478299079916,775.124433619318,33.1764071700077,275.569049581691,9.767920947427,1211.85275844446,43.6720557697571,284.642989571028,-23.1471116755719,345.735768256477,-11.3877878671736,816.562701766193,367.650763898016,585.496230528836,5.27102395290221,786.150882069064,-18.2574805367,633.58797473984,155.746820078011,273.027241968679,24.6403513872936,821.321662429576,-61.8486088974048
79.9571733318976,15.7297693783459,290.089390292782,29.6750383446197,104.280770028475,1.9830688179424,446.928653900694,21.664219211966,755.751105007352,35.2021513919788,275.113032310122,8.88948677485202,1188.68469052039,45.5963288555382,279.102285873095,-22.5347726812734,341.087139344173,-11.0566963853943,767.64523227544,362.912740660727,567.657958907927,5.92976821219828,762.793636738069,-14.7219300838384,610.521264957316,154.035588176332,267.817789642214,25.2659864025407,798.631327817465,-56.4279512973882
80.2981342760518,11.2006592116952,288.791673220415,39.0068365385682,105.178996086007,5.17156003661591,451.720301060931,22.4362391790878,763.460983714857,33.4374679171612,272.740177602573,10.5671962037215,1195.35250688657,46.8053513301283,280.732697459998,-22.707917207468,343.287343315003,-12.3677743014297,782.57899955302,363.682191846404,573.155607764811,6.85508254854938,769.084638398839,-14.5577722461651,616.038946013474,157.101051367056,268.998194985833,25.1628786347821,804.941923799556,-60.0088701658431
81.4649898468626,12.8790925428539,296.138509009269,33.8889288535099,100.213556337846,6.14852276159824,468.438873961021,16.7331670822151,778.362507199316,32.0334431281805,290.360462149113,1.65495710405429,1214.11826457444,43.041320994357,286.885291762734,-23.9310560112144,349.788698381531,-13.5304134812846,818.290885243226,366.320909277725,585.476672724572,4.7706758270024,783.412498765333,-16.2120784666882,636.700603331666,153.949257700231,272.317885200145,24.9509777299276,822.568485683358,-62.7124989104012
87.615034556518,9.62593655883455,295.122368221524,29.3322033136441,96.1256915058348,11.2531160956663,449.605078061061,23.1975834189789,755.819828233982,34.5123310047522,275.863435523111,5.60694266248912,1193.26951901396,44.4278437928369,277.917627459525,-21.8351214154304,340.414312980928,-10.9648613693389,769.663698222583,358.587497898057,567.457188141557,7.66027139800307,762.958286672434,-15.6931154632782,610.221291039523,155.098056328794,267.60581419761,25.0536098282474,800.970803570496,-58.7879966569807
79.5124388877256,14.9702631236742,296.830402546065,27.5260312591172,102.34746563472,6.82519598834373,453.182524450982,28.567190961991,764.900077411446,33.7548366541621,276.689427494132,10.2459560236091,1197.86561965213,46.1667968412951,281.191479155523,-22.545716571858,341.097379690582,-10.5092313978594,791.978700899373,362.001455976868,575.93307809739,5.97793260952715,767.809747399502,-15.138377858343,620.008806223413,155.304649965022,268.768870669873,25.014803175374,810.247603349162,-60.4156895646249
95.8165904240409,6.57080269442316,296.734387379259,36.1725088675899,100.083471151738,11.4686082824895,470.288768599996,19.3207551795741,779.907459120642,32.1058756130699,286.892676401743,6.24294642687025,1218.50194796914,41.9615488750476,286.565719834629,-23.7812413828718,348.231876029476,-13.2018726989776,821.150055177315,366.707263216344,585.972515059081,7.18333091760329,786.792310167086,-18.0415885959571,636.721075445997,154.963009392562,272.485547492815,24.7282399174851,819.61968956701,-59.8321469227779
77.7180082351994,15.3997296418983,293.420343590167,28.3091529474853,103.740343411237,4.24279250717979,456.056769397306,21.5387563226205,755.367730347104,34.172581783832,280.003025639217,8.05304079304551,1191.58009681403,46.4963078244905,278.276507671118,-22.3612499709535,340.485016488812,-11.9825143440339,771.80482596859,358.151490047021,564.402474919562,9.14417717091639,761.454049703528,-13.1759678177322,608.80120912398,155.208888073566,267.119396715652,25.0108711203114,796.518657743398,-56.1734346286106
92.827772438042,6.42410869828192,296.146934987255,28.2449177244604,107.081566001368,4.5003960041327,451.508058321312,23.5142711543091,766.103287793162,33.7563848369047,284.045341095765,3.73342011881578,1203.83081394303,44.4709513298635,281.299107903638,-22.7276992092568,341.14165298737,-10.9528570464075,789.332905917107,363.146334933701,575.421902668305,5.91900001945943,772.619588486966,-16.0170493547645,623.702639438288,153.780802516803,268.847703999465,24.9613761041524,809.689209968199,-58.9687992375676
86.31200106267,10.3220688371249,305.470119710201,27.062989954696,103.038593019301,11.1174991808765,479.680986117839,18.4156186213519,781.48179895326,31.8959722442797,294.676578226409,1.88022940802754,1216.79076674514,44.5560304882234,286.489187277587,-23.542516948168,348.601275143173,-12.7782333736458,823.164057297527,368.977549419161,591.915869765176,3.60033579005752,790.137780545439,-18.5506198836216,644.358319181181,154.552531976767,273.479801900713,24.5281316280463,824.45808138044,-60.304827622199
85.4956360435931,12.3851878725151,294.304108532251,26.344135487597,106.647730035596,5.49582362841491,461.947000348321,24.7432647240246,759.827956632784,34.363350999054,279.265767397162,7.78504010370416,1205.11027492057,42.7341665007024,279.260799232569,-22.138969865451,342.57404645497,-11.7519370982914,778.586307441405,354.202962572045,568.954096057424,8.04502583790612,769.24410606485,-15.7716399681739,621.188821240891,149.984526669721,268.871478760812,24.5158264801756,797.686928801439,-58.0565177776752
87.3080172196426,11.1609887526781,300.173946712895,28.7906530650968,106.808860790208,2.79544824509075,467.167692976879,17.5161326748009,765.817862243343,33.0302328706183,275.080949954248,11.6200174017275,1207.29049160327,41.7728573548764,281.476331970432,-22.9296127226569,345.679852964366,-12.4717774154204,790.061306996466,362.170937815711,580.972998227456,4.33207151916614,775.553112409148,-14.5207937258364,631.848601155949,150.903805302077,270.349678857094,24.8573776166983,809.151185925441,-59.2242982186789
83.9081130653229,11.704868892107,302.035855957979,26.5109890796095,111.068134161591,2.83675031937213,464.918665918936,28.213733070449,782.237208241435,31.597402830201,289.490333160922,7.76249623923988,1224.70894752931,41.8828072319195,286.509225381194,-23.6120949200013,347.876552128733,-12.5459514567472,823.542177472444,366.320022849036,594.743132468472,4.13722348711611,797.661181567197,-21.8061695146582,648.233470300324,152.902703020627,275.093127986699,24.3143646353934,825.932378386088,-61.5162334677222
81.9143707913873,11.3582041291832,297.653778582064,31.8283031443132,109.922221084262,4.92901906791049,447.014443385835,31.3090798793054,764.295301537969,33.218044506022,282.017087020093,4.40356840583124,1204.50262847416,45.3878935064531,280.431079194757,-22.4583868498563,345.351118739406,-11.952089823086,783.343560667992,357.234724828973,576.096056361184,6.7436569595469,776.061062802182,-16.6038373043501,626.030363397288,150.373003766367,270.851365808623,24.7973504272186,802.116020466244,-57.1252660390611
91.9533809483057,5.02310389598931,299.712701417051,30.464928635485,101.085855933652,7.19497031535287,459.093266198589,26.0622882752336,769.458812492794,33.4332132775847,281.269324959127,7.1891111847791,1212.90107595122,43.2078130791017,282.090254064747,-22.9703058253429,346.889304676231,-13.0740259969609,792.613057304471,362.786760084849,588.21549564263,2.69091643314607,786.599063532179,-18.595833601772,642.658239240365,147.129536166931,272.616671032748,24.7521211446837,815.280588156467,-57.6609744107056
86.1714635950826,11.3945562906568,306.104942108073,27.8202489926688,112.896736525742,5.97400949858887,471.17330180601,20.7677280228218,787.581063579291,30.7505583218708,295.114726879636,2.14640227425163,1229.21269723458,43.1368619744237,288.18428817256,-23.8477371677163,353.583656752785,-14.7303568012759,832.3384409264,366.127738716005,600.522602486665,3.17744860519958,800.261774302267,-20.0402912317356,660.426356971438,147.863126489153,276.75760358839,24.3876436696119,825.530329657973,-59.7855693270285
85.8568116312564,7.57248665679072,298.763513393645,24.8212235765969,106.323365850183,10.7609334592709,453.031572071982,22.5712225199273,765.705941926122,33.4675740456435,287.493893602713,4.64261363173298,1208.41735329032,44.79599690468,280.817497661894,-22.7832197472267,347.317775402661,-13.2491961918946,782.774772670461,361.581704589956,579.049997112186,6.45029973591222,785.373211659983,-20.5369477413877,637.502005637605,146.483857393973,272.259528112825,24.8715073473418,809.02987537801,-58.607493795878
86.8820795997023,8.83031087447772,297.646273246429,30.5137843893893,112.040945323114,3.87187151722107,461.442008883932,25.0118126313826,776.532716439808,32.0328634458081,281.651807557576,8.90569643792767,1221.15786075916,43.0303307509959,283.759202984849,-22.8792190744561,347.23963829274,-12.2754697685227,810.546677162126,361.01974970064,589.412487600449,5.46008354481781,788.777769559496,-18.3085437328748,649.338856445241,147.694552125914,274.539758638624,24.2976146269457,822.250981036913,-61.200670884743
85.26095101232,12.5294938184266,296.625577956604,32.2801111173187,99.2938510262007,9.71735210966377,473.302353684608,25.6560441324233,792.225000981054,30.231661617507,300.496324236406,-1.18615735592817,1239.70513194002,39.3633129596206,289.79804484687,-24.2140271705985,353.79263894723,-12.4419814826073,845.079032762741,365.023682922297,601.847558935509,2.58641057922817,804.321687644294,-20.901342752527,659.829435001664,148.371211256965,277.229921627452,24.1825935515258,821.330972575706,-59.8087815959191
93.3264206037287,8.92506806401333,293.268161226486,30.6537842201746,105.995414277612,4.78355966065252,458.269875165151,24.9113796033477,766.695159048146,33.5852803782127,286.508744787911,4.12276931997587,1214.05583035077,40.2143703900282,281.267710168666,-22.6037704254075,344.657337355868,-11.5997266194963,790.438451161863,358.398629964671,585.099442932639,4.29394790676371,784.418843155772,-17.2141908244917,641.187760191908,146.068569634425,272.779404712845,24.984328110283,809.354398152639,-57.6701026051779
84.5229404004305,10.7623167064338,299.861277823472,30.4214449694049,109.894988845372,8.52241057087298,468.895006299169,16.5642110664392,778.355633387911,32.2842416432308,278.267265612895,10.4379009695233,1223.59513714821,42.1423113437651,285.003124486848,-23.4589581608846,349.458319966711,-12.8375331809754,811.188851459265,364.582317508262,592.358706604732,4.73481137979272,792.589265416354,-17.9671897452238,655.996327693344,144.345793273039,275.462007233578,24.0657145800887,826.381797975136,-62.1824294684416
81.6069392825739,13.9853573783271,309.357220332013,29.987934427141,106.565626267176,7.45433210436622,474.953542800088,21.8827146310886,794.60168477497,30.6253643798803,285.327559405914,10.1500792286079,1239.21899750912,41.8850670661163,291.599152933497,-24.675644658111,356.023270983902,-14.9609892088343,850.533537691891,367.043086629739,607.16942301862,1.67225462392468,812.94121341852,-23.1331908589916,675.281344091468,145.634944394252,278.590018834624,24.3361547738649,832.592619278165,-62.919224713475
76.8955310946975,17.5833706581387,297.516894128154,29.0318828193192,115.117981170492,4.57785082024422,451.911146836238,31.7954885275694,768.529986282243,33.4042662411839,279.622093404227,7.41573281518737,1217.60139845749,41.2416929791574,281.421943345457,-22.6873251227401,345.291753618776,-11.1684242916677,790.899488083574,359.067120440029,585.387997424502,4.0834743055749,784.160053422699,-18.1364756380412,643.629239180096,146.863725461622,273.358399837187,24.5015501166454,810.876895474617,-59.1358032996471
84.7315769659463,9.2262343288415,309.921471949121,30.2421857972586,116.825027281942,-1.11458086121636,476.390754926765,9.26699757586164,777.47440970129,33.3116078585029,288.894073326691,3.77212062259471,1227.69287994284,39.7194547036973,284.633732299844,-23.3997315820839,349.00183443119,-12.2245494258804,816.196957155535,362.123519743113,592.273704207257,4.72988596587627,795.368293068042,-19.7990951513684,654.06472149434,146.771654719601,274.895709861882,24.298174125614,824.898254139099,-61.4868445102551
85.3051241221429,11.2168099366787,301.010384855089,35.8177624206683,107.849194092373,7.03437880958543,471.23463013046,26.9589308299849,795.273340561479,30.2830314006528,286.210828327781,3.88875001968147,1238.29559775816,40.6787665901734,290.700440475096,-23.9889844396033,354.980504737291,-13.7257474579897,846.815837098241,371.222908461973,605.993191992108,3.51370416803569,815.062262766748,-25.583334101797,677.268104807468,145.28448383083,279.368857784935,23.9579170174899,845.596342694544,-66.0933657600887
84.5181831859177,10.6636844306457,296.609481242667,33.2517856591623,106.894576619435,6.47874401524397,472.133380284342,16.9218841005953,775.226047483887,32.908539653924,285.15231029965,5.64391818359057,1219.45118456153,44.1592212718194,284.180554660478,-23.2973982842469,351.840287829583,-13.3495197134361,795.805230069131,363.438067585876,585.4312521707,5.20042749500198,788.485852470046,-20.0103934141727,646.01650769238,145.420752474283,274.761183357662,24.1596740394612,816.395372760258,-60.5698253351328
86.1416722582963,10.0946126047637,302.414307633507,31.6492857675943,105.853740816026,4.576120174998,463.237682898869,21.6713066839223,777.395215660514,33.3666572341305,287.512399446932,0.158397795813428,1223.09917238402,41.1242969375288,285.345092424325,-23.3981482257637,349.924454300168,-13.0301062874134,808.220563516878,366.213931976987,591.989956739465,3.89667707524551,794.443372412304,-19.7917995508711,656.577991396112,145.012442441528,275.598380203549,24.1877500048453,826.730804925803,-63.5285238131569
87.0646221003463,14.7957562058353,308.891001284748,32.9464397710323,94.4828269206128,15.3220996537591,485.270955729544,14.8137966479569,792.901919661832,31.5240711014433,297.928777639965,2.03935692197173,1237.72873753989,41.4859797470681,290.689091630295,-24.457524032661,358.533520685721,-16.0636664257631,840.477903786263,372.209249197884,607.955511641224,1.12840404047071,810.543870952483,-21.737339983026,675.49331690162,144.561958052677,279.238676944281,23.8057033431878,842.344391605149,-63.8811383035851
82.1801756341917,13.8797809932971,296.948003472388,31.9256479244193,108.704406946309,6.34041612637001,466.37221769022,20.0069241358884,774.055589210747,32.9171803568322,288.997996849451,5.77656610164666,1218.53789831569,44.2786753767346,283.304676267003,-22.9849434869056,349.160421859643,-12.24165450634,797.18487200513,361.634057051969,589.056333064016,2.00788780330298,787.540654321035,-19.9881393478155,646.293913273652,144.731476950166,273.66819921403,24.4387879644222,817.05903879957,-60.5294303675228
87.0442602488822,13.7099833250145,313.722058545377,24.5178201210096,99.880467117002,10.4646751838028,468.833978941857,13.3131864001466,781.076630111733,32.0002237290827,293.548588021857,-0.440331119782976,1223.17639217823,43.9376179168571,285.929286552471,-23.6674286835473,348.839066553828,-12.3230945133723,814.438566713643,365.428886353902,593.76375691409,3.38034104618374,791.646491745189,-19.2613825256758,655.494895907889,144.333448345098,274.648789058859,24.1390345732142,829.228705704725,-61.4195476629402
81.4677415931994,12.686299976781,307.904342632959,25.659080904916,104.645387689828,8.47047671023938,493.379098094965,13.3367115092453,795.328600482326,31.2974692811698,289.579088954615,7.33813489277503,1239.98636494662,41.0268399518031,291.380602274251,-24.392731303366,354.429634281599,-12.937423104987,852.865252475801,367.920018180114,607.549516381775,0.442370344203458,808.181456434598,-21.7468910539967,669.697224290692,146.268873681696,278.254711080664,23.9657109513545,839.27614424388,-64.3146535249266
77.5459519264389,16.4426361373031,297.64779005224,28.7829164461527,105.434465226242,7.81850568536768,463.845252230816,23.9603233388061,772.333180526236,33.179316761069,290.782819184582,2.36598157949493,1214.23216487506,45.1226610093943,283.191030350423,-22.9608285911466,346.017122932997,-11.4917056727744,796.497808212082,364.751260018915,584.016154998701,4.22168932429518,786.7306047492,-19.2369969578036,644.382226984622,146.17157592321,273.122812811522,24.5108942086065,825.118095036291,-61.1252183321662
88.4083284541781,10.5341724763028,298.090532755731,31.5095722515327,108.976142647147,6.44097597430226,463.801458677045,24.6651578447924,782.127283880232,33.2308945863835,292.01616408307,4.37713285387364,1225.09871477189,40.953368346725,286.684782438539,-23.5952549562175,347.410068047983,-11.3051377210789,820.147756598228,366.961483111643,593.842799786756,3.526345903935,794.114893862499,-19.9632415205477,657.520921421796,145.861756588621,274.68127134522,24.5279576892216,835.317011153952,-63.5895281504177
85.5174681481041,12.216757361856,303.624674107093,31.8433943509909,104.082387593829,6.28488047504065,469.480219843592,32.6917409819877,799.013116059732,30.0011945209814,292.415331681232,5.61736867330786,1244.26573682149,39.7744994440474,292.223426110009,-24.6735685990405,354.799269060258,-12.6173131006845,856.12976060265,368.58173542414,597.397447229102,4.1075317321905,803.382642757329,-23.6004388734886,659.097611636581,143.294828940425,275.307221541986,24.5188721844928,832.621909209411,-63.4489921515032
74.5400524061419,15.6700332241641,290.733957491575,34.5197350042878,103.576123827639,9.04755455496436,459.419362196787,23.8220255363639,772.830492045811,33.2387756490801,283.437970414633,8.43536947720032,1217.53067017333,41.5420616989631,283.085081612347,-23.0795767705386,345.194457347759,-11.4411590621252,802.06890064865,360.296106237564,581.456450112816,6.31303290446282,780.650666192497,-17.4209112468013,641.204833179304,147.05351542943,272.359471105993,24.1764109410587,821.897491456969,-60.4300541691701
82.9395127900703,14.925482762908,304.883717144416,28.479608150561,106.168446745527,1.37754761351071,459.29650363062,30.1792107485619,783.158380272499,32.0604973353106,292.458021504642,1.97374258335852,1228.48299497825,40.6683898394453,286.588429914057,-23.6275192154514,348.013763840387,-12.6870983567583,825.820674240761,364.60298757472,594.628323793863,3.57391645703281,795.551566711548,-21.6906637588399,656.176955564771,145.841234144793,274.092555066681,24.6317920679886,835.786582757166,-63.2317142579627
90.6439785575804,9.02238439676824,312.038721829074,26.334589159262,111.234670407718,5.10903314049259,476.060046874168,24.3499871044805,798.947205290556,30.865947015604,289.646442506799,2.3436036280893,1243.37674757784,38.2288074815553,291.901548485724,-24.5936708631281,355.788910950354,-14.8130467151914,842.853566973835,369.812367290575,591.300978224223,5.11726418813357,791.95037088886,-19.297548694351,652.367874837871,143.132235942494,273.905904377684,24.6032633701537,824.794675106004,-60.7107387247392
78.8338832075303,14.7050315987478,291.816355095762,35.3611202085857,103.391508359801,8.49289533058295,461.247141202016,21.1468849563454,775.119173059047,33.6214832601511,285.18900283636,6.84466690885536,1216.78710716615,43.4144701175409,283.538679344202,-23.0787077923067,345.275282043978,-12.4401662740139,801.986425763791,364.05885341941,583.392241377097,6.21468878376607,782.151159670226,-18.7352798386742,642.584690602653,147.362650507517,272.240993268128,24.4122853671819,825.179995192143,-62.9863212147627
79.2857948462493,13.5309545667614,306.243837910396,28.7827959658073,104.900332369998,7.07595599232941,475.913574243784,21.6223429707247,785.775845899106,31.7834121605802,291.862103972997,1.45167469452578,1228.33148312936,41.5067981424117,286.684184242322,-23.4710385124891,349.691508179416,-13.3563099619307,826.84271908092,367.644512271753,595.248130401551,4.03903233667485,796.981699220499,-19.3188661670369,656.713751356387,146.926607195736,274.824340495739,24.526007226075,840.029447247681,-66.5529268787364
97.6090595396319,7.51736344154203,305.61939746805,29.5724132977377,109.446497217279,7.63727401989466,478.476621240491,25.8551566847137,788.708269105789,31.7254515579109,296.806880293167,1.27549961379832,1225.61680406542,44.0119950370617,285.604874298369,-23.7071960940158,351.813201688906,-14.7970519266312,796.890543717431,369.236197640618,583.199271481881,6.22471084695968,783.090763089229,-17.3069100481632,641.214319020107,146.437444620228,272.53127806322,25.0820312137463,825.53769970983,-62.4536376797717
89.1481827006709,11.0211072034914,291.242102953329,33.1591006581412,97.6270745300871,14.3811958527292,459.606263378808,28.9601280089191,776.306101831621,33.2427824376328,278.90532775968,9.67174910085228,1212.78856703008,46.2283225178212,282.741529446026,-22.7313365389127,347.975769536135,-13.4047189453105,804.023114454394,363.053817790657,582.310237087352,6.80860972827088,780.043859964908,-16.6495851266464,644.199453451932,147.235512590127,271.996856032419,24.7457285515539,832.76029586782,-66.5848984038623
85.7618679752897,12.4290869344253,303.875562918073,31.7475651746751,101.657708729913,6.72283796442239,468.894999209471,23.4349775575874,787.206442319185,32.2869415561431,295.133371804324,3.53038230276566,1229.532695052,42.9919890974067,287.583342527182,-23.4745106081291,349.3659788132,-12.573403012384,833.03606652682,370.564613143523,594.824496059735,5.78559717100369,797.573951798219,-20.2812694107183,661.94417193032,145.928596142707,275.295982734681,24.8709538559799,840.990311696236,-63.4095628197618
89.0335439709468,7.22603581675711,310.708491279613,26.0836867532016,97.5407862939676,11.1070656811015,466.696643803006,22.6290016102653,773.702347541779,33.6807951825937,288.464062820174,4.07455575481214,1217.78413674331,42.9180640531068,282.449426091609,-22.8400054433377,346.416764443852,-11.73011953107,794.402012265633,362.650899823607,579.371218224048,7.54343043363865,782.677788100295,-18.8819441272099,638.452409379013,148.771042171283,271.944063431048,24.8647600500783,820.974199015977,-60.3031572343422
76.9676592489721,15.3054123086443,303.433099528647,31.1458621225652,101.089175323472,11.2285210818508,454.087165515003,23.1374525968187,775.071595292953,33.3752218639521,291.326937094239,1.33416976396558,1218.01301574462,42.6837913936124,282.963890270799,-22.7763974364831,344.879442349617,-12.0736993914056,802.976796481003,365.820023081089,583.801144587407,6.25623048228273,781.199212825887,-16.9583898901609,644.582039170876,148.522067098329,272.848471216329,24.5698064966404,828.899883869865,-60.6540814622222
85.4920758817479,11.8216585530404,308.047971532083,23.9492210610688,110.655479933953,3.75125163945497,477.100266246032,18.2707572834206,790.039921286761,31.3721103395383,288.443134132164,7.50085305608537,1231.18846369637,43.3111805891865,288.153852503102,-23.7605443227377,351.050161716353,-13.254756631222,834.730774219369,370.862880446563,596.007453526291,4.11651884886386,795.82297285834,-16.7096800348521,663.679566209909,147.038863847023,276.40771996845,24.171024025623,848.429231026987,-67.2184366314906
80.0369655955044,15.8609156673117,298.677643378663,30.0829361010385,98.0569959199856,13.2957504280275,463.817120120258,21.8556608112741,771.823643647211,33.6577935714662,286.443780879801,5.47947503760273,1212.38177937508,42.7530004518756,281.636978664648,-22.6975849008728,345.007245589254,-11.3884472432987,788.290215119387,364.969950510855,576.966021081819,6.48035177003672,774.844388870776,-15.990758924662,638.565360994719,146.319648390864,272.079293811353,24.3733359042531,823.277689264397,-60.1614145903703
82.2196604108595,12.4707849020215,302.388510749242,29.5403048683301,108.593089337729,4.82425826389935,455.647879723143,30.2213126469858,773.019429993703,34.632791510249,278.636474743312,7.74751061258325,1214.67756835759,43.2296479635725,283.074662811471,-23.1290518157701,345.886414153748,-12.190246259574,803.486185794599,362.809360062799,580.912289196093,6.94197581820245,783.230355041539,-18.0341900520738,644.314225874873,148.02593410207,272.827173578677,24.624076502166,831.827922086369,-62.4410908099334
92.0702298232763,8.60438224190759,298.331197860589,32.8253801183274,103.411701774183,8.782761300027,481.478313017381,17.1910143759969,789.598037021556,31.8907807332865,299.8029990026,-3.17094769646464,1229.17767574314,42.5756566367734,287.580561976798,-23.1859577564372,353.226519691706,-14.3081285921652,837.870085143173,369.928944251373,594.248358642614,5.47459950881878,797.744627716191,-18.9019176016307,663.812189133809,147.848804135267,276.925839884643,23.974301672488,847.017950385548,-65.6329961755458
88.1600101941612,10.4187952956391,306.782496057469,28.4431184659153,97.4317709897033,12.6556199444829,456.70382820755,25.5117679449916,770.198569838852,34.3940392638792,288.452063158202,2.97599065883478,1210.86338661868,42.2819354504767,281.586108946164,-22.5353441837441,347.255352675403,-13.1319243093163,793.017436311042,360.400825612749,575.728061246593,8.33888809169815,776.701376905315,-17.8385312652213,634.331496790612,149.953303842357,272.223250792599,24.5237069738634,824.74171894964,-61.1083198186895
87.7823116783468,9.70141734708959,296.540204904961,32.099801846273,98.6196515049541,8.48819673184847,459.402147909392,26.1931382776658,774.59865524539,33.7057621514542,291.825514242519,-0.57705972938377,1211.98525877288,45.9523195440958,282.749201125051,-22.7345654188067,345.800020970564,-11.3705564276705,803.954798063358,365.585963644367,583.174095929456,5.6708498443166,783.058216000417,-17.8486836129453,644.694570278199,149.622804755722,273.578969530852,24.4511348903779,833.729891414513,-62.4226628589975
84.3101918879808,13.1188457155898,296.061496520071,38.8817125523652,112.418611138639,3.59242613059782,475.821473358189,20.6673489744335,789.275500615249,32.4734024171004,299.052663134064,1.28925607270424,1233.48641992205,41.4320651964798,288.896846652652,-23.6415133914077,352.337511601952,-13.4222377393894,844.993937179138,368.453126373158,596.96178068991,5.04125075667455,801.049347892387,-20.166426643073,664.884371157779,149.183320069817,277.62490072537,24.2447126489106,850.534989391563,-65.4349921637719
85.586544569979,10.8524190335885,301.488250801337,27.9141440838099,106.11669163741,5.8693132793486,460.671671707252,25.5541692356825,775.517707013194,33.8817241084833,290.344520431351,1.35135053156785,1221.79185409659,41.496332776081,283.103790045654,-22.8360706379207,349.412219261589,-12.510107608094,795.564116590502,365.748755141549,579.353292795062,7.33056798501053,785.470845444593,-18.1829129352704,640.55533202213,149.642223302258,273.697741896025,24.9447301313282,825.740158201922,-60.0359883827063
83.4883826582518,11.7824934415287,304.904274152036,27.4301291824539,103.636154850957,6.01276376031252,468.216852724937,21.1383225044567,774.749287067733,34.0440725276521,288.637563172865,5.79803003459086,1218.27920449401,41.3675868480766,283.478714447467,-23.1686054581389,347.751332535994,-13.3766569750054,804.939007111412,364.874006534294,578.222851843764,8.73294380808302,787.131357228954,-19.7692085292399,651.33500787281,144.45350351134,274.099037567342,24.6174873062831,833.257218893413,-63.7329820738529
83.945271262866,14.7869806084593,302.441887604624,32.3597953708647,97.2112553495466,11.8254305302727,479.676777196796,20.8539376922094,788.150607650596,32.6975799871512,287.891292409454,6.22099758307916,1235.81825365263,40.1978633482465,288.430338211004,-23.6895029664769,353.623304979323,-13.3680318478124,837.13842693054,371.817910699786,593.533078266371,5.6522760588935,801.957083261183,-20.1698284168208,667.158001368597,148.743483324011,277.827804105227,24.2739409248754,848.958046682035,-67.3518766802399
83.3746447614441,10.9465471447945,307.908009576089,31.9638429763553,104.259050070319,5.67616039823816,458.861091841727,22.8627345932519,773.895391184143,33.7788531184363,288.668156514626,5.46268083032278,1214.669919675,45.7730360016191,283.290173344783,-22.7842414169584,350.649462231801,-12.6009048123104,794.766789766505,364.073483173735,578.542975866651,8.07359543043428,784.483054308514,-17.9800314547749,642.370917999269,148.459773500601,274.669063564862,24.4518994566401,829.418388338551,-62.224325774809
82.3518342276671,13.7387521013212,300.039053796311,29.5964392489188,100.023098753716,8.11762563271863,468.746188069496,24.6005764842394,776.549858351032,33.6545333352822,285.04752030877,6.0920555555473,1221.93959469448,41.274850483665,284.668921277504,-23.0994899234192,350.145743070086,-12.9139485452334,808.95512734514,365.649104851494,582.070981630282,8.17056898330367,786.931407303033,-17.8416457805022,647.512263555005,150.696064160618,275.102600438413,24.1215890825274,836.318897363058,-62.8751755439837
81.2670642327653,16.9071361546087,306.274669331617,34.3069169084142,101.818228131883,7.99027511537441,468.982457661812,30.6863553720172,791.295176331692,32.0026856068536,299.418930424973,-3.66710535342391,1240.40026489533,38.904065734979,290.56559685022,-24.3337037688419,355.772155651397,-14.0814331988636,847.042887493421,368.624396338529,596.595365274034,6.26404977379578,802.347973770018,-19.3790817674883,670.486704204501,147.816921480979,279.191552034384,23.8785542202996,855.207918797596,-68.5241636504082
83.2376702521091,14.4214797537631,301.941810335968,28.8229835344943,103.594549300768,2.8475133147852,449.554782619896,34.7397958331632,772.933891953759,33.7434873131128,283.914756015819,8.07241007362341,1215.96046240174,43.5637833179047,283.269303541483,-22.7841609812576,349.465094509054,-13.2304450229826,796.514367594329,364.823925903668,577.719573985866,7.0095868446666,780.921705178186,-16.6028589325939,641.463944490624,148.576076785933,273.599712797891,24.7338127863581,832.366846347562,-65.2504579385405
