71.2163619027345,16.6759553071804,258.081855550461,34.4025510345635,95.7562397174375,6.42101973332825,418.24082510633,32.6079637356467,711.953787478765,44.3058411031923,266.776948268953,6.69677465950209,1114.96468679588,69.0100469790035,273.746447846208,-20.4869220020925,325.292432893111,-7.72712789399215,759.616816555551,372.041071508047,531.348656564589,16.3046372087972,735.873114280926,-6.7555447490544,599.02239684716,157.2976462281,261.136369073463,26.3393781807279,817.708695899936,-58.2906548921991
82.1964134738335,11.6624962969217,267.470773008694,35.5159176969395,91.81544267556,9.5008315519977,425.200939821599,37.002834643973,727.95827110817,42.6739956885738,261.740827381137,11.5603650291482,1139.47576022286,65.8874575467384,280.184354821571,-21.3599621005297,330.673548494803,-7.05139137293585,802.259047089778,376.388568238822,546.418461782622,14.9375669207169,756.612127180872,-9.973438399442,625.525953016112,153.970669882994,264.703088429837,26.5251303732977,832.490617313255,-59.2821335706623
70.9554082917404,19.4159109574557,270.354915729806,39.8919110324455,93.530519447775,12.4459872959774,433.288209860354,35.076727327216,724.684103962441,43.5083745719259,257.863099898138,16.87909083818,1130.85479688463,66.3080700046439,277.20729336739,-20.771125872674,333.1025794013,-8.54237228218826,769.068893802061,370.83126403555,530.210360385184,18.8490350781098,744.999218865462,-9.91683127868863,602.142745235906,156.332562365059,262.106322927796,26.8174841283849,816.492181322099,-56.9680355278125
77.8842689377671,12.6514828933352,260.439734368909,42.515397820793,89.8503319047002,14.7344369316207,419.978257653519,34.190316976207,717.910820032722,43.5259638147123,259.288319986362,13.8823024643017,1129.10784651526,65.111373006048,276.272815237347,-20.9373414767386,329.310124337393,-7.46239629056291,767.283276431687,373.280414969872,534.371770488004,16.4065759021868,745.854124371204,-8.54393759698189,609.777038161161,154.359588310242,262.724078230305,26.5622896589356,818.915645355344,-58.0201292737186
80.0388057221349,10.8017766417592,270.200723843003,38.2007996554595,96.430185409204,12.9682322170028,427.859925300624,37.0524872932793,730.818889304775,42.4807831366916,265.059499989952,13.0033872293787,1151.82801490885,61.079934864673,281.227982708837,-21.2785892556639,337.177066319297,-10.0244129149583,800.990067898354,381.152194568666,545.778874614014,17.7314412401197,763.001831145831,-10.5716465114499,627.736176110765,155.94611360834,265.587966200052,26.9787827612971,837.208230549357,-62.8779710221296
75.0014971014942,12.8789311942334,277.561482852539,35.0916643858306,101.519977903452,6.76404032888205,433.138030208343,37.3115779108948,726.25761291881,42.823562738556,265.684076372683,11.8164037290448,1139.45321054586,62.8922174605816,277.913268253538,-21.0421936389954,334.933895279205,-9.39893564997528,771.079929753557,370.692357851551,534.846559868706,16.7350162831586,747.39555673512,-8.0008082923813,610.752651332197,155.252354914165,263.333206685925,26.8690167136327,816.459752793293,-58.7795243273247
74.362802008817,15.4654993733592,259.97805768665,41.6040903316252,86.0960751199934,10.7244790952301,436.929801855957,30.3516323133019,721.057350728697,43.4795919515508,264.760600811381,10.969711119224,1132.43536362385,64.6778502091715,277.219014637666,-20.447128961265,330.529588008644,-7.76645655829492,783.060599924349,369.515848850535,534.921710689478,19.324145394974,751.690390865234,-9.51681048338597,612.813459455702,155.892098897833,263.901579259753,26.5125802911637,824.284753123022,-61.635187150886
83.2347124962163,11.8426651463407,264.081051240826,41.2433499179604,94.8642448167286,10.5554285707706,423.815215796903,37.8856520095325,734.695694697517,42.3722704683905,267.827970918089,11.7614460973719,1155.25699647884,61.59038145784,282.787418144203,-21.9280006554595,338.559777292509,-9.96959361543616,815.971700912743,378.25928805301,551.615297462962,14.6100210732697,765.907669506547,-11.944421685386,636.204044315527,153.225674372491,266.971633783625,26.3458931044596,840.888396631702,-62.6070700689596
81.0770440303008,13.6213678072693,280.866778755744,35.8576661788419,83.6541605613305,17.4020923103401,431.184996541647,36.8042065172744,723.432072480467,43.0433471560269,271.455751259008,8.58559177876225,1136.87297265563,65.3319895921928,277.96244262194,-21.2565591442039,334.644520805865,-9.43892753890198,772.042752382983,370.718645601884,533.783355321999,18.0047616434092,747.898566473662,-9.77721082990246,615.330169379979,150.342965887699,263.998161831286,26.7517712965086,818.883049600428,-58.3088888935604
78.9432189655648,14.4811089464998,267.292964631372,36.0468843175501,94.6759993811064,8.87220939478346,435.351199026642,31.2871644210102,722.149052820297,43.3161809631415,267.155677832768,9.21641995369445,1134.46808651811,64.4004498355593,278.42078612558,-21.4166537277703,332.855095867164,-8.32075883153179,783.789502840682,370.346152234159,540.844166138059,13.5514182736839,746.783773142936,-7.88846210664142,616.378503660741,154.239526294586,264.065761923985,26.2313575286161,822.528757047902,-59.8877325510723
73.430845179153,16.6486166869755,265.496175780914,46.994701522097,94.2926081641675,9.96648571048956,428.614690690388,37.9572518371326,736.521126463716,42.0589873196627,276.604316912966,7.64252634520804,1158.60377304073,60.0908775833829,284.05115775953,-21.9641241923507,338.442974614626,-10.2752159460638,818.96726328703,376.643083973902,553.442029245624,14.3629396350917,768.655204799504,-12.3737474863391,637.207361404433,152.535707057516,267.536049273768,26.1996078223424,838.735365856733,-62.5719699932732
83.6502315003386,9.66070945270029,270.999508026353,40.1631799035387,93.1825825325588,12.1918070184941,428.409525967939,33.0913052826476,719.718545043665,43.387886254763,264.252161008363,15.9491402332621,1133.00113537531,66.014383446598,277.165271461473,-21.157702849948,332.821501799588,-8.54319137101294,766.17762685501,372.303661624169,533.00277117194,17.3602959017473,743.868037450112,-8.96892284604094,609.684815015103,151.671551599237,263.007733493183,26.3213174872594,809.475178859072,-55.8750380678856
77.1113276321546,14.7967068483399,270.023594373819,34.3536451964509,91.2608952349532,13.1145643118139,425.446973263532,35.8093079280728,720.657390472345,43.6481017453997,269.899179666581,10.3716497043613,1135.15249289557,65.4710345618586,277.890300425405,-21.3107968009121,331.285396519422,-8.40425564735913,780.886562214023,369.553037137974,535.109775659659,16.5344042405519,745.510715103833,-9.11192322382466,613.076336990607,153.267055109768,263.373399759569,26.4480246849371,820.399144123805,-57.1434552652552
65.7287009372925,22.8620600602576,266.217811924938,40.7530600218038,87.6170302485994,14.036452316779,440.367931430135,29.9918741066097,734.304850799908,42.4971584820547,260.516088243342,20.1217961463457,1156.23459307425,60.8863553078643,283.655720667116,-21.9474821821898,338.590042678032,-10.5996443936138,814.58080272843,377.847245678194,549.80958682086,15.7290948414042,759.74983930921,-8.5071551332875,632.173766484845,153.145947873469,266.654811450615,25.9023458249116,836.518584541886,-60.0865221842685
81.8665389112378,12.0272665505608,271.878955019639,34.9189189432107,96.9341157389535,8.19436163166096,420.915038176896,41.7416307495406,718.954585265992,43.7109716524509,263.714801879309,11.9067626320107,1135.55490567734,63.0061517677791,276.580120770161,-20.3874314927856,333.060686080303,-8.83181616534147,765.708285337102,371.070044093585,529.742729332069,17.6496663095563,737.984526752004,-7.8136624047392,604.971081539251,152.262480262891,262.108381314932,26.7765836561907,811.787274981368,-56.1464411425693
83.3159180241745,10.9001915954587,265.844894699108,36.0557403185483,95.4135234861145,9.0108130719597,437.705517397681,30.5435875539901,717.034868707243,44.4499278916487,264.950498616784,13.8323136721708,1130.35852106059,65.2010350907091,276.422498649159,-20.4932480654617,328.577486025704,-8.14079768322214,766.134895304442,373.606202189116,535.237752137159,15.5005682386028,740.873663233718,-7.72660889012967,607.149508186346,153.292005928339,261.391552085341,26.7756981246235,816.877417683244,-56.4098395139569
78.8020924576734,17.0728500258529,272.693163636598,39.7799672621304,89.1347198669478,11.3105351295597,431.949344954776,39.3819027052615,730.158061805025,43.8554538028265,263.363398790644,16.0934042034834,1147.86680559228,61.7903950527212,282.038040028486,-21.6021818072618,331.693988954273,-7.20743003899439,802.349080351115,378.663296673629,545.918377971058,17.0636228765871,753.084890698002,-9.09465631397194,620.862350477532,156.242701472447,264.048364923183,26.7986637837231,835.790972491678,-61.6745963794912
79.1688266503479,15.2782400225511,255.999054134293,43.233606758097,91.5241575770141,13.5834250475264,422.14568601688,37.4643336330262,714.735545336414,44.4383320628927,261.551877328425,14.485198876471,1127.65526656008,67.6109246778198,275.034106961254,-20.5183085578659,327.102333671245,-7.08519786909358,761.214493675199,367.347619737538,528.432563673131,15.7029063336457,730.768813112934,-6.00758459304925,596.496293786621,154.531245594916,259.525911214121,27.1510556506651,808.499916425628,-55.7213790615267
81.3572817111673,11.662415169385,258.733568808605,40.8211639716692,92.3191444477368,9.12370022643957,429.305686033688,30.9375657959582,714.270982189926,44.7528907309705,259.350858425149,12.4547450288266,1125.20575515385,65.3018725571749,274.939032311934,-19.9975525618285,326.458237099747,-7.98568180165001,769.301091940307,370.332663576133,531.014551124268,16.5328939446701,734.903768977648,-6.53681026017245,605.220648981529,152.623420887018,259.946617142121,27.3053194547873,817.974057671528,-59.9692292942829
71.0282279970802,19.306690631669,274.477118664682,36.1141685558741,94.7396616684372,10.7002092714013,433.447741536231,33.0315651173116,727.873223436978,43.780832921549,267.975818721558,8.0299237160678,1143.72102198368,63.0221483836899,280.017502068597,-20.9995485390826,331.312388632722,-7.70069063159065,800.290079353348,379.055088338285,542.807533532968,16.8407860823525,756.20246882031,-10.9088704759882,615.693593227344,155.807407258291,263.570202758061,26.6351547351351,831.806624321372,-60.1341595351147
77.4491286134297,17.6428681885881,250.935053957932,39.6568232716262,97.0331984991838,5.75731376889514,411.616873637878,47.251181639481,711.024318775102,44.7209825701273,268.942132140914,9.37743579770898,1122.52986526047,65.0005511514759,273.966024456001,-20.2485315800445,327.484364922033,-7.99309700358618,756.087148896366,367.210617289345,524.031404480509,17.2698690191899,728.870557008204,-4.15169774691394,590.967672279518,155.571827813451,258.916284037389,27.0457773339001,806.452715997419,-54.4392618053277
68.9216309788891,23.6109889157526,252.969346681499,43.0298611382994,93.8481391112827,9.55564068130803,414.169388999622,39.6631052225667,713.319147867952,44.5806487206051,261.194164566137,10.1430984794234,1120.83839187927,67.4534874716767,273.931111828142,-20.2391197850624,325.469050983086,-6.67587474543542,765.128199504637,371.379244653337,530.179917441279,16.7130077447127,736.801180116513,-7.87775626755546,597.324251870488,155.998820309005,259.561348734764,27.0313068251512,818.923006580097,-60.2602941498827
73.69052292593,16.0676762197258,262.616853842921,36.6280525660385,91.6485144882522,13.0145311130308,424.312935473884,41.0190630948923,726.235106104487,43.4156583846055,269.370799893377,7.10273932655412,1137.31279153926,65.7034201180137,279.134946835752,-21.2128820133504,331.695632395813,-9.063929817321,797.029469156918,375.838699427041,540.409835367103,17.0621981983857,749.40573898927,-9.10347039767773,616.456547610241,153.99525585609,262.47347442968,26.8695838579635,825.746129664892,-59.8246619312397
80.4288384335391,12.7827522332856,255.330899271225,39.400092733201,92.1258245300137,9.05229960941122,406.503506002823,47.3427959514283,704.831833267265,45.5214519433352,255.462581766542,15.0010103891127,1112.03047343951,67.0325118261324,270.640720507088,-19.2797141023793,324.003791425663,-7.85687832007435,750.792758068028,364.925745503674,522.92240566218,17.804911484001,726.146010633544,-3.40781600579866,590.477638253012,154.839684087556,258.572236242505,26.6850560636506,806.446932069295,-54.8611526166455
81.1955173640898,12.8777478199403,255.461427822079,41.2949374871782,96.6381623443942,7.86790193103897,412.812931036477,37.8463937811538,710.732639886695,45.2344919911824,262.956091382366,11.7858218472577,1120.34866956895,65.9062072449233,273.864528960063,-20.0535611672709,324.353927019805,-7.6331700032461,765.961755631656,371.169012452496,528.324991993917,19.6365104285929,734.378981169859,-7.40442749374003,600.505109479478,153.999703409193,259.819617688989,27.0281666422888,818.610610346143,-58.1926918529386
76.2254239138081,15.7248054155177,269.412653222721,37.0022890043488,97.608769320599,6.85342746467932,429.659703877808,36.8920327936055,724.99411386894,43.8075438454679,274.19881311106,6.27876568789235,1132.39611500457,65.2685727223764,278.013247561055,-21.2024984460375,328.318832715599,-7.69079443077131,774.213793260869,371.037949976308,527.093782169852,17.3113109445698,732.715602267476,-8.29990606801946,590.143421527971,155.106802802707,259.088091961246,26.806465909369,809.812712397113,-57.8967551850531
71.7152123660527,13.3192665362495,260.880015127495,35.9106769743105,103.180599117384,2.1866257391078,407.37423620695,39.4613543454848,702.361022841925,46.2927427889222,254.669015416106,14.2057022936488,1103.99745129519,69.5667918162161,270.24382527629,-19.6667366116366,319.843540472786,-6.39099496803537,747.184614110822,366.109518257465,520.812593530992,18.69741392884,720.153633410901,-3.45055826350655,583.731216600391,156.453118223496,257.136932562334,27.1928746946115,802.578290889117,-52.2322588797711
76.3872727105723,13.3014531499891,255.009502485079,39.1186434120475,97.1715558069874,10.8872923171157,420.383706269895,36.4126734976505,712.139652924672,44.4248556747187,261.033302987058,9.05914998183032,1115.1687473699,67.7573081100313,273.387873595661,-20.1728432215854,321.654088730908,-5.89727619027818,767.580518771221,369.334661572252,529.360479188769,17.8463219020744,733.947921998889,-5.29731236564033,597.672725651664,157.950130122607,260.001039432862,26.8805736788039,813.255503393917,-53.779345978647
78.2408210625789,12.4957098647015,248.329558669288,48.4948899495758,92.9326686343942,10.4477347117088,427.32599154683,30.8524429538893,714.93835830636,44.8200850794267,261.517368164807,8.89844308674595,1115.54457285879,68.5165655021174,272.152117953272,-19.9779360667189,324.175654246397,-7.14275174080775,745.549694819995,364.223115117604,520.711953979737,18.8003195312331,724.180725310436,-4.36464501531007,584.064362296196,156.077672822745,257.647704221258,27.2521662621232,802.726453757453,-55.4045211969354
69.9346365926717,18.1481737705857,260.729022642174,32.418370521868,89.0352959450303,9.47784073324549,405.90115951889,33.5592030857939,696.444964506612,46.8951238434635,255.880559915953,14.8983452698663,1098.29165542635,68.3432115704373,267.721310466195,-19.2071349245849,318.966854630448,-5.57106503256893,736.909991959376,365.176311164187,517.661271377857,19.8461356156477,723.109065711727,-5.26114810838081,581.213967978801,157.664721416104,256.622622332373,27.1872215462809,803.451686834513,-55.1631046911291
76.91965166652,16.4420532880726,253.849181332122,33.353077909614,85.4244891835287,14.3293533172277,399.424907755053,41.2386472890528,707.30628244011,45.9878162278477,258.895085062881,12.9360094231001,1107.65403202269,70.4818577960019,271.490738326512,-19.6158229943463,323.384668913052,-5.80655210753869,755.478810026727,367.611939084895,529.14146760071,18.4325870277573,739.394380844741,-9.04240995150662,598.635871212614,156.030765292964,260.430184271904,26.9817367176629,818.520040778894,-56.3319284392092
78.6698007657276,11.1909866791504,257.656905295335,39.1348979635842,91.2565561309164,8.08772197735045,428.4014996675,32.7876605881239,713.791549007227,44.6069738258237,259.434729319335,15.9710454607336,1110.40082757321,72.1182831376242,271.015606479722,-19.7595675902452,325.683425484498,-8.42123650683012,742.880270157384,362.826996749016,521.374740494019,16.8730676008739,729.244494254112,-6.00309986580294,580.864041619475,158.645815785375,258.944702703217,26.7699382100756,799.178574667364,-52.8078662655194
76.6099140054984,13.457137119623,251.977565784176,38.0710362021004,90.0719439903144,10.1043995769902,404.900000999104,38.230064971313,694.808294111492,46.3801142284229,254.86905038539,10.0073822388085,1093.73468664756,72.5873339745428,267.320166692574,-18.8660894618968,320.884088962108,-6.58886767110548,730.926382152002,362.84575680841,520.56717343655,16.0654417297661,725.788231676408,-5.03200759961151,577.74621016222,160.936004715854,257.945096287794,27.0861300489794,799.740085076136,-53.1645361067728
71.3933213241384,13.975004099636,250.391583319459,36.8202626796975,89.2194036043424,9.89219486831123,418.448576577965,28.8200213318228,707.977310533677,45.3721174752268,268.673747341461,3.67128268504907,1114.22830521349,67.9637996417912,271.608562166097,-19.5030886787392,324.220510680549,-8.05467533600173,756.172221150889,369.115252884936,528.007406039811,19.3721310225863,740.018884951802,-6.11620542967671,595.981498044744,159.503901292587,260.946553418735,27.1038221122858,814.432437048659,-55.4568512593999
71.2006865126002,17.9035907900545,275.299903718154,29.3429822699929,86.0250049231851,12.7493766366031,425.503611958708,31.9359566457018,720.512779341278,44.2106210479386,270.728221551509,2.7232041542168,1125.31993635229,66.0104211021782,273.85051952041,-19.8351313415339,327.936909962544,-7.31358852610987,752.64963160979,365.825807362297,522.709149157607,19.2853103567262,740.441851674933,-7.03020371024138,585.204275768469,159.754660181372,261.115138051377,26.8246303654017,800.798798195383,-52.5909436035322
73.5842500632631,15.5962552077278,267.893534511576,30.0279978982897,95.1353165997189,4.41381207400466,410.233322483167,35.8593576338522,699.358784806173,45.1330966554154,255.801786867265,15.0309140798918,1105.44933905617,71.3826171275836,268.760901970025,-18.9967702093344,323.678530359677,-6.89664965096778,732.592753961331,365.972969793821,520.50797452755,19.2273439907206,731.990630893239,-5.24760463622482,582.70057378175,159.367522373562,259.802450849938,26.8698276999893,797.083777885,-50.6926894400297
78.2578569479077,12.600614114888,264.272738492046,33.3086482084896,89.9239206809593,9.99844202850541,419.103355557274,35.2555337937691,709.220749072461,44.9957007539474,259.451470062414,12.6491771739832,1120.26396166907,68.9996884967226,272.629938817346,-19.7060075020674,326.911967400913,-7.1569529151288,758.464063963372,368.088901250147,533.279041028975,16.1793379025534,745.273116362341,-7.48086473274009,598.617628600945,159.87001687763,262.324824660863,27.0890411350226,814.713150813172,-54.9277798924604
74.7368509094793,13.5766221183275,271.127428703614,31.9681969635245,102.914126866888,5.13512946696437,434.204223584492,27.1795896086576,710.948648281549,44.4710205863654,273.966287815098,7.19070467708143,1117.15448614081,70.4368604290019,271.595274057449,-19.7128169976315,326.368515982828,-6.33516821705354,738.087580222085,363.828658986278,526.434138071018,16.7155370051479,735.649099604597,-6.06394732565813,589.164497057759,155.742537367482,261.211713506982,26.8597370636851,799.80528749192,-53.2688049058816
68.591565576227,18.0386717645526,250.06711527506,42.5714631964726,92.5130857706656,5.04374473553461,420.075201954731,34.7710942896255,700.37138392657,45.7269490717028,262.914033067673,11.1833104987723,1113.74033872999,69.5676130783543,270.041654684937,-19.5732926857217,323.606610649207,-6.24785604229222,739.771570503715,361.922938190385,524.302640917494,17.0897682330347,732.718846130985,-5.23102146705791,586.675596482104,158.729672252984,260.796274856181,26.8535279664582,806.14047531605,-54.0940528076721
71.8393422244301,17.3779346600607,263.861250643932,35.533915735414,92.3830684914786,10.8690352221488,415.67021224444,35.2165354467821,713.158943030217,44.6760176500711,270.843262450789,7.18267863286597,1129.09380580112,67.3941082013764,274.545947470247,-20.3403078966509,330.900019631805,-9.10322277610732,764.856947641446,367.955016435184,534.777765500875,17.5636301299622,749.467437711741,-8.68156771595207,605.963990664388,157.409704702996,263.402424311392,26.8152054478643,814.832439318636,-54.7488745453459
76.8613072257714,13.5073734205421,270.131987958423,29.3120911650909,94.4362920748885,10.0720099744764,417.96354320867,32.8285649174799,705.184942105534,44.4353177690887,261.363202584488,9.50948570181502,1121.95052102336,67.7369404272753,271.673547444827,-19.9111597112435,324.842956290614,-5.54263339257497,739.494388091766,360.537996021591,525.163975864538,17.5658516233755,736.886840165421,-7.42871394105756,594.380845349926,153.668441069476,261.177327319561,26.5263345651606,796.068153795756,-51.4777082250833
77.8575499597169,13.5388672209532,243.366224557218,45.9758905059197,91.7681664963759,11.7856277291286,420.0295730095,34.5612306055465,699.641829055706,45.433893184084,259.998000040065,13.4842494555291,1119.77698571714,66.6283875962345,270.375038371735,-19.6788248704794,325.667315754108,-8.03177313353945,736.637647659397,363.540037968738,524.916994861607,17.1498389674669,737.68531113486,-8.37597358461985,595.369856381986,153.441452845155,260.852728992687,26.5764303119542,800.994185372789,-52.9533337007941
78.5116561979041,12.8137180248681,272.045675498955,29.764772551039,96.3214330759976,7.84428543315557,421.921364518845,33.4652990907935,713.469296923399,44.7472711384512,264.737124613877,6.48452546161076,1137.32886333392,65.4725925604834,275.128338649883,-20.3799261602438,328.402685363624,-7.58894818654401,771.83794462947,364.332489129562,536.445198771753,17.0540900898975,746.120466910326,-6.4466343115601,608.378940696956,156.693924684801,263.376591610727,26.9139226938624,815.179158742581,-54.6784123678692
75.3983831000894,15.8699403126287,271.304282103077,28.6844333632917,94.3442111286932,11.7868673035029,423.11423718507,31.6776910262942,704.90293612548,44.2413982010299,269.747865678474,9.31218300417603,1128.17193010764,67.2336550654487,271.693902655959,-20.0021379421001,325.261522978116,-7.0918953260064,736.981203970201,361.346168135637,522.665177268585,18.1965388546567,737.081319444978,-8.97941269515777,591.791654725803,155.883311327433,261.10632433357,26.562663477226,797.541025941373,-52.0577314474389
77.0371483924603,13.6786923434453,259.936824159358,39.4261640677972,97.0146498255046,10.3355020162405,413.233299243209,36.2967207647119,698.513800772876,45.0524441872327,259.142037987385,8.0569810143846,1121.37679931807,66.7355396742071,270.064602281446,-19.4204204100957,321.666580508972,-6.44329756315784,743.080181476226,359.682210880621,523.231130958067,17.759266757927,734.852966307427,-7.34948166625053,590.621970264578,156.976342023709,260.040888899506,26.6452057778293,798.492993692207,-53.082663115094
75.8240316114017,14.445200720346,261.826668667368,34.2474889346429,90.0349685155518,12.7453388420506,433.953189518178,29.2816485920982,710.920582013345,44.8294000789044,262.809108357955,15.009521771786,1139.94105904245,63.9012516979862,274.285082849872,-20.1750348899343,325.235550669957,-7.07712884997501,761.532294049257,371.20524396409,536.528516354832,14.8759219625349,743.884597436538,-8.30867209327454,611.620154062778,153.908025366933,262.661276670152,26.5281020785231,812.404192205608,-53.1812904716258
84.5810797154146,13.3126693718645,254.768135628119,40.3045320079464,97.8747995801167,9.23135374834622,429.101164982354,35.1504053712123,706.253187608963,44.3048865086552,262.43613938106,13.3878385744187,1125.77918951009,67.6233008692053,272.00721776629,-20.2056083634713,327.806420547725,-8.47186094267698,740.04676692822,360.349264692565,522.640027757634,17.757491161393,733.702590324997,-7.09018420656717,592.691143130432,154.575152396236,260.840512589114,26.3693551855108,792.946360155131,-50.9555653583226
73.3248116245905,14.1450834481648,257.17550470061,40.8477127757173,95.8786284474406,6.33518136073065,430.62181894143,23.2753566817351,697.043917985992,45.3247681138033,255.552282114396,12.9243142629043,1118.66733437983,66.660703661513,269.784054734252,-19.7731909439878,323.896268440475,-7.6183329714036,740.535450303762,360.725438198098,524.831302773763,17.5255546917746,733.529359445025,-7.41616740869552,596.540762815275,152.331686289662,258.947241418184,27.0531988147713,799.58309279162,-55.125462482501
74.5693439791728,10.971916722634,244.241082390152,48.9212673876049,85.8141780184193,17.0324362754376,428.411547043819,30.7858824323743,709.487098769598,44.4664791049,266.991035851953,11.4085699744163,1134.92070629909,64.6598748750212,273.912859784275,-20.1287429171468,326.05127738623,-7.22346673343019,762.921955181571,367.806091234828,535.030680507696,15.5562012374259,745.117177115018,-8.20764804163965,613.010586050486,151.780507746023,262.46559594571,26.4751555918092,812.571065336875,-55.1042223769539
83.155966134252,11.5872292049436,262.144500826856,33.8940992132732,91.8685500029562,8.5653816516017,414.462789553667,33.4908940689203,699.430355434799,45.117195471692,257.398978008837,16.3860690663139,1123.7414223976,66.9957019954824,270.084159401375,-19.5653829933688,325.050933967011,-7.72291763632171,738.508091189222,357.19880851626,525.650004517872,15.6759427004875,735.240708774752,-9.33136548261787,597.652080069062,152.185510653177,260.079568716297,26.7421257469926,798.119207209312,-53.2023736356442
78.9384487479847,13.7977531221812,252.714184429886,39.1807703681514,95.7219622182241,9.50128908411139,409.812392576474,37.5972632430825,697.889468657445,44.6180537754411,266.335495042379,7.13209524767284,1117.72067894453,68.1751336754021,269.533525632447,-19.7244190976456,324.259868362533,-7.22433991504336,744.212790236841,358.778162410536,524.934349579118,16.1073174513932,737.143353402448,-8.88632893721486,599.228136996122,152.926875289091,259.581098901225,27.1403918627237,801.797262028318,-53.4757369945455
75.5618152570964,15.8223506276361,255.313411423885,36.7564812752482,101.845538842402,3.93430482207992,428.492031659707,32.0309032269702,711.466296509318,44.0572236226187,263.598809571263,6.99583187881397,1134.81112786593,64.6921135038962,273.615965957636,-19.9197608779597,326.81801133179,-7.70883533785205,769.178943555705,364.581211858205,538.382378992256,13.7409899734848,746.171442864029,-10.190811687318,615.708201745199,150.475738818341,263.021860607918,26.3257571597081,818.649743092662,-56.4756149193782
70.759703809099,17.3816996122829,252.538917970821,43.3014369142908,95.4263853143549,10.9725464808034,418.613130848497,33.939213955068,696.124274560439,44.2250760250284,252.758546480191,15.2739844079113,1118.9653515142,66.6394530946921,269.074226918051,-19.3116399863431,324.820511234218,-7.70953255754852,737.495227323578,357.011986921635,523.397249057364,16.433075829988,731.920230216166,-7.32304842609261,594.400450072679,153.118544051277,259.522098251176,26.5972123151973,799.306401527581,-54.362349490934
72.7649526553784,16.8885160252455,255.182794207288,37.6678995061654,89.3147761802363,9.15199288834756,420.249039316564,35.2160771762768,697.467386080327,44.831849959486,251.365061814229,18.171669234363,1118.25403760071,64.7632352958577,269.465564772662,-19.6245457689356,321.467114659964,-6.33273853148746,746.400331378097,358.381048356459,527.07394346197,15.890938285083,738.319897544452,-9.76702899176557,602.737864745743,150.775122385105,260.171497351148,26.5658792975365,807.109127874885,-55.3582602255801
78.6909183315272,12.3982920092191,259.402937278818,35.4296036854514,91.591668450446,9.5874084571156,421.598341860177,36.6585699870978,712.26702952076,43.8067547576101,258.421342610796,17.9620735763837,1133.19944448043,66.3434458985128,274.976155956336,-20.2815129440006,328.746833985043,-9.03938558871061,776.022893198782,362.36227744275,538.458192749586,16.0222185000069,750.983764990859,-9.82045715522466,620.825711297623,151.032430912282,263.71063601724,26.3023565170172,824.183418723868,-58.20593113875
76.793251288599,14.0050611721616,263.485212793514,31.8028061086381,95.2797971103345,9.7973823851472,422.051430853671,29.233879387267,696.906384356791,44.1687254996917,266.62968740431,10.205614776515,1117.76188847168,65.9108888753724,270.164658670905,-19.479673164582,325.107069401804,-7.85287930222603,739.165055092326,358.176416934363,522.226895348988,17.3748077560997,738.360796935331,-10.5702582775653,600.388023123426,149.694732283159,260.245280529437,26.4536917592959,795.810075065994,-51.7708309107999
83.3381145272935,9.62235357703698,252.017118251713,40.2448344141874,100.040211741931,4.94053169989217,411.696947540999,37.6354034806351,698.063647374074,44.7488738538724,253.822597375293,13.9918660176198,1120.11208494747,65.5960807202904,270.20198856335,-19.3451636777869,325.805722702581,-8.2207079119876,746.385241684255,359.06588118491,530.787342284875,15.4072776158722,743.677689416973,-12.2278466718281,603.482101911912,151.172604178588,261.281501285894,26.2529245775748,808.58406793417,-54.3643680285575
76.9126366635949,13.2471094842556,263.679057533302,36.2095786943143,92.300944164707,10.1789480784123,421.06630756111,38.1515599226253,714.850467644867,42.663432981412,260.846861214809,14.6322089643806,1142.1972074466,60.3949261683335,275.700447818412,-20.7039140737608,329.361739359723,-8.13713476760104,781.114498803401,363.10311451403,543.66695838381,13.3536930309456,758.44114498408,-12.9693661762527,624.394669107381,149.564476284007,264.652029253097,26.251097810327,825.819557941314,-58.3033123292862
81.6198691265095,18.5733801866776,262.053205122817,34.9344497779384,89.8047170543071,13.4890281730283,434.98231296187,26.0550602892486,700.440086365344,44.5828682006201,271.109272191978,6.79178532847128,1126.53278266375,64.7214100947662,271.722881675776,-19.8341764743334,327.570737199317,-7.51275346954974,743.085361884366,360.564141168971,524.143180640807,18.8541860660749,746.011169339717,-10.9068214384057,604.470916557561,150.67222386044,262.438051758005,26.452524976568,804.922678523639,-55.2271896055574
72.0774524693692,17.6560801931901,277.476079399781,30.7904373128676,90.3267671015505,10.9578809789368,418.891525978983,33.4620322091886,700.070438071068,45.3613775368599,267.588717475575,11.963598972507,1129.6461063341,65.701565461618,272.278424034708,-20.0535281750005,328.733269296831,-7.92705975771757,752.674289950957,358.340157027487,529.173240454318,16.5436637356058,748.037486841889,-10.5248954689939,607.912120710402,151.831453690552,262.527522945821,26.2627473426278,812.969925205021,-57.6582789913508
73.5088756155329,17.4357226202944,256.475997395868,44.9983563899583,92.8439562394927,12.1422775242429,439.576440197553,27.3313812097804,715.836330221893,43.6654308673097,270.669646147106,6.49450098426618,1148.74032438403,60.0007238866251,277.717749296551,-20.8458427314657,334.046516917507,-9.99136564208865,780.212640262072,365.5334492203,547.660662108586,13.9439180314241,769.48222213372,-15.028874220742,627.891237364733,151.514426488845,267.027785157352,26.1045736012528,825.399045199978,-59.6539282805182
77.2734885931769,16.5299520281677,275.532157987152,36.6876992408525,98.1358951597679,9.32980405370974,449.814709354414,30.2922647188262,719.957885108683,42.7990734759591,265.192634054651,13.2084987448573,1150.15775671913,60.8612277402657,277.111420239685,-21.199319190881,336.814913740662,-9.93376409175059,756.392278542589,363.042670765845,533.589550542526,15.946464433041,757.894316320159,-11.4286360009141,613.235590985762,151.555899464903,265.963501553284,25.9866160452675,810.242266245222,-55.7035845878237
79.8166236090667,14.2068070003837,260.652041010413,36.8477472237027,95.780286522121,11.8932980204143,437.777274868109,26.2966737441552,707.40445079372,44.0695354654434,271.064585818712,5.47836196623203,1141.7696869962,62.3393668019405,274.738467157183,-20.4274939250448,335.558446278948,-10.0719440130042,757.571967627658,362.924569889347,537.547735916437,14.070386532711,758.868272449505,-13.5343921124827,615.323865827349,150.48172086859,266.256924494215,25.882427235426,814.288217716592,-58.0353526019993
84.8020430028158,10.8204751793004,275.629764468376,34.8201985168518,96.0662979863262,9.65991879913683,438.980315680374,33.4367786384146,720.689025964342,42.5979575029821,273.147992640669,10.3286690285173,1158.15554338032,60.4638560192829,278.970090000625,-20.7509482363027,338.286815092877,-10.4487124716371,786.817119725161,368.200577359128,551.479569973478,12.6520239480456,773.519497706351,-14.1935367017035,633.134223837849,149.175965853544,270.106460247748,25.6804124454006,825.431957990488,-59.2696842467231
85.3817273166673,9.50239563651904,274.825373903276,31.6145980014626,97.3779597653532,11.7170468605353,452.320214164653,27.3686324526369,725.525354819447,41.9947461884107,276.557202299458,4.9595890337755,1164.54471191606,57.6787278894116,278.743178870999,-21.2485491117226,338.924191184888,-9.3399969601151,769.751883240568,364.018592488201,538.760589912578,15.1645695288077,768.405374150128,-14.7734809640646,622.125601839468,148.091867021998,269.254666969049,25.3390625536404,811.501348734084,-55.2485706615022
77.9782151284034,16.5067216792302,269.442932743792,33.2881543069714,90.8111925404307,13.0698918189458,428.472898501607,33.0583490388928,715.26604178498,42.714954365404,271.36173315636,9.89446343596667,1158.39163266512,56.8257051012709,277.788451650416,-21.3511869745691,335.920227605734,-8.50179114533653,768.814723547859,363.728315858542,543.259423750432,12.4625056736771,764.482770311669,-14.5348994272545,623.795297700247,149.454188382741,268.805265427477,25.5260896604525,815.431570585592,-57.1124639964606
73.6153922460525,15.5069575841568,274.421912644977,36.9268048681545,104.629711003466,9.45718289770787,448.814507609953,27.3719405145908,728.126891445211,42.1535284430691,282.4957222269,5.51684695407901,1169.80052713471,59.7273946501264,281.824039412336,-21.6776517623435,341.968807867821,-10.5264683963051,797.17632975552,368.569007769641,555.471868910751,12.4807474908141,777.416005194391,-14.180534979356,643.101139925596,147.92342736391,271.753298337936,25.5351852683784,826.612921762051,-57.574452797241
79.3130905187146,18.405634501203,265.709186578561,42.8115554826769,109.499881932867,3.73503429018156,447.431229152625,28.123204472838,720.145437784756,41.9018601317968,283.601121923182,6.84620523934179,1160.88703072456,58.9407446756403,278.107646539582,-20.9500694039002,340.212613664203,-10.2017416900992,767.478398597998,363.262181156606,542.925589446464,14.084265729484,762.657876223902,-13.4213509906224,624.747168179827,146.592321981118,270.133681357056,25.2595452048414,816.806880712964,-59.9850031743599
89.9012056006545,10.7467014685155,276.843777539774,32.048481671078,97.6104119402017,12.2799523137847,440.272731545201,34.9224039693669,718.845182471687,43.0870387380401,281.803192618904,6.9497071932684,1163.32557347692,59.3465416954511,278.441942241802,-21.224560186451,337.211570385792,-9.34931652753324,773.336340917961,364.4995175432,545.901815890617,12.8880725777738,763.175277147443,-11.7063204600242,627.702261563987,149.490485256315,268.845882731633,25.9524907223934,819.122268668975,-58.1472601359488
85.9062197423965,11.4473771154771,262.420977904679,42.6634203070007,101.838395603582,8.93021014484117,446.345359410619,37.2690244198599,734.254473538777,40.8993572732961,277.034468971545,12.515279776655,1181.46476036838,57.1292263552206,283.566263968882,-22.0185107232712,341.423992144088,-10.0590139123096,807.149911126431,371.36252902406,559.286359725266,12.4559434780257,782.853415332997,-17.5939511599658,646.880429750013,147.492471568854,273.013429587646,25.1179032974699,838.194099836038,-63.5256732798313
81.7920314766654,14.6682418471249,260.668310147584,48.2178549948868,108.220417688044,8.448481856638,446.161949409547,29.6125477215149,717.77814232041,42.9001986023039,272.018409546746,10.7099036699898,1158.30813812279,61.5895531064536,277.909706097179,-21.2412709077868,337.889629056806,-10.8775015159537,769.104748100212,365.377658628384,543.056112157248,12.9550984359319,760.340435060918,-14.6198176175175,620.178917188851,149.402658639789,268.798521663602,25.5775703644181,811.357679624852,-56.3274465820754
77.4903091731642,15.5899388171362,261.861095672852,43.9409257190573,105.778347097107,6.74224874734903,442.6848057842,33.9606410923329,722.618468726232,41.8574920719068,268.207557187667,13.4481379224048,1167.14989250266,58.4569501110993,278.936908883467,-21.3458561325824,336.890697762971,-9.90157054419467,781.378754254819,365.594201896108,545.134215613841,15.1250004616468,766.0383005402,-13.3014478865592,630.075228129073,147.699181873441,269.237581021108,25.4687198848525,823.918472470394,-59.6748177234065
80.6709540945323,12.5444058754886,274.216695745913,38.319939691761,102.022470830008,8.03101292271024,460.708333397764,30.2332621825792,738.308422071818,40.1260075464324,279.098364174058,7.69778437359166,1183.50726358947,55.5058400496908,284.285748290008,-22.2095697796794,341.550778571862,-9.95059849446232,817.130715361515,371.238790286595,559.47798265117,13.4722938381909,776.301494523812,-13.9152384051086,647.427993405596,148.400489535573,273.065579838671,25.0254276427648,834.458633758981,-60.660272314372
78.2698545639298,17.7258931579211,265.679403369735,40.1827900970271,106.358396049776,8.70771470272284,443.417849730762,27.4642846647503,720.148225189898,41.8292558689702,270.466304128607,10.081349316423,1162.83030059609,59.5106226178158,277.479095868848,-21.1963354353769,338.61115340431,-10.3834703683786,770.777261128943,365.207690630712,539.590949743614,15.2777220835018,759.782755443235,-12.3123459890032,621.094488201212,147.815947265933,268.275491222289,25.3524285371999,812.799052573096,-57.5300317197311
75.204607540207,16.9264800866322,275.184958067345,32.1758691852477,110.165666112856,-1.27703852694224,439.175827851447,35.5245235551421,724.995774628945,41.5160305248817,271.127279706918,9.412094950153,1162.16754228506,58.5413955997351,279.441615606839,-21.5931994571229,336.197201484774,-9.61333744152018,786.865287518477,365.246433917478,545.921162157566,15.0736647854369,765.198090342071,-13.1147282446083,629.266612855485,149.34987750882,268.604751399106,25.3341663259094,820.323574072966,-57.270680932048
73.5902427051281,19.7488080601348,275.246232328674,34.6472429988028,104.556229741589,10.6520106766566,455.520279273179,26.249716181743,738.57724323357,40.5854911702352,277.71828116107,8.35864473640121,1182.75410681175,55.894106722008,283.921868015296,-22.1704521260752,340.243350537865,-9.32693814851665,818.515500023574,371.777896256284,560.116961294968,12.6332800688308,778.946460735093,-16.1026283487256,643.999536752745,150.563489178053,271.859470743949,25.3817097866844,845.616352287129,-66.1270449095622
81.2412193200767,11.7232102871959,264.897738914795,36.3304071249245,109.363845221599,-0.280146074733937,430.073797050786,37.2341307519833,722.405109572525,41.2051495406419,277.455919386222,5.58825285575223,1159.61218319526,58.5247405017312,277.331502912734,-20.4565827464096,335.227853802073,-9.89286310188879,773.224246090715,365.538309172608,540.822864166941,14.3572413789138,759.877394503713,-13.7577410318162,621.830203672984,147.99818986398,267.988614901821,25.2622307438372,816.34610727926,-56.7571159364079
68.5440833693576,19.5272143120632,262.693719757901,41.1649595064605,94.3968880042568,14.7071787591129,443.859853202469,32.0851591715046,724.588595238453,41.6797807065513,270.636869261208,10.0777603775007,1166.70821215695,55.6692862116777,279.305084042872,-21.4355653880104,335.294700802019,-9.10383468741407,787.727365741452,366.338161235895,548.227715334566,12.5390969674001,763.855254916696,-12.7710737316864,627.947334571204,149.361014428369,267.707768393254,26.0559040435975,821.275017168498,-56.5944564361801
78.758948670469,16.9385730750988,278.590452977339,38.5514233373066,105.796210972795,6.50268003778329,456.485870770733,32.0891940109691,739.020516816918,40.6999255420946,285.254546768826,8.03654078211711,1179.87259212356,57.5638905210582,283.763806082788,-21.6063170202724,341.466860512186,-10.8939033901632,826.009144500043,369.480302542045,559.405741292696,11.848651106671,778.042922725853,-16.2442303894276,645.781029043523,149.00801547196,271.739857934773,25.1838531448876,841.608009315083,-63.5188752215925
82.1962305199074,9.29206909829978,267.392386386899,38.4936289434606,103.940225010245,3.81622482540844,443.404964288264,31.8404880756853,722.209696458015,41.2048351597503,272.101317294245,11.4777852250591,1160.04876270691,56.9385274871539,277.95183394373,-21.2388643806846,334.553315570979,-9.06974382995724,771.496578291049,363.25151919997,538.90322731052,14.67502749574,753.302495201638,-10.8989671584182,618.638654155467,150.165178148797,267.041125385951,25.8216103582213,816.916392994794,-59.1566365451322
82.2787528973519,12.7092044558922,266.553673870724,37.4723877302014,99.1956701594367,9.5943376098842,437.854356634897,33.6105892051964,726.013122809448,41.972261274412,280.561709223067,4.67354273363268,1167.12516311632,56.4115692169274,280.174273877904,-22.071207286485,336.270178672912,-9.36383648583692,789.478260655778,367.471913345007,548.237824330528,13.696594580603,765.112699835538,-14.9173488514965,625.365659763871,151.584950114638,267.559623303704,26.1511089267992,829.897591678677,-60.4113484294441
81.804424156598,11.7298033725427,280.303411814961,30.3883771491641,110.121727266727,3.56395988295476,463.40248836953,21.1403856955903,741.823831366032,39.8808703414006,280.231440336522,7.07855001505386,1185.77303711498,53.608611627821,285.780818979446,-22.7441828019867,342.000295322753,-10.642164746242,828.007842923823,370.017153312815,562.753017521324,11.8589197487841,778.089977148202,-14.7302428305237,645.466301742759,152.325164277242,271.221772456829,25.5412660276969,850.037657742314,-67.1578761623378
84.8822609503128,9.60523136113163,269.077414652816,33.5616463604189,104.859782479418,5.13597994642085,450.900742849522,23.8381604422921,722.749367849781,41.7148010473565,274.154987805187,6.7869251021172,1162.35191854167,55.9242891962401,278.532703863406,-21.3634622804992,336.929688255409,-10.0434334787852,780.20153627445,361.784291581936,537.911716781015,16.2512928276489,757.124782862136,-11.7512078722162,617.47788092397,150.187881217866,267.025430107585,25.5195165750729,821.868379205464,-59.4800039422699
80.2527051805242,16.2907311699118,276.898019700021,31.1514515202041,104.333788324065,8.09742057041682,449.651668194592,27.1646033005716,726.25144653803,40.9443306459175,271.758544361478,13.8771377789327,1164.12127634502,57.6915250730751,279.614201080374,-21.3473407847546,336.654802263929,-9.26232356436547,787.24592576709,367.714325006767,546.240420980688,13.3565069987071,762.735815551626,-12.5958979480566,627.76654769747,150.676664792442,267.860819573439,25.4994565408289,826.64617802835,-60.0606535600717
86.6383963416827,9.5739396997227,276.61627544966,34.9064571574653,108.423066121298,8.31278018849976,452.212122014638,27.3087133753793,741.39927349065,39.6572950847839,282.261683769634,5.69557209286232,1181.1412085636,55.9480338151123,286.108772127615,-22.7538530818649,344.544482946963,-11.568512942492,825.116282263765,371.656104062779,561.373641301302,11.3293202853067,777.681767263885,-14.5073742226386,644.138672355596,151.808620254295,271.59606964415,25.2745823118024,846.027117205079,-63.2070477099287
79.986493344889,15.1207710204955,265.39811225903,42.8580325149357,101.053773568825,10.789114400856,459.589744889059,19.234320409495,726.545250188643,41.2308497013648,273.06362644469,13.6268348388637,1165.41815713777,55.6177612830615,280.622534567406,-21.9381399163728,340.255073154961,-10.5611626128492,777.863712592658,365.744415976321,543.314787384617,14.3471827855098,763.519044543113,-14.0410289424498,621.257353463367,149.162830503178,268.003215982104,25.3502134795147,821.598089392202,-59.7515861176211
80.9593014380692,12.5075667221813,271.907466523639,37.6538645197902,109.811713568128,8.34060648037808,457.620045340353,20.8083454809628,728.328064513903,40.7089485190791,272.587059207325,12.145582506928,1171.69595103208,54.2297680109061,281.408158629518,-21.849572847896,339.452046848147,-10.3270881507388,790.377800462163,363.959008720357,545.859220989608,14.8265477303039,762.941555117339,-11.3306082298487,623.846755451287,151.851093016547,268.196665008623,25.6099399154829,828.193686954986,-60.4396890540509
81.4586434708083,13.7235753600052,276.666805936014,35.4676821524805,103.103540262571,10.4976353984326,456.881833621712,28.6698858485189,742.970353168884,39.5936786253641,280.50458223539,8.16095911313307,1188.53047882402,51.5829753805533,286.900271442349,-22.7550189905312,344.028667791076,-10.60309051047,823.404026238846,373.173407948825,559.779664698765,13.4626795434696,782.801090995695,-14.9188446707765,646.307577864572,150.880663870485,271.690415214946,25.7946006897136,845.770282535052,-63.4819023560196
91.199271682621,9.3578132224656,277.855879280981,39.5736186547326,114.348855537675,4.77280663622163,471.793405139566,23.0358253386631,744.629835057853,39.1839189884701,275.499150683724,13.3378145043823,1181.79190201576,54.4261734511141,284.995214172823,-22.4869529754978,345.281494761088,-10.9618334560174,795.94152301991,366.075620471847,549.90887430684,12.3089205689763,770.656119489315,-12.9670885879695,627.751614878107,150.000013424061,270.935866256264,25.0915645358573,830.143453865109,-61.2100058216949
75.4322812442217,19.1805898862945,282.989144915645,31.96209364626,109.871376811769,2.78205744264937,433.842283453703,37.8849004681634,732.743268538415,40.1266714817932,280.674421126338,3.6690240438734,1178.46078055343,52.1375130076037,283.105105793761,-22.4742613125673,345.149583864758,-12.5687450460216,794.921153701752,367.336850896852,547.72804442397,14.6952707117734,775.50662301765,-16.1564469870971,628.75663659448,150.991746760452,270.084107847248,25.2560153662446,830.172904776787,-63.2659567521373
80.974192732827,17.2425633940135,286.458568193851,27.3979898677845,107.603054487428,7.47231567716312,462.485084001701,19.244388726578,744.320226337363,38.4424896923024,286.263422622007,6.4704303348118,1194.73115956822,49.1563508050648,288.260555815303,-23.122995416496,347.373090807885,-11.7447487439781,825.077790356287,371.017279637187,561.710096807678,11.4868273647099,787.343587984078,-17.1092980675703,645.554762925567,151.609204119448,273.703129625178,25.1101361234245,849.067860579441,-66.9054049876614
83.0401444562677,11.9779258251312,293.450672850421,33.000170666117,101.285167826998,6.28720983244356,450.389190504107,34.4470797911219,744.625826109807,39.4449249302817,286.449046087959,3.45133285489503,1191.83412732279,50.1397470489999,285.520833393128,-22.7937821817252,346.35654471703,-10.6451751275136,796.96829313302,365.381214704349,549.614089697202,12.7708535257329,773.939143950973,-16.1095340204291,626.047289455612,151.441463329945,271.457449237113,25.024225635377,834.161851000354,-64.6204724833341
85.5791228099008,11.2759072681619,281.896406536283,33.3587029226899,100.438933461796,11.2876206794664,445.323613253937,34.7767682739272,735.034450420288,40.4381861357572,278.731292679462,9.50901853682363,1184.08753508934,51.4958673338899,284.257095964561,-22.4981706201284,344.747032734882,-11.1427759715171,794.657205056636,370.257890003355,547.485938231481,13.775118779078,775.933715728077,-18.1478941621072,630.01567090894,151.551158756863,270.325230152432,25.5799011992802,834.558089944971,-64.1416683229583
83.4304609236955,11.4428373726176,288.143120158948,35.8578228311155,99.855623390633,12.9437423517266,479.406823703959,14.3685246641259,747.176449309146,38.9607889911733,282.772732397284,9.2377718525629,1200.25532252863,48.1157631418907,289.087408152901,-23.2835701602966,348.901379355132,-12.8435285006655,828.783997642617,373.554642632249,565.905146622239,10.6132521350785,784.282002658993,-14.9867111219777,645.462797623433,151.265080634256,274.178116224403,24.5673380398511,847.495606807624,-65.3865812990742
85.9109298077605,12.9203196081558,276.763955309799,39.1615149378046,101.880153628216,10.7794028908354,473.840847037941,19.1318219643617,737.748171634088,39.9583419184467,282.674237040949,3.18084582153326,1188.77907312821,49.5662947624121,283.989529616101,-22.0176720106759,346.996825429289,-12.3445751231446,793.527584801322,364.99572156406,549.667387269452,12.5911319688232,770.04044546724,-15.3266697762002,621.354914225668,154.007395529911,270.66709075261,25.0881338178152,829.344031329222,-62.3607431437085
82.052719279404,15.0931393893828,286.221207483669,28.8887121016614,101.988741363168,9.90922326633888,447.793366882311,31.7095571037831,736.704168703778,39.4174140119692,282.649191870356,4.96693988025974,1179.63185036148,55.0129843352905,284.166583606377,-22.3812945475893,343.448607203317,-11.2975997947926,802.527109789224,363.908205259077,552.920330590824,12.7217386579949,767.103157689111,-13.9008932306148,630.202067704237,149.597266942334,270.305228924256,25.1964755877571,834.450827907684,-64.4261870948551
86.0172578688782,11.7791144116391,284.710278169404,34.2660217611631,111.395685535196,4.36862471587537,471.67585596136,17.2465914306462,751.394811719274,37.6342548656761,287.057846417972,4.10414707577319,1197.90105407047,52.1127281778894,289.628362649513,-23.5705794645235,349.850615510122,-12.0660092356118,835.519576696834,371.660853313749,563.212369614157,11.7878207721785,785.027978978534,-16.7155573649331,647.704608025623,150.70573416391,273.207647068793,25.0944223753215,846.937038977128,-63.2916800854866
88.541343105783,10.98690129593,288.969380366422,31.4479255473366,109.228408110811,5.06470419328288,453.014689369871,30.8739813893947,738.027124367645,39.2230570918288,292.274780161087,2.72272587134006,1187.6553686542,49.9250870673276,283.493440517408,-22.3080934245965,347.184715220586,-13.5966829199131,796.491830776127,362.484568882928,547.932610870973,13.3570755001048,764.825181492397,-12.8007285264018,623.803732818045,150.805873287815,269.062135689643,25.6115504197023,827.441187309056,-61.3172766129845
