820.918312147613,128.334503266471,376.271435635192,-25.4305241248506,1143.81982123581,-58.6595106416081,245.636794914399,-41.1829951080913,1238.48566001173,-44.4098488269232,1393.91914080893,-86.0726295336611,326.132076557398,-44.1868278949831,2261.00593923768,-468.076714774681,1080.9907018882,-204.969213173781,693.532173391385,2.60400465482185,1652.18868798816,-351.028286269672,612.568822875789,-112.182320348833,532.40149580568,-53.5754356416688,483.775719378407,-14.291984984213,1717.34220528371,-440.564835376897
812.695682989984,125.757779392719,390.740327789384,-36.1157548340473,1137.30555511617,-50.8778266603289,235.203532230701,-37.8055974110914,1254.17125033405,-49.7320285702628,1396.90686843121,-87.2807365886024,328.244857922644,-44.3917060774497,2263.41998725782,-476.157248193403,1088.43998147719,-208.548647159224,717.083169124032,-13.3611862547209,1675.3223161935,-354.234135743491,614.172662321896,-113.162634922502,526.883030208461,-47.5306611949179,488.601451467739,-15.7548984245671,1737.76410945285,-443.257180322522
825.234385305042,113.996519837562,382.048080437842,-34.9446836511545,1149.56479382943,-59.9300249736257,253.911275989476,-43.6671159091332,1243.59855592659,-46.6926764551414,1397.64366310875,-89.1882939726946,325.222259762366,-42.8464833686561,2261.98335716223,-474.008233669675,1082.90963614026,-205.136044527071,703.416500123996,-8.67175408794467,1672.20085656032,-357.701823718877,611.654892237494,-111.99651654804,531.728279993986,-54.7232796901743,486.387209219735,-15.1641161623806,1692.32201947317,-426.999934043911
824.411405006118,121.130330414415,381.880897659023,-27.8937642629885,1164.14429053151,-61.7043895774706,243.333049690329,-45.1165117150769,1258.22004929718,-47.9480615223378,1406.09533540836,-87.718452653461,329.40424678188,-45.074086026022,2272.26250833443,-474.607290412135,1106.8327777419,-216.73499909495,704.469110503187,-7.44432083576654,1680.60279998682,-357.15435641629,618.465350221671,-114.039686084567,527.351873575966,-50.7765804280926,491.031658252053,-15.5159201324789,1723.69106804231,-438.268057784938
839.030857450612,116.076201807403,394.134899789886,-35.4613158931229,1155.42239520219,-57.4796030777978,258.215544926826,-51.4697116155275,1282.36537647752,-50.6706913853618,1432.99052642978,-104.145605085718,332.657195944064,-45.8426747773893,2267.18930460766,-467.919378453993,1106.43204558787,-209.338710819872,718.334576735804,-10.4308872267447,1690.31308767598,-366.748691715617,618.627749813617,-114.26630379773,524.860890394758,-50.1230314496416,490.984901508117,-15.5381302362759,1727.03737746392,-442.579537641778
828.464061629312,119.265895662494,393.883010585801,-34.0518486092113,1154.39407465381,-57.1751914848862,235.858246812848,-40.3700930712617,1264.23687465364,-49.6156735574668,1400.69898418153,-87.1017645044802,330.492030804142,-45.5442523288793,2275.24636052493,-475.074706359352,1096.04019596861,-212.753821604205,708.381372209139,-7.23694996456571,1690.7576674495,-361.045768346664,619.81668881442,-113.708080589818,546.91299706164,-62.3648332367375,491.67212127085,-15.9169255799034,1715.04019942344,-431.209284943417
832.106194384127,116.805870804383,393.198535316026,-37.8186922055798,1156.95410382658,-54.3455837879465,257.162369215485,-53.8019403687845,1282.61161247785,-54.7757448254229,1429.47027024998,-99.9756136166265,331.02643917076,-45.0179631746181,2279.49807844227,-469.640335445883,1101.28471819267,-213.538238234303,714.873930706067,-14.3348437802663,1701.77583470507,-362.233834668153,625.594066339687,-117.160772812374,536.58094533914,-55.3635108955219,496.497671939531,-16.4548006759267,1743.07088284607,-445.856674136583
847.690184998252,109.821233825646,409.601529612272,-44.4352880178347,1168.61088207795,-63.8388945000291,247.242437656812,-41.3364609129972,1270.97357219491,-51.4535368875325,1410.76143625285,-89.5589751752774,331.977776569154,-45.0621357348557,2285.22574675223,-463.293233096595,1100.10961970753,-213.976580321631,721.458631455687,-10.6490929231731,1694.03425072567,-359.372313020389,626.473631351932,-115.565506398615,544.945905932347,-60.3528346432075,494.647785638791,-16.0894281122095,1708.21167845927,-437.613464035104
832.805096601264,116.165375246923,404.104836395919,-39.237743102737,1163.63385431719,-63.8457196373246,243.708633827904,-38.9724359218972,1270.23888064021,-48.3519678941851,1418.95097425382,-92.7155748130507,331.029133581325,-45.1512244084024,2287.37659895087,-473.696967139398,1105.22691827587,-215.169095611357,712.75621106868,-8.65776781922668,1693.56196181047,-360.94393536257,627.092543033606,-116.058714441365,536.300328428177,-50.3407412288617,495.946883712545,-16.0478264235291,1728.47863915958,-440.99190617244
851.278816277278,112.670811586967,403.640524221409,-40.1350901753508,1177.34226024189,-67.0942561106271,246.562086493256,-39.7003695429666,1298.50459563167,-55.8548865469689,1424.98232975141,-92.6022709465251,336.47431663988,-47.0145457740986,2293.88739697097,-474.267638532046,1112.43118756419,-213.749854140339,733.277013858555,-13.2788863543208,1717.82925175355,-364.682250779806,633.221149029024,-117.322382459919,546.481094083894,-54.4320528627411,502.385572520441,-17.2051793188547,1738.27566582536,-443.322232700377
832.10791709791,121.387396611397,388.892966799206,-24.0829467317905,1166.33616184118,-60.9698821613923,255.810432281474,-48.7568005863605,1277.4208522525,-49.8299109108807,1438.36914447549,-104.631794917019,333.359494138869,-46.7912565413805,2301.51665497557,-484.668414995031,1124.79634974411,-222.322757204802,717.65252946929,-13.2899063179917,1707.42886540961,-367.509314621769,636.400339958399,-118.759132169723,548.698954704865,-61.2549719310111,500.704539411703,-16.5948020425471,1721.54550302384,-437.272461847129
844.730901065974,113.574186197401,397.247264800897,-33.7959909272374,1172.60157914031,-59.7026578002643,243.465811106485,-44.0450580223616,1287.07951637026,-52.1343542022023,1426.41317857271,-98.6268347374686,335.226723714395,-47.3676857668875,2299.63639817028,-478.490673967366,1120.14996749132,-217.265173846472,717.368097450341,-14.8471243074114,1709.61494098958,-359.916762242665,639.331148610881,-119.602162590656,546.358961841858,-56.2137323617133,504.032343323336,-17.1997893997658,1738.77919274031,-447.490686967649
860.602472205253,109.399581158245,418.155136941543,-44.04906921095,1170.17077086438,-55.4202274663727,251.557342871732,-47.0530345994274,1318.97207517424,-57.9687503967899,1445.20990791189,-99.2821883261281,337.202138233184,-46.945253826164,2324.15709754207,-493.01910684766,1143.79164667558,-229.125998872739,735.790292556144,-20.3164553030757,1743.76044363317,-378.617372108277,642.930366446036,-120.727493539506,552.972520676688,-59.0967632256107,506.949589236592,-18.320168962891,1747.36902975933,-448.093944161144
846.079254976176,120.346691210306,405.813683971139,-36.8288958059692,1165.80454701145,-61.8147196282503,254.786980974533,-50.2718595717551,1295.24942847821,-56.6666032851173,1432.44230489152,-89.7575649819545,337.030169905972,-47.3202218868391,2318.72583135395,-493.648453493728,1136.52657088838,-223.513755758396,724.956235606787,-10.5182363078472,1731.00307960906,-370.032583645763,640.169798624172,-119.192231651298,548.33809203164,-58.2046493708837,506.056705185156,-17.5484441760422,1731.48817105814,-445.174303335287
862.54593849376,109.819954593957,403.959437737907,-33.2322244368999,1177.88042375437,-61.7126713846159,251.794380672329,-37.9255440813911,1304.42849052011,-54.7673669700252,1434.92214863499,-94.1631621880618,333.768089404918,-46.147327039091,2320.784285967,-495.513913358412,1135.81215326853,-221.01513930298,721.943390381568,-11.0013688456712,1738.74749825515,-376.872077840325,639.934855619975,-118.192379679037,555.051700715108,-59.9951289975154,509.294009043076,-17.8675817795304,1771.31774637109,-462.73901692476
862.730818206222,110.778860776682,419.410039823441,-41.2214742487864,1177.67372720659,-57.3199139459167,258.320132523408,-51.2269832304965,1312.02438242181,-57.5266531542093,1442.81402914131,-96.2074545959197,337.624712842301,-46.7055107210259,2329.10702497394,-483.310724441663,1157.30834486834,-234.410913054282,734.970279630737,-17.2771653552078,1726.97536628134,-362.677048860214,646.307121985663,-120.647519635425,551.129674989036,-60.5734771133726,510.137047410037,-18.8087647596648,1750.96874966094,-452.416905421607
849.983645990615,114.478110571534,414.481488075442,-40.6436054366381,1179.21460586682,-61.5950230861499,248.253998310494,-44.8791504094495,1300.6898661249,-53.4522446254941,1442.83421887051,-97.7736781463281,333.853882336054,-44.8218740239451,2326.04556494013,-488.592398129404,1137.42107899175,-224.340174690425,714.499586308369,-7.39674570905398,1728.62006857406,-370.843501345446,642.897210402041,-117.920248428525,544.830900008302,-54.2616873776287,509.990203415663,-18.2803265957916,1746.58857256776,-444.59034857915
860.201788159839,115.250417981019,408.093221015418,-34.4394608700673,1173.8861625735,-50.1210705838303,261.965735785508,-51.6062008215613,1318.89806831457,-57.3600972662311,1444.35903375848,-100.00523893266,336.594733099333,-45.9383409099531,2329.6146791395,-489.743920802458,1139.77230263461,-224.511050815937,730.989418803624,-15.6837379399284,1748.2632836296,-369.248064502548,648.253991162986,-121.694690613651,563.298585490422,-62.3342021987799,514.353173877945,-19.22572697804,1760.2438869331,-458.428944972783
864.763402595298,115.657722178464,399.28006080242,-30.598108388337,1176.88192145989,-64.7545714895551,260.034214660781,-50.9966952062996,1302.74043471823,-52.4166965998035,1450.35129064647,-101.960500169632,335.765900102132,-46.0707058991662,2335.88612743139,-496.018977576211,1145.02643967864,-228.816581494699,724.563112903061,-9.75657538795639,1739.70935953719,-371.010619066549,643.67936577866,-119.845235408137,551.521471800506,-55.7656190118242,511.07852234526,-18.2451838536702,1749.33234066855,-453.481138263511
863.331400765055,112.94635469375,413.010619438741,-42.622989829904,1185.46989883461,-60.8802715849491,260.104113138957,-48.4871474874741,1309.92478777805,-55.8521301927343,1446.75586470753,-100.802947208533,333.651387935109,-44.7476335081002,2332.21655217736,-487.252906221505,1134.30278194436,-218.11897741302,730.563730885719,-10.4689112274816,1732.82917567474,-369.76103838238,644.502374404584,-119.787652100103,551.728361007232,-58.9138626271505,513.256428232139,-18.8838656460624,1765.76702055739,-455.000093993151
852.181664306547,120.843266290961,414.633696354918,-36.9714947289163,1181.44452397889,-58.6311082988962,262.08055407774,-50.8760765728728,1332.06619768094,-59.4090794984909,1446.19581036538,-95.8886960561068,336.859248022688,-46.1571102016137,2339.5893094683,-487.178907830753,1149.18432475406,-224.070989518679,742.769179636664,-12.4840856530427,1745.61133556084,-372.23994489068,650.594151794733,-121.577773413901,560.190179585423,-59.8798455899922,515.459844866291,-18.4721884919743,1765.38276070608,-451.756861437434
850.288183929467,117.855625551633,415.365866332046,-38.2123771766842,1185.5731009203,-61.1540294326973,246.169894860729,-44.7285432998513,1299.42133555746,-51.247739011443,1450.99591576224,-102.894214178751,335.860369645944,-47.0460441218629,2338.10589191056,-494.16476125918,1141.40398645112,-223.791462575478,731.929013587652,-21.0478740354514,1727.77214916867,-370.235977920511,647.243275250258,-120.157383783752,560.464048215843,-61.8739302250226,510.925554639326,-17.8919850962622,1759.90340322328,-453.030939952072
856.320030051215,109.469735175889,411.070094597992,-40.8119340085831,1175.84569523701,-65.1733865060759,254.548272053115,-50.7473587664834,1311.38397571964,-56.1328927786392,1438.30790873643,-94.848044238869,334.210658044332,-45.8508751289186,2320.94983406926,-481.240616249753,1141.16342693929,-224.044037198857,728.253671279292,-12.6856823315807,1734.33562361484,-369.864551527833,645.892574627982,-121.035274876467,545.350617328423,-54.0484349690058,513.859646683393,-18.6803706011415,1755.31550990033,-451.503709497466
856.231204947957,119.969356839293,401.633397812353,-32.0695729659024,1199.54183959013,-71.9783880829396,251.792799630738,-46.6944127477708,1332.16791970562,-57.0620134656545,1456.5223675473,-99.8384191248672,338.750241625266,-47.2329554227445,2332.25077138404,-486.907891325149,1152.53367162574,-230.325220171598,728.893125895423,-10.6887899864863,1737.62548909283,-369.518998113222,648.495914558855,-120.856921773899,546.486516769864,-56.399372041004,512.859919717715,-18.1937525734523,1740.09821019839,-438.149043792366
845.969669363457,121.595156301547,403.820416218656,-28.2869948590259,1170.86804940225,-59.8233957435239,251.146759349647,-45.4007006424209,1301.89662696572,-51.2226073538934,1437.06706337038,-97.5308038779411,333.044477990698,-45.8159502203008,2322.23968879537,-487.37863894636,1144.21541631108,-221.803853637193,716.614125550867,-5.09816740730485,1718.49613982048,-361.763844516889,646.484918838969,-120.949334078828,545.500669801969,-53.317911814565,511.658984939857,-18.3074042560848,1755.62219564657,-449.897796738707
849.199683445683,116.870420223594,414.198161191926,-41.6640642232664,1189.48438914411,-65.1040983775882,251.271837380806,-42.2342979761149,1313.36309202026,-53.6907801044667,1448.92423823666,-96.8355569646847,335.772503611409,-46.741578634585,2327.03682435459,-489.159255779181,1154.2705166978,-228.992520320362,725.838469440385,-6.05502695922883,1740.85304516008,-374.982027362872,646.980671505692,-121.03364580421,550.156781492157,-55.5851994995842,514.475986380545,-18.5761102497427,1752.10478038752,-448.392426617087
872.782212168898,109.529640836768,406.005185192914,-36.1185943304086,1180.94431472905,-55.0190792173518,250.888975295466,-43.9318320963157,1305.30803799217,-52.9367900237971,1455.09463093855,-105.538844816113,334.59471996902,-45.7910116084331,2342.90971375421,-490.577791986574,1146.20786179035,-226.544420970438,717.916497326268,-2.70526365889293,1738.19580770408,-371.756818247482,648.711183121419,-120.695372472477,566.085078364846,-62.0265331236941,511.88863001867,-17.9696068668499,1747.19421042032,-450.635395423852
854.990442349797,114.001375932492,406.909700745909,-33.4126795086407,1179.20266319544,-61.6377872689985,242.252938296691,-36.6860617654889,1302.4993007135,-49.6592244451694,1441.65593696276,-98.2246926987373,330.931023043261,-44.3908938132035,2325.55213997546,-485.355430766602,1132.00911832227,-218.066512753337,717.447552877152,-6.55726311232118,1720.59482484048,-360.978427187128,646.898629045744,-120.242464444345,543.658537448866,-53.4140175466261,511.163886665398,-18.1013446374732,1734.18485088413,-444.78993068711
853.000562322208,116.281459687481,406.963121258025,-36.0662836008729,1179.0810204626,-54.1246456319526,248.437330052208,-42.3803980634632,1326.991579142,-59.0628002619839,1449.7888407635,-94.4122588375673,333.908628450003,-45.3983752325878,2339.65976780479,-489.744001783486,1143.30646427436,-222.668387032157,728.931877094881,-13.1165921951671,1745.44152165907,-369.108731659392,646.536237154522,-119.694433723886,561.527945046565,-61.0486648286199,515.812813997145,-19.0401391672165,1761.11565303044,-453.39426415983
852.752504844166,113.093001101113,401.004251324243,-30.4783417429414,1169.09706398239,-48.4534902135375,244.693151279623,-42.0188315386081,1310.95744953086,-56.8824095436917,1440.13731728979,-98.2519186895841,333.337238747461,-46.1431239328958,2326.23443388237,-494.087079458659,1145.49637547367,-223.99174572162,721.676222279805,-11.1861375576147,1729.81307626861,-368.200195648629,647.10756498994,-120.377853564989,538.751665066214,-50.4348996724004,511.145251307543,-18.0803750424366,1742.22162456718,-442.804245700122
862.940965529633,109.214594511532,398.552229447739,-34.3531983340154,1193.79770279596,-65.2037114354407,253.807467452754,-45.8698906181397,1315.39586086376,-56.7438600034101,1430.25320192399,-94.0822586189988,331.930554296138,-44.6321234791575,2331.82636383889,-486.378028644466,1144.43884635579,-229.334988605966,720.412768072157,-11.0967042375399,1744.10473125317,-379.246499271265,646.006781664241,-120.677169788131,549.661441859004,-56.6590776349176,511.515862357079,-17.7284012294043,1753.32866518626,-443.510917994775
852.193401888418,120.044297608218,409.6958082928,-40.1421837687104,1189.57408111096,-61.1255214882196,256.495685425781,-45.4006380371606,1338.72076016864,-60.9828636976482,1442.38365754725,-95.1668395532257,333.661754373708,-45.0837890255073,2342.0533956272,-498.05545055735,1137.50865901775,-221.074981534833,730.886444768628,-11.2485510261467,1758.44403622577,-372.247232895948,649.283240336667,-120.68286744514,558.838304394483,-57.6657326489573,516.397327809918,-19.3004772561945,1766.94700117594,-449.894297422352
863.579953447395,114.152233946755,405.460467140456,-35.9237600824838,1177.13369788314,-58.0679925485684,256.964420408727,-43.5099099268546,1314.17075278138,-54.2483085762695,1426.50161418413,-87.8289691378393,332.793224836707,-44.1106272020095,2316.36656494308,-479.458742438692,1147.93367295984,-233.862718348616,731.647178414854,-10.3334463281592,1742.20441192355,-372.289462275673,645.137143583742,-120.705038228387,549.645756197669,-54.811880062217,510.580665870704,-18.1143004858449,1751.40496764385,-448.681304342853
847.950293056362,119.820196611357,407.297442997545,-38.9060715635312,1195.67792457676,-66.0557332215656,249.462082057166,-41.0715786131907,1324.40852073439,-59.148448468844,1431.71684556519,-91.805880781486,332.763086184936,-44.8984259073683,2336.773459187,-499.833003198967,1147.72374974757,-230.084633194322,725.68782751859,-11.3861596050609,1732.89897238131,-372.813309829226,643.40577633645,-119.096278312338,556.454711789405,-60.8888985840238,512.396142735747,-18.6011511601254,1772.77632794196,-458.798212398605
853.669132865971,113.651191186249,413.163467282426,-34.8946748474784,1182.32519609512,-49.11576330251,263.847022427116,-53.6988623380636,1346.59675766834,-60.9710800038148,1445.36711570484,-92.8919530089918,335.773904283257,-45.3796293516904,2331.42030657824,-487.97966159188,1139.32668075691,-216.881870423097,737.003990308127,-16.2795355368578,1756.22509290872,-372.771222917321,648.97454500989,-120.517555385471,557.877089583002,-59.3643463310599,515.788497775433,-19.0664921279169,1772.44134276884,-455.220226988912
848.41323622264,116.989004208092,405.073093714494,-37.4932800794209,1179.79736537207,-59.3442644429495,263.067989045887,-50.0779738630851,1321.09159037096,-58.4003795464056,1427.79965444248,-88.3429124181264,332.359998872106,-45.0050503816764,2314.27748066602,-475.411865278044,1123.16061078154,-214.042540383718,727.585629853274,-14.4921773743203,1739.42778401415,-369.862472958867,645.698424532429,-121.350188524416,548.359491670842,-58.8483205804717,509.995978343015,-17.8515045893934,1765.50804838943,-462.049862000354
848.222874509504,113.399360434746,417.528340042764,-38.6827043421755,1173.52853748942,-55.2121978798643,249.39085550717,-42.7938646273464,1328.52904054731,-57.3526448303874,1442.6741675116,-97.86703631268,335.202162735873,-46.0637698877879,2323.06029063008,-492.650407318378,1146.06774397464,-227.535588790302,723.080133826226,-6.93131038871983,1752.97793253426,-375.959786980571,644.455187187998,-119.256587651119,561.770029220469,-59.5202054413513,511.188750376627,-17.895358744894,1747.65510959914,-444.03545382007
850.828875140314,119.020884836182,406.916557769293,-35.1708297113304,1185.91818588534,-65.1144095062185,245.698120940539,-40.8480004816692,1353.86424432415,-64.0998779815269,1443.82746996401,-97.3825605599764,338.117922920953,-46.4700233461179,2340.08664937759,-489.043911529581,1142.67229020175,-223.949437464036,722.548615713381,-4.10954993206698,1753.75953747994,-370.170484276361,650.636811708655,-122.623594113497,555.887323124769,-56.5362772233716,511.737615752231,-18.0602238063598,1763.45185700263,-449.802039333303
854.204481814926,113.461505034348,399.435927199075,-30.4502369894909,1179.44672327047,-64.7003499683531,252.125235466091,-48.5597050364339,1324.25054105352,-58.5511212302827,1437.21133170224,-101.13480026546,333.063710117677,-46.2882452062633,2311.31805131186,-484.1715173185,1137.71841732612,-219.295246478931,716.578999798394,-3.34640817729144,1738.56617475719,-371.731240250862,642.539046005208,-119.893101352039,551.340179088385,-56.2487643767559,508.687953646863,-17.623229951916,1735.69897760289,-442.548908000989
855.014320848834,113.963013031818,410.40877890607,-39.9435467381526,1171.34181387153,-56.7028447578393,255.056586905225,-47.0787152771994,1341.74105529393,-66.7474373413393,1427.41302814401,-91.526694430427,332.969123334059,-45.2947309691596,2333.93039536498,-487.311267366698,1123.36116377158,-216.269053222478,743.678919022559,-16.1025827210603,1757.2353380479,-379.08351037718,642.858966852219,-119.583377743713,554.437564678266,-58.0706506233726,510.980079185344,-18.1493247201957,1767.95306845814,-448.531671903284
863.128528351816,113.004177325808,418.910572263241,-37.7628864330463,1188.0276843823,-61.2260274022028,253.0201594981,-49.1661602451685,1358.27235937312,-69.5345196497446,1452.50534862818,-104.331425145816,335.428838660603,-45.3119112168573,2338.36996813487,-493.036519677231,1144.56610525521,-224.473528594202,744.727870209943,-19.3249214201916,1750.31572873681,-379.423079686717,643.30399193459,-120.093961373949,550.623323561437,-58.5205071492341,509.745560943645,-18.1616522589354,1747.69786933064,-442.829245320571
842.28773315032,120.560338992041,401.272063138427,-35.7953886918679,1183.56506803077,-60.876899806683,252.649822872229,-47.673201751394,1329.20087749138,-62.8218512188813,1417.92719989544,-88.5735730480092,331.957917850793,-45.0993526519509,2323.06007967041,-488.271805965777,1122.97084387213,-214.079361109646,730.109083563401,-12.7690622516786,1747.24255456664,-376.828776298928,643.144285418078,-119.563373959701,551.524963394536,-59.9132111425041,509.200743465815,-18.399969201207,1747.0564714347,-444.140117828559
855.79835913244,107.595423486289,411.931172773844,-41.9860389032669,1180.10096672297,-60.6859117617697,263.173158270379,-52.1084360796273,1344.4612652857,-68.0015806994463,1428.12973593279,-99.7193014595106,334.193430516802,-45.5151632348511,2295.86853130243,-484.309006198185,1138.78478057889,-225.627395762494,736.34334989909,-15.0196970584719,1754.62256542415,-379.231637183522,642.530019808976,-120.46965367079,552.065027064608,-58.5575175034779,510.345836486515,-18.7790455229359,1779.79778965523,-460.632171250084
852.743531626455,111.720570414361,411.517229475078,-39.3366032083877,1187.49403757518,-58.4952212611348,258.240113623877,-47.0748863394799,1330.19952725078,-64.921946930698,1429.34970648554,-93.0693112892901,334.260019601606,-46.3675779836265,2313.3221875871,-478.785368561974,1132.63529007024,-223.938193005809,736.06489450356,-12.991607658662,1744.01704564782,-372.66912371932,639.672408638799,-119.896465716652,554.473443600571,-55.3328360213118,506.950664386053,-17.7316918679847,1736.42017460986,-438.807898721726
843.669013745458,123.05827261791,408.287809199628,-41.6420154853282,1182.525969109,-63.1375149923718,254.299111419999,-45.0990003281592,1326.91770310077,-64.7957133231919,1415.42423909638,-89.1537263289994,331.537988114756,-44.715694808957,2317.22773533874,-489.000394452139,1117.62926794793,-210.566815102109,727.765098997722,-8.5789293805941,1740.07154301497,-373.206858917257,637.474611424682,-119.112386358185,544.183123214042,-55.2326046586258,507.088122723367,-18.0655389071787,1756.91891331253,-449.847174529035
839.544099988804,125.555173114059,407.19376558128,-38.5136211681598,1193.02236791076,-70.5077262258192,250.559912726141,-41.6661825070291,1349.41283253157,-67.9756844937441,1437.91366920511,-96.2462842382133,334.398484098175,-45.1978817501358,2326.27849832612,-492.75224109688,1134.26774079848,-226.290428602867,737.101547595808,-11.2363351608362,1759.71324186586,-381.662011709252,640.729632238003,-120.135951626126,561.143308366361,-65.2846621230313,510.012695944776,-18.2433890343698,1767.39609891378,-448.891433743941
860.718433168793,107.268993925227,407.074289246215,-42.4475192498649,1170.91825368272,-46.5487550178169,252.685442827904,-48.2548407914398,1325.59227769006,-66.7698137353078,1420.74524809573,-89.4377123994596,332.207580908225,-45.9284347762404,2322.40953673935,-484.72653237915,1131.08915667554,-225.463785816493,724.108525103162,-11.1044574211054,1737.6227165275,-371.152838024631,637.230926970575,-118.21752189445,556.987889309354,-61.6038708279431,505.758927706228,-17.5493807697133,1749.13688163614,-442.439319637926
845.436548638952,110.518501436225,399.279811171596,-35.0944293123709,1166.56255546144,-62.2756346242393,256.480469476035,-49.0813799234348,1321.6520267215,-64.5038372500725,1408.94932615847,-84.4139768017461,332.752633290228,-45.670873936393,2318.72635500399,-489.610722826581,1124.63684462829,-220.52272901481,728.229179699056,-13.6494429939686,1728.45293317234,-369.016631008262,635.249266363867,-117.441514990414,540.536366545098,-50.8642661749952,506.035982823542,-18.4785109088436,1756.19878297796,-447.114414741109
859.63535559855,113.297665934365,403.607243070265,-33.76360731293,1174.37055465038,-65.9846650461473,258.500695270632,-49.1426662995771,1347.46917459459,-70.7495508075151,1432.69353680361,-90.1266050136112,334.956137569784,-46.3312376793383,2303.01942432135,-472.990747957757,1129.57965389949,-219.204620319105,741.340429027781,-18.0362945954993,1762.98655966544,-386.802252714718,640.307440501079,-119.821786160877,560.559737590266,-56.135981918755,509.556798271418,-18.6623590583613,1774.16258813793,-449.864706062855
832.753141099067,121.71414954954,414.786772265393,-43.8422403516444,1162.37507143942,-56.6763883429432,248.568657846857,-44.542966839573,1329.8443318668,-67.5849085002257,1420.88892343379,-88.9430413320586,332.137577450621,-45.4946873047283,2304.56232231842,-481.538213891501,1119.75641917176,-217.205807973247,734.55874262116,-15.8491737266903,1743.3344480014,-377.324569792546,635.969854474262,-118.10835193541,553.158096898438,-57.9978484257121,503.646410169304,-17.4596329782078,1775.90645154092,-457.382128985446
844.944162698763,112.467410349092,414.262363387198,-46.669505871016,1155.9759233954,-52.6925315919021,262.992734456749,-53.6546716499107,1328.25969854395,-68.3821391776575,1421.50827014284,-95.556397000931,329.784365050497,-44.0806331381815,2302.45153470607,-488.071245953457,1128.68697843841,-224.964158096463,742.032260765601,-26.7752441225536,1736.36873661969,-378.780196616416,634.154615875372,-117.458930717628,554.208173930508,-57.7871983379448,504.85856509905,-18.074806815573,1758.04410377018,-448.252821301997
855.073105889155,108.601059356794,406.882006031871,-40.1231673513351,1185.07272753449,-70.241374325078,261.074202281884,-50.6902471873429,1352.10601349396,-73.1005320140042,1439.66809548963,-105.589555843183,332.321411919623,-45.0568945991252,2332.61036388512,-500.947144266236,1117.20925848389,-216.028716183817,730.68916354451,-9.13967582575503,1761.45655411419,-379.532423282047,640.128988321646,-119.962473998777,552.838778266229,-59.3492557011882,506.316529856966,-17.5656556548409,1774.1454254464,-456.469104623296
834.417808723387,120.404539676272,405.069978165107,-40.5028590729045,1165.91128862358,-54.9049658586781,248.674390234881,-42.1704058299163,1321.28916320858,-66.2391829618479,1415.37115560237,-89.8022956557181,329.591499222838,-45.4885799173999,2314.64619788025,-483.503590711037,1129.47696199042,-225.742934323981,717.679360970414,-4.7779684242899,1734.36070612026,-376.735886595255,635.049659760964,-118.430993163795,558.622125833823,-66.3337593052715,504.168957939935,-17.9941166767397,1746.39313558026,-441.81336029262
831.975355183283,119.34002855525,412.885455919403,-45.0020470396142,1165.73071212869,-61.8555383365097,259.212561755271,-49.8747371544923,1334.60739862593,-70.9710181034445,1421.03449469201,-96.5255065085943,331.099487040566,-44.4597478637297,2314.62152145605,-485.375166688278,1114.97390727262,-215.596562054924,737.378279207917,-15.0449080610686,1744.14945524442,-386.307547821367,635.211898821301,-117.647118326803,545.719130578385,-57.1953840450048,506.435500403176,-18.4435522087439,1767.4742041437,-449.018505438986
847.317822376498,113.501376952528,418.516147609596,-50.7250593292584,1174.44211825217,-65.1965556694409,250.310227561112,-39.8692109215548,1334.07146793596,-70.2515103987065,1426.11587566591,-98.6541208076577,330.830315926256,-44.0366198133651,2307.97736200383,-477.688005291234,1127.09168175885,-219.709311166898,725.830878889626,-11.8120470089576,1731.1972271515,-373.572477234812,632.288045963303,-116.153250329088,548.171475349769,-54.7443589913958,503.218400847692,-17.7025752733061,1761.45914121335,-445.968318502205
848.209954686406,107.718035974197,401.47641822739,-36.8117141400889,1183.685176166,-66.2949055845901,252.000487912797,-46.3002427945834,1316.57989391838,-64.0434115742486,1399.91204714819,-86.2654825114831,328.831696852977,-43.6686553845896,2305.7175353378,-484.468640798608,1111.58176933208,-207.669052664265,722.672463156287,-11.4607567646233,1717.61980842301,-367.483116981458,632.010713210135,-118.053506866832,541.550432598153,-52.1926014262783,500.925470575913,-17.5137839298441,1757.36886498133,-452.115104577534
865.401291842261,98.672700869218,406.785714572749,-40.0887224936134,1178.06547848023,-59.5172390021196,248.165412406976,-47.8279107576465,1336.02635210101,-67.4612635589679,1414.75220629786,-90.1298811551045,330.818374054935,-44.4488028824916,2319.61360026532,-487.221629276416,1120.17906738465,-219.002742397828,730.975354596802,-9.15547394271618,1745.73161400429,-378.527732223438,633.130550171506,-118.652338100343,560.339722467101,-65.5098601387337,502.934385026287,-18.1013451835919,1763.93749743548,-449.220437329427
844.647826513666,113.838161605187,402.824343466406,-37.0440394785785,1160.68116633465,-61.0368746978485,250.960938912495,-47.3556130568068,1316.48388309567,-68.5787510240539,1413.20968824707,-89.0796927578781,327.330086964649,-44.1187111262702,2303.90216907162,-477.761300755761,1114.78631520546,-220.752236591695,721.992411278653,-10.1721836546193,1718.18263833202,-369.514185258016,627.384803429692,-116.54106263954,547.272883063162,-55.713456154665,497.65999543304,-17.5641071351007,1745.17397878328,-440.406416953059
837.177870591804,110.926525810518,393.810107144169,-40.6425208352842,1159.37859107995,-55.3673851132956,255.898509563162,-49.3117567079785,1316.19767983896,-69.0678115366942,1420.86955325523,-99.4488050187075,328.869509446879,-44.6385133457606,2290.78357429471,-476.57608533996,1109.76972906229,-217.802657538603,726.462588703864,-14.6735683321575,1713.70967619824,-365.880962004574,625.75304951098,-116.117648574149,545.713487692873,-55.5712691605169,497.49047026375,-17.078406586926,1765.94638956963,-448.090125022168
844.786306006792,112.437543178454,412.047552201977,-41.4059686119212,1163.70748919111,-56.6912605160765,258.051764312624,-45.6058135611033,1334.01417794891,-68.2501150176851,1418.80794266271,-91.1713140037901,332.159594474238,-45.9179841337328,2321.8364065064,-496.125516979541,1115.69847254137,-220.648924497042,720.112681073622,-11.4300289636061,1728.46533810115,-372.19428121456,629.176877789779,-117.241737102824,547.897170420782,-58.5321783231087,499.039399904359,-17.7927547716903,1776.89801882396,-465.231789357103
846.003852655018,100.906835392395,394.258388554515,-34.8839359584962,1160.49078727653,-61.9631098244266,251.643122941041,-49.4464381523406,1304.96262989884,-68.613618400696,1405.95292963446,-94.0134885113823,326.202582037387,-44.1030905131776,2288.75663762302,-487.057827561365,1102.27432961976,-218.699499722282,721.564266756286,-12.1488285615139,1712.12428114485,-367.198999846203,622.131905990677,-114.872789158704,537.706413460308,-55.9477876361957,495.012540831635,-17.550492667506,1744.15529632626,-444.972155107689
834.339018860746,114.359947407806,392.020378742454,-37.5843559861296,1153.51608478164,-61.2358905164751,240.912741718795,-39.2515894385944,1310.73404994036,-66.9712438165128,1400.06688870877,-88.5496165706855,328.104198682082,-44.613708884282,2279.72402079886,-467.501616691857,1102.66242731477,-213.187807190909,726.3810680918,-18.245162388725,1703.75862032231,-371.417628852131,622.854738665554,-116.004102019378,541.618871047579,-52.6001532288556,496.447857236373,-17.5770752711444,1749.13027825393,-447.539238782744
836.23970002281,122.168331639818,401.112422751994,-40.7885828029852,1157.57074516888,-58.7773413637252,261.39563072125,-50.8242931187516,1331.99923727222,-71.2577978250949,1412.69387728604,-94.4794587576797,328.702806833276,-44.7946371323421,2297.28830133349,-485.660796588402,1102.35531904455,-215.216929457974,719.220350939955,-7.819205734107,1719.77474121788,-372.171494582635,622.932048706093,-115.785344047389,543.082867266834,-53.2683540180273,496.983934143543,-17.4863684950987,1760.97796812225,-454.726195616695
822.803769863374,116.525233205551,410.057866639015,-45.7618024971219,1165.01689016324,-65.9376663684616,253.153586377565,-50.1426815471411,1304.35028271918,-67.0684859434852,1398.66031372484,-92.2022733768385,325.525870089992,-44.2695703280694,2280.21629703266,-472.800597143109,1098.9813197929,-216.473254995605,719.569416872679,-12.6633582889835,1700.7369122823,-363.466113731472,622.870091188865,-115.740695289095,545.876596565868,-59.3006983757848,495.940528031582,-17.4229269711397,1739.3154114255,-439.335817585009
836.40445338481,108.650823169127,390.47057590218,-31.6740340443565,1159.6369638699,-56.6317294468688,248.794506301103,-45.9371506490964,1316.902995136,-69.1625247107012,1410.55285939085,-97.453022938031,328.138723642583,-45.0189387642365,2287.04334092373,-483.155112444269,1098.43058890943,-213.136439780991,721.195566098178,-13.2660321840083,1706.11760615947,-370.459977060374,628.53945776655,-118.492519722326,541.292334685096,-55.5568079918313,499.176187842669,-17.8384299601917,1756.41488097276,-451.952851252034
837.033550382857,115.086782379718,402.542623195251,-35.0109163993511,1158.19648965985,-60.8448446852983,249.168029312126,-43.1921668059587,1308.74814465937,-69.6198984651729,1396.34814927867,-85.9027704808559,324.674524410753,-43.342648943978,2285.6266916888,-480.310976411638,1095.37679285989,-213.345192617736,708.400336646105,-5.88023581880696,1704.32122320519,-362.902426330575,623.898564213105,-116.817833441967,533.872688330241,-51.599790315225,495.502982236754,-17.48078934586,1743.82966892999,-449.931244016781
841.162565376703,104.086937389252,405.45312945336,-38.6516501853511,1153.6627721924,-65.7811770154043,249.955339681952,-47.8454780719302,1303.38333786098,-67.3730056907782,1405.0266353514,-91.3439375615559,324.20873087616,-43.6901355339869,2273.28532170907,-479.03358113741,1091.78988837814,-208.848939105229,715.993077731438,-12.3315400281608,1702.78306314295,-368.597710090987,619.521778546355,-113.976926662937,547.517922718297,-60.9591363609218,494.432436955144,-17.3083504363893,1761.47717940559,-458.991350080767
844.112029278417,107.508836383576,399.073422263105,-39.3603979374741,1162.18011769469,-63.0561923416309,254.561950773822,-48.2619622093595,1322.87156815714,-70.5393592335189,1403.81222014941,-90.2994877036284,329.082190595793,-45.2928043296282,2288.59296861869,-476.560964791529,1099.27865690857,-216.241400262071,719.823383550939,-9.21510869861535,1713.44146359051,-365.382718932042,623.421334376466,-116.240914950588,555.156948068367,-64.7971639552295,495.248196903095,-17.7956991709778,1735.57810071209,-437.078457445666
828.874840292542,106.294966974654,402.178284414867,-39.6891017090964,1156.25365885829,-65.3397888283162,245.040922582338,-41.894388697637,1292.19121693971,-67.3772747815145,1404.10911919902,-94.625644197822,324.132534992969,-44.4213102326264,2277.8198615135,-480.06284563522,1092.41209165678,-209.062772387981,709.606847634547,-6.70671809764904,1686.99954069007,-360.042796034449,618.132427979983,-114.020690435783,548.985473715146,-63.482035516536,491.270390708782,-16.6523580446437,1718.63205909935,-436.968522531949
836.230170773279,107.197474789479,396.616396206241,-37.6786264305869,1146.62049633321,-56.9654498354166,247.308205601297,-44.1047575638398,1303.42243353791,-66.7630729509185,1391.79969767917,-88.1104562497551,325.919642992297,-45.4833570501166,2262.13014116423,-468.061987952189,1084.94246356236,-204.388282068426,715.613082613968,-18.563891443391,1694.51303312777,-361.178839911775,617.733016647754,-114.264777941918,536.633024290972,-52.9345672124655,494.00012990281,-17.665029335587,1772.91688812404,-465.479762683515
843.286347382665,106.177198117949,401.653144602172,-38.6000222705211,1148.26585661901,-58.0799724570326,241.321289223212,-43.655314121954,1298.47705740339,-68.4842867917243,1403.22588768884,-91.8974697074247,327.42222370954,-44.7638654325188,2275.31559475002,-480.250837228463,1096.73686238781,-214.391722161646,712.046935564899,-12.6750514585708,1708.53349852534,-373.551034914626,621.391153073154,-116.176345145274,537.013648638998,-53.2786139842155,492.4278592666,-17.0350302853392,1734.9711293454,-439.576536192169
833.426293866605,111.110168414157,396.164706226065,-40.2612968151885,1146.76341303577,-58.7025225127184,245.811993737524,-42.397912232837,1286.74668108043,-64.9069509894377,1394.21012141047,-94.2483506329106,319.896866926343,-42.2611200544306,2266.41614489446,-479.765661623839,1089.18995403889,-215.172357641688,717.948801814259,-12.7941246527265,1691.97372650583,-366.582540446889,616.947169726773,-114.021214709792,543.905604800082,-62.6926400468745,492.266282369796,-17.341829154653,1732.56967619022,-442.940943827593
839.044555821595,105.432027869506,405.903146804623,-44.3143048826702,1155.09833771512,-62.0699008563756,247.214606045939,-45.3269772443916,1303.31869722878,-64.4836350739957,1400.60982134922,-97.0384605108883,324.256844082265,-44.180851386083,2273.74959147521,-470.243118678929,1097.17647897821,-213.06292746765,715.849597231848,-14.1292771227337,1696.65259802847,-364.886995987393,623.81132636703,-115.999460556048,550.070965270091,-61.1276936006246,496.161617084186,-17.5771588273145,1745.34018597532,-443.272132715355
836.635617567101,112.416326288075,403.463331824199,-45.7804324313569,1142.25852246186,-51.8864345633608,240.829721545346,-45.5135807091844,1291.94848642537,-62.7016952783939,1402.75024645587,-89.259685977011,322.897301141061,-42.4742364886381,2274.48087042397,-468.732094776138,1080.58773309358,-202.211900843863,715.777153949488,-9.27363289651695,1704.93370418149,-367.534214069732,624.794795688549,-116.612686114741,548.010955701549,-64.2119367441466,495.486909623092,-17.2433287178021,1738.5897984677,-442.291308927486
843.02396469878,103.314858859129,404.283776514964,-42.9738989917381,1152.93092171675,-57.6939499613505,252.088150970259,-49.340296915795,1289.16288234519,-60.0449084440527,1399.88053333105,-90.1738955804832,323.275588420465,-43.7295007659515,2279.62488038389,-476.57508957325,1088.41628529095,-208.818074358781,714.43422403978,-12.8362598720954,1690.37920700501,-358.024515158004,623.367604247562,-114.414134868994,548.230220836666,-61.4808811442451,494.755128743203,-17.1750575926006,1728.76781088915,-448.863848586052
829.109075723165,108.352676752217,408.226433439868,-43.4823702902204,1152.08335769388,-57.0397882663734,246.888966960408,-41.3655679071036,1311.16351781814,-64.4533217213351,1415.01119431191,-98.7803026063391,327.106649730241,-43.2453757333789,2271.26331811256,-465.67885046117,1107.03191803784,-213.674292287589,718.144576780358,-9.31907661349038,1721.11396834406,-372.122541361077,627.045939656202,-115.096972274441,557.774700727831,-63.9801653454159,498.59094954329,-16.864111224374,1761.11634924773,-451.01014872139
828.827398368441,113.12112674907,397.471762183541,-36.4582723867918,1159.22070239472,-60.0735339208033,252.664791929087,-46.5701354629325,1290.15411270464,-59.7515332676012,1400.75054325951,-86.9274213091743,325.969979610223,-44.4737875744727,2284.97250566397,-482.544085506216,1099.88988835665,-212.209099313471,719.628058446718,-14.5782983795031,1692.84087320842,-355.564744315423,627.453820296442,-116.379511699761,534.994301984535,-54.4703440574832,498.676126391781,-17.3320271421128,1727.78597722481,-432.861480147335
841.266705604913,111.190870597871,397.99652410532,-32.4693384381319,1167.01781565057,-63.1079922738451,253.705122554673,-53.5667944546345,1307.52389198204,-64.0008158264097,1415.49574766317,-94.5192347030637,326.02753676923,-43.3449147767696,2315.73559176717,-487.818492714547,1104.98395111755,-209.621470715858,716.069937190074,-12.1527088342524,1718.26674531011,-377.365352804257,631.28587764471,-117.192392269324,547.855171062658,-59.7555202704803,501.81319109633,-17.6063816420918,1744.53261112429,-441.958176660417
838.778410981895,114.076276590875,401.139302979942,-34.503463201524,1164.54545218244,-60.179256018141,245.041377970219,-43.4561133658081,1295.58215118532,-61.6452814139292,1407.28596011878,-91.6257043310499,327.222909065453,-45.1417308144025,2278.50844081876,-480.988972750849,1108.41171765593,-209.481787314412,709.810749692975,-11.0573030140075,1715.75418617207,-365.990719532849,631.566288099294,-117.528254213678,544.715561549752,-58.9825197875118,500.357085807253,-17.4812508162111,1731.47306930814,-442.364405301131
842.583800699028,109.125862741199,395.658053802384,-34.071206712185,1164.43102510947,-63.450949191081,254.058997797922,-48.5320980643641,1294.5179288248,-60.6364991174995,1412.12299439293,-93.6976937432446,326.448345299381,-43.0180794394447,2300.90742533099,-481.472853749686,1106.41239752204,-211.962230730956,717.061520266888,-10.3175170601063,1710.46932565316,-365.900510918298,631.587739272774,-117.155815419342,545.160017216443,-60.4233139761211,498.834285770232,-17.1663718468031,1735.31637579885,-435.011382627601
856.320286441425,110.710381430816,408.395670194326,-38.9550466847984,1179.14965015275,-62.8427680005421,252.761258315655,-43.3356241165859,1321.24361974043,-64.0412646226961,1438.16412724395,-99.6544687937616,328.948388174254,-43.6626537906574,2308.8340590348,-482.730230077637,1124.8739070221,-221.268837474199,728.613237893709,-10.6675598694199,1720.36733172299,-362.248396751544,631.86969995645,-116.141614722815,539.278174685782,-52.4767699321416,499.237077561194,-17.5468063658849,1740.86336739106,-443.012327551106
846.568404281166,107.466840646194,401.697032954219,-39.0516140466944,1174.22051297855,-68.3389879754983,240.652900878695,-38.0354427465366,1293.41848277656,-55.5041489913313,1423.50720452887,-92.2887260535381,326.596806519349,-44.1815943938276,2289.87931024059,-471.752657111556,1111.51065934575,-214.603536479175,712.86776590789,-7.27713727665866,1711.17781393543,-362.455823733195,629.672338020829,-117.607876144219,529.97313650553,-49.5037085384686,497.150727370126,-16.7579299002415,1720.84295957068,-433.952900653299
847.302479278409,115.176005447536,401.961890100623,-36.3418463580854,1176.35610300231,-67.8801485300933,252.71824935883,-46.3511575659373,1310.05321694209,-61.2596644844603,1414.93683497391,-88.9181133225972,328.975047564792,-43.8029211103119,2314.70636516412,-486.828490927265,1117.72008557912,-217.223735563419,719.695948719404,-6.87046200806063,1717.58001704212,-360.667672907469,631.974478585473,-117.176801397941,526.496139367703,-44.7127721435827,499.805348322102,-16.8110071823982,1749.12347831331,-449.082072697659
845.624167706539,111.277761815541,409.040142444591,-40.5104184494006,1177.6823729138,-69.9919415947871,248.453638928416,-42.8205558931423,1294.70895954603,-59.4502148611995,1417.37227964737,-85.3501059576573,325.363401911608,-43.1906530084954,2295.05811292192,-473.792468037946,1101.55306707708,-207.524049782277,720.122789387241,-11.8628251125418,1704.33768251245,-363.997338560994,627.775916744058,-115.753336026943,550.350089058938,-59.8754441562797,496.419464647716,-16.3692088481748,1740.37912546943,-447.694440704801
822.847094197872,121.880489553142,409.520022382585,-41.2381286392521,1173.27376424669,-63.7990028664984,246.295746898808,-41.9718230572508,1294.70361896996,-56.771007188757,1423.34540564791,-94.2213803534273,326.678081739813,-44.2478543248376,2289.98890854,-470.737719166377,1116.24534224311,-216.363847734098,711.861156504208,-2.91017919624428,1710.2023352321,-366.80660945078,629.398552926112,-116.342049318212,529.429602707493,-46.0691539204454,498.934369711191,-17.0075528661147,1749.67154787491,-447.984944957036
846.614542784881,111.577762155295,392.316823982297,-33.5820353633456,1179.44162469032,-63.4391788998554,256.023300995787,-46.9847433902722,1320.92110312949,-62.0425361623167,1416.33203317969,-82.7405321509467,329.476645009341,-43.7252153154117,2318.6437530689,-493.943328318838,1131.7822535993,-220.579435147764,723.45988374296,-7.27001421819317,1715.37498784017,-366.526341458121,629.037019113068,-114.93145869695,528.179484581738,-44.2667464952118,499.82396985223,-17.0767237219711,1738.05667124736,-446.89188376103
839.473221039966,111.778162580763,396.191299421416,-28.2674392016754,1162.7062669668,-50.4509204183902,256.86076527437,-51.8436138808706,1285.10991077054,-54.3650919432551,1419.89758413337,-90.0127345625423,326.862423291833,-44.0861368487591,2307.92607497948,-485.987657556086,1111.75352337286,-210.279612755692,702.617306161073,-2.61974033186659,1695.35688614541,-359.308353416758,626.250573131613,-114.388028480913,533.833731970598,-52.363081981553,497.999157370989,-16.8079328068461,1738.28218222953,-443.65190037469
847.674867589039,107.061030056555,408.895899590982,-43.1657813320787,1171.91586841022,-58.8040264313716,250.581400047929,-46.2267917989978,1298.87703677345,-54.9596096582203,1424.63852013997,-93.1125568701339,328.090634485389,-44.2320455740042,2307.9598232474,-481.088055083058,1118.03279146516,-221.586097023735,734.487950070245,-14.443618750751,1699.27605213594,-363.177207029021,627.658919204778,-116.450820064439,540.78579965666,-49.6533287454697,501.821327927241,-17.2907719657847,1740.65496025763,-445.216504615368
854.544454652876,110.05205458465,414.503672669578,-43.1995225066747,1185.0361418934,-66.4495337631801,250.793269999657,-41.7282323891014,1291.40129852187,-54.6486160639993,1414.13596444646,-88.1499456957849,326.663034685073,-43.9852770238951,2327.00062674596,-485.703476043902,1133.41121570188,-224.771925582167,721.378662712774,-8.85788938881132,1695.43688569862,-356.877338699092,627.991422344008,-115.186638148133,536.840366622993,-54.4830946990719,500.70735955805,-17.6924155529788,1731.40932303561,-441.805133997937
854.980190747931,109.897989086713,396.330450463995,-33.5238316702201,1181.60781740328,-66.5342198074972,241.605468250577,-35.2700443018771,1289.59655982946,-52.529890353227,1418.78571311797,-91.748296335587,325.471428262936,-43.2757220783099,2299.19273665782,-475.69879496456,1119.84892036723,-216.486934270729,730.044060809815,-18.7679630875427,1691.74298429098,-363.524456358644,629.626084388799,-116.397273666269,533.855586493111,-50.2680792158832,500.387209062639,-16.3863182027657,1745.1413346986,-448.151390928643
860.679634971297,105.012439195414,398.816411870819,-37.1655574017887,1203.74116040076,-66.6305465202718,249.917717137035,-41.1923719848551,1320.28017635462,-59.3775178928194,1429.95410524474,-85.9686802986535,330.84808442341,-44.4636289544585,2333.97617867331,-496.749775454042,1118.68865914912,-213.666609828793,732.912694017735,-6.73381511293177,1723.15794431928,-372.053907260411,635.887224215771,-118.836999420693,543.199816040981,-52.852499583592,502.78771889187,-17.7763002134911,1769.72733191497,-456.804694041868
845.721309583364,119.087912497689,401.717776781501,-29.7626103044714,1205.60779327836,-66.2457964578828,261.655383040295,-49.9871433689967,1298.9161575845,-53.5578654258543,1436.81117644673,-94.1909722955021,331.328802772291,-44.8491190954499,2320.92927710903,-485.258388501896,1125.36435237369,-221.047229582485,731.328934935517,-11.899475162444,1696.70277134078,-359.292193821607,630.708562501816,-117.44015733918,529.179076580076,-52.9025580723245,497.234405291921,-16.4875426799849,1764.58700729408,-455.461196885274
851.797801072377,116.113266214262,410.976996346603,-40.0405776572204,1185.01172160292,-61.4108155357255,262.959748718961,-50.4143825336531,1309.14871624341,-54.8329616023574,1424.18429319859,-88.7815206932867,331.369579157283,-44.9392479798389,2318.25500812863,-489.026290930504,1116.94729849659,-219.647384117731,728.369540405923,-13.3926925097238,1702.05668837289,-367.256966668836,630.431203644171,-116.244848917066,538.924893930764,-57.9775056648556,496.729855203576,-15.9910754004828,1764.55234320516,-453.7819611357
849.04077997281,116.703700416217,417.493699951234,-44.7601372531422,1198.60694350528,-61.3609001191415,256.672746112652,-44.55978372547,1298.84337497255,-53.6342267175662,1432.01424967895,-94.6785326199816,331.118331707411,-44.7896659333702,2329.03594291449,-484.866381433161,1117.12634736254,-214.196971232507,726.592395194307,-16.8564705529579,1698.86843614521,-364.103092378221,628.643585940826,-116.180085512652,538.961135269286,-55.3636517651452,493.630443781849,-16.0027959282223,1746.23115895616,-444.220221972703
848.191611097701,114.505120829167,406.282863000676,-38.1879689160469,1177.59947797967,-53.2226293412263,260.490674115588,-48.3741705912414,1302.83101339906,-55.9313817164066,1418.38382171058,-85.4753634752139,328.669017093253,-44.0288982587531,2310.72078493177,-477.763147232255,1107.3391746292,-211.526972360183,732.354681879247,-11.4225367189072,1695.32902890568,-361.463814593717,627.474463989648,-116.94326244869,522.169663783596,-47.9004585685305,494.643154349653,-16.5046566765853,1750.77887035448,-441.771987124681
862.365591707632,107.52979765423,404.963451903428,-37.3999364710615,1205.20856225886,-66.5856002786204,259.086820225216,-47.3586286826337,1320.51306615809,-55.9422468072706,1448.50569324187,-99.9203363457489,331.488341051644,-44.0647965756821,2314.16893366395,-472.017302019004,1120.57985746714,-216.023708645482,747.285955006616,-23.8825988184272,1700.5089650121,-348.535390289026,630.965087589621,-115.812007476604,537.506646991612,-52.5573197307775,498.831285759672,-17.415316533178,1778.19134116617,-457.220885157203
850.446081720014,114.678133232746,396.336062510826,-34.0471376329357,1200.82754334927,-71.7485490124531,255.390521582854,-49.2446090882447,1294.67448653881,-52.9743769451158,1428.50638325779,-96.8564515336142,327.933208954693,-43.4512229615424,2317.86483633538,-481.46084156393,1114.14193186094,-222.7974346796,724.622326792108,-9.99287175514996,1684.70050427508,-357.544983315812,628.138525302437,-116.738871222886,527.483775781648,-51.907451627641,493.054063075456,-15.7953341496977,1763.61442290906,-459.272267421514
846.101908911699,115.879654033477,408.347606622344,-45.1583601317582,1200.47652562718,-65.4269775891582,263.622062995391,-51.7627815859737,1307.53002560504,-53.9547297202636,1452.75833995845,-112.035760519562,329.98190745888,-44.2309549204342,2337.17424861818,-490.672279667955,1123.85403988632,-224.257936547505,735.981111188879,-18.9000251477267,1700.92446915835,-370.393660344923,625.369919300554,-114.079013188617,541.054683022981,-55.4293273754054,496.089792211309,-16.6805699935987,1744.41905239641,-443.530380571888
