852.637551810954,114.66175929373,403.750622945141,-34.2180594538848,1185.57547568646,-65.7028161995946,241.441217061849,-36.2461524091318,1279.15162971272,-57.93774911439,1438.52478314141,-101.563820647315,327.131966242664,-43.5287766102695,2298.67885088494,-487.354064885448,1124.52156546418,-215.15163924848,720.805788052676,-15.2850991521607,1715.51631331954,-366.464454030668,632.866748078547,-116.524033837466,549.427739532719,-57.9260610829563,501.170607842448,-16.1794634352414,1728.64598105487,-442.519044106931
842.215293230627,120.636840446289,399.748525202649,-35.3583341353801,1176.397011463,-66.0076241390472,245.661832872656,-41.2602769891156,1253.15865975347,-54.029300431477,1410.30411327117,-90.4796534637902,323.820152685917,-43.932537925192,2288.2700948187,-480.638700358959,1100.34254269453,-206.080507820906,706.347708838848,-12.9035512887193,1690.97399087071,-354.962363202529,629.517718545943,-115.695619192872,519.256026544199,-43.1353403563964,494.851812810907,-15.0845521204276,1713.54752777672,-445.526411363752
861.336377328685,102.561162967704,393.611535701664,-32.4299978490553,1161.18930663968,-55.7393077337358,246.696575013248,-43.6541471599022,1257.83802463701,-53.5656660528502,1434.56199011751,-103.038080043153,325.097370538076,-43.8382631939202,2281.72725858278,-481.242279223784,1118.05672717342,-218.168008570369,723.055927391913,-17.1491594356505,1681.6225130944,-354.188005850562,626.651875274437,-113.747899200751,532.504255862583,-45.5308810434754,496.735695534111,-15.6215362236961,1713.91492806438,-440.058898150751
861.251451337214,114.35608886432,406.019050505122,-44.5433051862242,1151.11610471587,-46.6828386674848,251.243692359652,-44.4590579830625,1290.35607865121,-60.5239136761045,1439.24998521698,-100.658357184942,330.639751862971,-44.6358107062142,2278.03911804919,-463.394781123862,1125.01755250436,-215.744410260347,723.93061219048,-12.0491370992867,1715.66694280602,-364.784017096265,632.35692398482,-115.483440859688,537.011274919632,-49.1512639279999,500.311707811119,-16.4422301143393,1719.08771384512,-450.665563834734
846.360457639633,116.414546465545,397.457486481331,-33.3153619966035,1160.39044727969,-55.6880349038975,243.665814896131,-42.0617203155925,1254.78813234763,-53.6394656719896,1419.17991608428,-95.0259624757405,326.12038982812,-44.1750223880783,2268.42352838894,-473.167767030759,1105.76897963758,-210.368063444678,700.495051237133,-5.15773317936574,1684.91028421781,-345.660032139173,628.833298957995,-115.446294134781,525.730811219778,-46.1161347389607,495.301511883441,-15.6027759520977,1707.4828240581,-437.005987695913
849.638590027535,113.691170292487,382.643438616551,-33.3661203939295,1156.63889572669,-50.8012177914092,251.119332357962,-44.7621108491922,1270.62230300019,-56.9445669812982,1415.87375151985,-89.6355160433569,325.221646046149,-43.4318924903315,2281.17837970272,-468.519172205603,1120.56441206033,-217.745356598782,711.235381383212,-8.13675006633256,1696.14304371879,-362.123510464991,630.633635051814,-115.663743879284,530.017300812868,-51.3156811709533,497.620753523516,-15.6686556232549,1734.60005802862,-445.307186892677
863.607008823723,115.183497960797,401.672900128903,-38.4674527102728,1171.15551469004,-53.8572302353178,254.89354655788,-46.5159991640068,1296.07377664795,-61.8957088341022,1441.31588441833,-93.1417787352117,329.344703188259,-44.5712273824046,2279.68119946569,-472.628828476393,1118.83865022432,-214.394837307607,720.687047818696,-9.89968876810164,1716.91135456132,-360.813651052504,631.98394599105,-114.745801255984,530.678421622621,-51.4556797771911,497.740081864891,-15.7728531709965,1711.69329940825,-438.536119627019
844.068077343108,120.274715222284,396.444426746084,-34.4956514562675,1168.36579083114,-56.9614906756554,251.071403662752,-49.1117551609919,1259.92240675752,-53.9007246454294,1430.84356550317,-97.8832489690327,327.506117567414,-44.7623897782386,2285.46929411155,-488.56059358065,1111.68556180063,-210.202301974051,719.72649949644,-15.2788218955386,1693.41451398201,-352.512592048388,630.101786157845,-114.82325236446,537.695634153253,-60.1124348088058,497.3660415063,-16.4264521972821,1725.09496332153,-442.567650977206
853.19254830834,112.213794338554,400.907236087097,-36.3853661960935,1175.72089831539,-62.8673757046985,256.077582221717,-45.2998090656351,1280.1700220795,-60.0371729836077,1443.10891428005,-102.356290047314,329.090710443379,-44.9284011574221,2289.30190737228,-473.763042749955,1126.94705470415,-223.363186236722,719.842938598627,-10.5388447523787,1705.1325956101,-352.989754449815,633.22103473729,-115.076186175308,535.726736751182,-53.3245454724403,500.720028797836,-16.5605421013991,1718.5082159771,-443.41984462009
861.149869033045,116.910757605351,395.592949546002,-34.010782619161,1175.87774116243,-63.2040239361926,250.733339525459,-45.9351728793623,1272.12700085051,-57.4309253997189,1435.9439389383,-95.2699987769549,329.610815951814,-44.5796445013309,2297.77853570021,-484.082441187469,1125.32542186652,-217.937976956233,715.23087164836,-12.9571754527944,1706.50612601472,-362.268913944155,635.815605639255,-117.50915507539,547.864245057304,-58.3105276191395,498.740804820116,-16.2259242155772,1728.57929638003,-446.197091734497
861.591424732633,106.970665084666,394.29209971754,-40.0951090649,1159.3439881732,-50.9414854895417,249.799884665853,-45.5568896370267,1261.66577697475,-54.9546886293125,1437.16650795894,-100.231317497129,326.234586813777,-43.5007888036836,2266.88792227805,-469.786997267419,1117.27236474729,-213.026611322673,708.945697519471,-12.5362696090786,1695.93351395778,-351.553218313843,633.898115155386,-116.059056311708,542.219749143237,-54.3727899025839,499.573758132106,-16.0106395588939,1715.13542554865,-441.538393251722
851.222765493284,115.346401148135,399.78870270441,-34.0186196847672,1165.22612479733,-53.634859883703,242.058741709776,-42.8719667764033,1287.71121731203,-60.23092404569,1436.38612266126,-92.5696142962819,330.343209968425,-45.5881473177834,2296.85240040468,-489.009362896445,1125.04815437696,-215.346912718232,716.991948937135,-12.9224498611165,1723.65199929909,-366.394525847302,640.929108689882,-118.876664026136,533.705520444026,-45.5968173881114,503.753090334694,-16.605587068853,1729.09532452156,-444.700872880266
853.105517043693,114.278480177824,398.135721876465,-39.0585081379579,1170.48992803521,-57.8128734124684,250.142589494582,-44.315593994541,1265.15768320804,-54.1932567466712,1437.57089106404,-94.8841405918037,328.842681430393,-45.0957665830128,2286.93368354907,-472.899960318612,1134.49131345145,-230.847053729615,709.923698632845,-10.0063925874569,1719.97063451167,-358.731675644766,638.475753023625,-117.166152901325,532.187214363864,-50.3061167539776,500.567541545342,-15.8892712182011,1700.20518381832,-423.617748839694
850.534950976594,119.200873074856,410.161166592862,-45.9457036406348,1175.22315184375,-56.6794127231259,254.949177542092,-46.2966250452753,1267.09925380314,-54.581650207466,1423.36295661116,-89.9609247890698,329.921099034314,-44.9134491149679,2278.89923484078,-466.634798226709,1132.85562549859,-224.609692543509,723.984038302774,-16.070694737308,1714.14827463385,-361.580927023206,635.101305955297,-116.782286571964,533.701450371285,-50.7443187728731,502.513597977806,-16.7023642279609,1729.7414939197,-441.353822475334
863.190929948952,112.458548412075,397.051476927388,-37.9972780233711,1187.07201960725,-61.8932485910775,248.719353410732,-41.9490998519751,1300.28245439248,-63.4068431655662,1451.65640944009,-95.2491679220607,331.492604907243,-44.6214339835181,2302.13643204181,-478.516054566593,1130.59046149381,-213.961695183553,736.501678976284,-25.2445186536755,1731.32998342893,-370.963782085737,643.128435244048,-118.396134949547,545.520441632169,-59.0610974114195,504.469534250195,-16.9594518180872,1724.66619112447,-439.47513163307
860.297689564901,114.087170568736,386.159840114122,-30.3975075003253,1162.05319496874,-49.892286851161,253.512885033822,-49.1682565475287,1260.70145086302,-54.4657726282702,1447.31087205568,-96.64150240002,326.038948528383,-43.7332550682028,2300.15011007662,-492.215193735804,1126.34856825252,-216.715582349553,721.497042463937,-18.6981200868919,1709.37430657187,-361.333401742973,641.705388565918,-119.466283874545,533.987775543137,-54.5924702583355,500.217629975044,-16.0320523293032,1725.30746301487,-443.386157703495
851.063104017282,124.282060887959,400.763003439537,-42.3328008144136,1179.49647389845,-60.1147109045812,244.552414459714,-41.0125098544907,1273.10578497135,-56.8570654813594,1443.99915613865,-95.4135488506516,328.646785767116,-43.8163685961663,2292.27692117891,-480.71759251228,1118.22717812534,-213.926251792579,722.50109932927,-13.7275078865566,1703.86796855697,-351.907615235738,640.464816477633,-118.648338326555,541.520053070693,-51.8940016608391,503.464573888526,-16.799219208992,1722.07606147458,-434.770118037539
867.64137823505,112.361091352503,395.536020813176,-35.8452861973035,1183.53841042411,-61.7494992072616,250.270238414929,-43.8125810400193,1263.1733101808,-56.7416271628889,1437.392539003,-88.6872872072666,328.646683272947,-44.8784969400109,2311.02790601871,-493.12558844635,1128.78921597233,-220.760269263881,722.850462966792,-20.759188124024,1707.85190371538,-361.632504940373,636.8844773017,-116.710432907705,538.154764210901,-59.3665961353862,500.116032094585,-16.0058916024058,1708.06506001894,-438.878339196954
844.478350876382,120.095544604148,394.906284372047,-34.1881299657809,1161.97281688273,-48.0526404141419,246.6090566435,-38.6765553926323,1251.37983500625,-53.1949166401839,1438.88275299625,-101.086647634861,326.639274213552,-44.2064596592427,2278.05959957436,-477.101588950987,1112.43821473483,-212.775834162032,717.006975978382,-11.8493577222597,1711.37310989179,-364.129889113981,635.176770605939,-116.965241544252,535.014320014654,-50.8782177472473,499.134231897673,-15.9629363583821,1701.26011007326,-429.175321818119
857.75038006589,121.021685233009,391.868959016578,-37.5226230257972,1181.24385225207,-63.0369141274447,246.053503078492,-41.7259243418386,1272.07622489006,-56.3313031127725,1433.04338670658,-91.1000549864871,326.590024306483,-43.071477292904,2270.5012800992,-466.045494926462,1115.55098155788,-212.433258118463,703.406437377884,-0.945058407633627,1717.93299051871,-364.754873294494,638.69713077645,-118.321574993779,531.318224703037,-48.6487564100442,502.282266162056,-15.7991266714175,1734.21172166794,-449.159059028145
849.703759823128,114.129689102842,394.184633670213,-37.3111435695114,1165.46684240425,-54.2963346142622,238.441841262222,-37.2830360336048,1249.63836048671,-53.942783246385,1424.45653697757,-92.1667897904328,325.005953035588,-44.068260218757,2282.38002836668,-478.885404125402,1128.44449872239,-221.8376426013,719.113646667979,-17.3648220006171,1714.58374950359,-360.262293967463,634.411461283673,-116.900700683231,528.978283333927,-45.1856048018351,497.777130708933,-15.4910179362609,1700.67470576679,-436.010776230582
841.539362968956,118.708560815692,379.233840107039,-24.5060673050565,1157.45567143693,-55.4584127022729,236.555283886532,-37.7854273874531,1250.99847549207,-53.9585941785255,1430.82859933708,-96.6129764718059,320.983950808998,-41.6856830510089,2272.23053251489,-471.679143243652,1110.96974385746,-216.342918742485,707.259028347276,-13.9908385564527,1703.83507726248,-362.212797833301,634.579198187088,-116.530994667164,531.493354389681,-49.1772318846138,499.112146270724,-15.9595801855506,1704.63444308845,-436.476424715917
862.046835809916,108.240565748053,387.161421489312,-32.6287008238206,1178.096932297,-66.6635511510949,245.89196990966,-42.6138706085669,1273.43041721573,-57.4304915922614,1435.86314018096,-97.6778853768836,327.65706559204,-44.5843438549005,2283.10413835136,-475.608011688029,1131.73540992866,-222.639961164912,723.054875445638,-14.9483175996044,1737.48837787095,-377.849839056221,640.847930309956,-117.696880941154,545.939804921159,-56.6715029293209,503.212445793989,-16.1710283579541,1717.28863385259,-430.887518715383
849.829179373662,119.307967088695,390.844646511677,-30.2985795027478,1181.66260038142,-63.0368348128136,246.597281239568,-44.6589362672477,1247.49774095254,-53.8375717137768,1402.18161385697,-82.6379378013167,321.114648674244,-42.6714738248569,2291.15093877132,-486.525955624142,1121.53089120032,-217.839598850827,701.273135992844,-9.47262918428069,1693.24147770473,-349.562167284464,634.75411117291,-117.953598262761,541.877284545124,-60.4026415301167,499.077357757613,-16.1891016121541,1711.93923887296,-448.439782524027
848.131761043177,117.880212860598,394.679535809976,-39.3255565797705,1171.42766042486,-64.2167876992704,247.699124182289,-44.4997653145327,1250.78845563057,-52.7456178120808,1430.68237846082,-99.8126442318676,323.004471214818,-43.0820849895256,2290.6231644032,-484.084205046955,1124.02464880629,-219.649133474234,717.875233822671,-14.08891776004,1719.0469045225,-374.484265575861,639.039816583918,-119.468537979721,529.4998704072,-48.9999619614425,501.587866084497,-16.5340580721966,1705.86643354936,-440.219116033718
854.65559345002,113.705336338792,393.804924408041,-37.619497570837,1174.76818561731,-56.1240099807332,249.354214440222,-44.9294321720604,1272.74589270414,-57.708559173195,1433.22231086834,-97.3734917863957,326.210627308885,-43.2109527980666,2274.3677592003,-475.256638554024,1135.05871724607,-226.765985887248,719.507984076211,-15.0594369299378,1715.31995890034,-361.529301160138,641.52801826413,-119.71067502271,537.63377643856,-55.529737507808,503.678289720774,-16.9514219609188,1718.62537212007,-446.130823345351
847.270805778238,118.694738088433,389.566556333099,-40.333956480284,1168.41122168065,-56.6688128892393,255.13410377579,-47.6162688059296,1250.52147837137,-54.1408276662455,1417.01719090274,-92.7977657049571,321.87355988198,-42.5921238697,2258.33329671623,-462.787768881599,1126.68570359639,-220.959910352143,691.277150694416,1.24758253155648,1709.16433411037,-361.131391963195,635.387188683679,-115.926794267077,525.268091005026,-47.4238210605624,500.363881337725,-16.564941634119,1687.72049265562,-424.019833721472
846.713412886723,113.829902006139,397.986812337715,-37.2256612341255,1164.58243634102,-51.8499525525057,253.025061016963,-46.3893737645391,1259.80979794342,-54.8096420657144,1416.80873761176,-86.620255302923,322.329579786362,-43.416238612305,2270.73606681644,-473.973839091356,1121.95540494306,-213.056999069077,708.540800354295,-14.6370161684132,1725.23318743301,-370.629227917445,636.834887533936,-116.29186510018,534.331054143926,-50.9908502030722,503.346034388391,-16.8684190091425,1708.63352032402,-437.918371270599
864.664424444268,114.086904071576,402.027697633892,-39.9103233786205,1180.20581982655,-63.2306290093682,245.626919054233,-44.8848146551551,1281.52073303897,-61.7796403905317,1432.40436645037,-93.1832099626836,325.318998509089,-43.6275750998863,2296.41539648155,-487.682478125825,1133.89715092505,-219.28848830126,707.650863038214,-12.9866192818963,1715.5629321328,-358.56938881566,639.579592184144,-118.95800923442,529.853737147888,-53.2367795873888,501.413745948427,-16.3942298252227,1696.89038692612,-425.760620019653
848.480378881297,112.464795912244,401.682043741249,-42.1614015240127,1160.64995888271,-57.1760537482308,236.645269237431,-38.5244721901192,1251.96194937255,-56.6284140503645,1410.52005810547,-86.8117313734021,320.016476629349,-41.7325765192403,2282.70557547854,-474.100894506327,1116.83583570912,-216.143747598686,697.499388288227,-7.80340543583868,1706.27997456967,-357.575496087213,635.395695526432,-116.893799926597,520.45145825564,-47.8227245641668,499.630161894618,-16.4079739960226,1717.52707660655,-439.94491565333
856.919226557414,110.024787347613,392.206080830622,-34.7410401474925,1173.20402770954,-66.4310518678878,247.730019577739,-48.2309739967427,1264.72013870247,-56.0832863096526,1426.09440648191,-93.8173425014335,322.598542754892,-43.4348544327642,2275.69925066801,-475.677342626829,1121.3380302219,-217.921647775889,712.978592670404,-13.364950100191,1710.03049191733,-355.580640664746,637.861830693852,-116.229038232883,539.935758709069,-54.235591336965,503.056159996085,-16.9355187096066,1709.82866715511,-438.441143731032
879.123239036055,102.116166191524,396.711072193662,-40.5236751828289,1183.83630311125,-63.3914568727358,242.547249409466,-44.8522724408551,1258.51589576374,-54.9503693685119,1422.3510750676,-91.0047103533457,321.366712243823,-42.1790483732898,2269.31029430802,-465.816717797643,1135.90259191667,-227.356062094744,702.695300886463,-11.7874974877509,1717.34223930055,-370.954778302155,636.335607671831,-117.071386551487,523.315019366778,-45.7552333848095,500.038081462203,-16.2833390459747,1697.63126568007,-429.280257218946
835.694765524533,119.836845432223,396.777507382229,-33.4910292962828,1170.07432217024,-60.6850864363818,239.553191951743,-39.6343229410772,1252.87674071486,-56.6103331954815,1414.24805538162,-83.9863089534087,318.705657022217,-41.9502856956309,2258.71598036564,-469.744222925058,1123.5252330915,-214.20180687123,704.712733886517,-11.9089556686009,1705.90681573633,-363.200169690896,635.543895304314,-117.626946884332,528.559896670977,-54.0612139215074,498.95894486419,-16.539308731002,1698.5903295821,-432.709991365899
856.734962793312,109.128001063649,393.978635329508,-36.0803608805795,1167.24307966732,-58.1055589037343,241.247801109663,-39.0602905792797,1266.78674786505,-55.4096013240036,1417.55945230941,-87.8065304656751,322.260227459846,-43.1143277083515,2271.313034803,-470.435996127501,1126.61397047825,-222.621350466205,704.863346164347,-8.79573576849222,1714.25553725378,-365.834791700099,638.227572930818,-117.40592879986,549.060570402712,-58.574785333883,502.633016909362,-16.8057262140017,1715.95977858218,-437.359672449895
842.448737522733,118.822467276486,397.694966536617,-40.2184915118845,1156.96032363008,-52.6995085600626,248.321614206444,-43.7983337522504,1260.22835761135,-58.0387987129752,1424.12749990569,-92.2992138541429,323.179066457499,-43.0406693288495,2260.4720552573,-463.869973703696,1131.51108577078,-221.920212570337,701.157991474633,-10.0836405805211,1704.37073872257,-359.391283843536,641.660400034377,-119.920822886349,523.708878294921,-41.9051971688097,501.376121664511,-16.7818594589502,1704.97585354828,-443.775679495859
842.994456007612,113.070236895592,382.307916236132,-29.3893374306785,1156.1123843493,-58.9149522483359,234.400590501577,-37.7687607541808,1255.05829343728,-54.173061114516,1410.42873306254,-91.9553083680491,321.284550676468,-42.639899404006,2270.35151651344,-471.192169151292,1115.55745844022,-219.175068338354,694.613144657029,-9.1641601804108,1707.67500127699,-363.461915497055,637.130042446822,-116.352673512544,530.655000397016,-49.0645313912722,500.15648467294,-16.3788142579619,1704.39322766426,-443.824364722676
858.972668074768,109.598729545612,388.443083000266,-28.8106374989192,1150.46856817654,-51.0970332646236,246.810264168136,-44.6937759554776,1274.91759758828,-57.596988584947,1417.05274548112,-86.1578485526946,324.981534785445,-43.8353598741169,2278.71261846898,-470.738908251432,1121.58687778801,-217.632365957296,702.30409614612,-8.42461662426552,1717.06044659628,-369.071972678658,642.682388777608,-118.518193311291,537.442130959817,-53.1574777520621,504.969363114565,-17.7207394562793,1722.94574201776,-441.631254206411
853.092110577746,113.050480300874,403.492246366953,-46.358758401028,1161.42198658349,-55.7378458517818,243.228245000965,-46.9571620167977,1265.93091848172,-58.2538859581835,1421.94585530742,-92.6218512531196,317.759286618325,-40.3643055355906,2279.27653067246,-481.779723855422,1114.87544966578,-218.324688011476,699.155323164563,-11.8875529556071,1727.53096131827,-372.674452335432,640.312951663994,-118.319477624687,530.564181796447,-51.8974695193649,502.104040070328,-16.8339903172981,1690.1530549982,-430.98319410913
841.136473727529,112.990188264437,395.232592888671,-40.3898568563221,1164.28137383786,-57.3914659405834,239.743186111868,-42.700692696523,1266.41921765273,-56.2484330732184,1412.31965436134,-84.609361877963,321.204176352212,-42.7518225460205,2275.0676652919,-471.17272852407,1116.60750304043,-210.547769736846,701.94916074669,-12.9085500266938,1721.02912846492,-362.102093259324,637.980369090827,-115.923349349947,522.986764783023,-50.0406592501398,503.19600705685,-17.4016160518789,1712.35684031011,-437.941517518963
847.969148936001,119.942730011247,392.911038632799,-33.4485887729621,1189.97561281676,-69.1856533046786,254.964289422418,-51.3711289207412,1291.44186882787,-59.9168267240723,1427.90985467006,-96.1300253660372,324.900369361075,-42.8781935758764,2285.68453346476,-475.983766927918,1122.51087467123,-215.260490401912,705.932215379834,-14.1249744944001,1717.16363284658,-354.908677492228,639.5574085398,-117.863397465746,539.225784597016,-51.4527187753331,502.605376020409,-17.0819883068048,1712.58927135827,-439.594349169895
837.087367802812,119.522083506592,395.011091409805,-37.3100127793877,1174.00810489809,-65.170645392432,248.156241131452,-42.0470066881957,1261.15231968693,-55.217800077841,1410.59956797491,-86.551251078297,319.677066732568,-42.2603486896933,2276.32053630445,-479.058674076758,1119.85047236844,-211.76128628444,691.865311453249,-7.64789186992958,1718.81164262564,-368.856450602407,633.87140012341,-116.562262969752,542.459668299433,-57.3037956633443,499.477778896194,-16.5812517439066,1715.82076158537,-440.566983442682
851.639862319222,116.416220004257,382.34965573079,-29.3601497453477,1176.54058870688,-59.5162471160068,246.087925019906,-44.2817081322322,1279.24921079301,-59.3475786343334,1423.41684989346,-93.172979797692,323.945102397854,-43.1317604423506,2279.96931609958,-477.357086546943,1122.25567294285,-221.491983054983,695.352380845185,-7.42771045455918,1721.18144377038,-365.632338534894,637.478897850746,-118.450644155088,537.79270341984,-54.5484707616076,501.509910542507,-17.4885679883993,1707.23337405125,-427.949064552333
857.073389295088,113.546736989939,399.017335451385,-34.0804845335147,1191.42094673396,-66.197163445574,244.367237220659,-45.6144603214093,1271.90955301653,-57.06385121692,1407.52310204395,-85.909686233172,322.534987148488,-42.8879170251161,2275.41762575141,-471.500376398305,1122.14435951562,-218.207117228825,693.319047997459,-7.91812283229939,1718.88370319611,-367.191192198695,635.152241097545,-117.6330232747,535.908143780031,-52.4151521433036,499.593977649411,-17.058406352686,1720.93312506946,-449.450917729177
846.263689429897,109.779576648432,386.844679946848,-30.316637085781,1158.17391718272,-60.0228262643633,236.535549378474,-38.750411792059,1261.44086817056,-54.7476501347871,1415.25968735003,-85.7471465974441,318.846547661293,-41.2497818113596,2248.02030761894,-460.914617455277,1105.00518526519,-206.217173571693,698.496644874019,-7.60850618821053,1706.72618256771,-359.4940650149,634.873768201322,-117.337146234442,534.080887186102,-53.5062029021815,498.0483839807,-16.6421546348158,1709.13767840892,-436.549469004163
837.196911913584,120.893001096799,394.301840929094,-34.1552794553546,1179.67027551886,-64.8100334915844,252.727356821508,-44.376460498071,1284.1183720397,-58.7154966291112,1413.98949606041,-84.3667570044909,322.905624703724,-42.6457826620259,2270.2790063522,-471.683598563486,1129.19997000633,-221.174352125314,708.594767654343,-13.0952941849159,1725.90940700974,-366.813404754836,636.851394546842,-118.737043850409,532.232193979833,-50.784067294692,500.604816269563,-17.0405884090058,1715.53389129481,-433.10179851933
834.068257927658,126.392585598398,391.475946476053,-35.9512821896452,1165.04770724215,-54.9755631318021,248.107319399951,-46.7450595686107,1274.98017081574,-58.7671960622986,1419.03940691473,-91.6622800358887,321.209307391918,-41.6696654400169,2262.9702201467,-467.591766026,1111.57767284886,-214.004509304922,708.103386476303,-15.7322341235808,1719.67869188846,-370.559715036907,636.920746675898,-118.722623311527,543.272092518687,-61.8066018510606,497.927932611632,-16.6356069439585,1688.42608429705,-427.19918856213
840.940602176549,112.979489400568,393.944227984858,-40.1997922944947,1170.11987446178,-59.2928402354728,248.808889511848,-48.3240329598519,1273.37218730343,-59.3895827026106,1414.1382373228,-88.2768069683072,321.247455901667,-41.927956199766,2264.76445843007,-466.352163261288,1112.38198434902,-218.217216117247,688.259273160905,0.926824861250319,1709.29208547958,-359.975138660281,634.943033120673,-118.402494502491,533.740914578477,-48.8917174688151,500.432166481795,-17.5347800116405,1697.47221318504,-435.791391162863
848.566510156029,115.146135784152,403.537335181823,-41.4116270144692,1167.44567259393,-54.4873369358091,244.795113144809,-43.7272161242772,1292.31930490368,-59.8997012817165,1440.30766635484,-100.248372547104,326.296214689995,-42.7033004593458,2267.59855770686,-471.569858392624,1128.36957878214,-219.764496501415,705.966679481865,-3.35641765042996,1740.50685089142,-376.493907970828,640.872884868041,-119.149611997252,537.748849938928,-54.0321265132484,503.677032386094,-17.4928585704269,1709.94174329807,-434.144987261264
839.674409617188,124.087623336441,391.028152284885,-33.0658942248635,1165.64632801024,-55.2168051534667,240.721025580117,-41.6652910081225,1279.90934907605,-59.2924111954569,1415.79409459072,-84.9165963019703,323.315777739361,-42.7729834065852,2261.42675184142,-460.82022575141,1126.32649821096,-221.872086024007,694.281978628854,-8.01043738644263,1719.36482885138,-361.854750401829,640.097075620768,-117.948670360142,542.711539254578,-56.5957116472032,501.073935199548,-17.1766888493328,1718.39264614062,-442.582802802287
839.335778170937,116.997531890593,394.404041145027,-34.3638042216002,1167.37942854738,-54.7942462597542,251.001356746112,-41.6282645877119,1290.62235806118,-63.8592798039901,1425.45645143457,-93.6573988919415,325.792701659689,-43.8527628878062,2275.33990897363,-469.044799878474,1116.36659056995,-206.730458544882,705.919582514037,-14.8486084142567,1727.68075182454,-365.824746348897,639.449118323469,-119.912759988995,549.837550185416,-65.7604772446403,503.037865902381,-17.535637691151,1693.05999301784,-425.188913784538
857.506368132572,109.75179499936,390.115350939603,-25.5476741486116,1171.50470472204,-58.304542543282,251.199744574344,-44.8561375505027,1308.58909324231,-65.6796452335059,1416.35043260008,-82.7822304214731,328.476225571822,-44.4702500396184,2294.02230575694,-480.005623132355,1124.68263431057,-213.941001805588,714.751145025318,-15.3254653314391,1735.10508787756,-371.56488875092,640.528533010615,-118.862511085445,549.903783799205,-57.5266379371104,501.614912239199,-17.6244210369287,1692.56913981438,-429.076036540768
839.813424706153,121.176524388517,395.123552516602,-35.1381005159863,1174.35089189167,-62.2296380302616,245.726435736029,-46.4802596295021,1285.75007005794,-62.7708206289957,1418.37360117966,-94.5782294099616,324.407061636209,-43.862578769936,2272.19241939139,-473.8672268869,1130.88631550923,-218.786267548271,717.387021347714,-20.1143092078018,1727.49405217554,-367.246340943918,639.427913733531,-120.342810489541,541.204718797654,-53.8893082314037,499.886738607029,-17.2823830355325,1681.77314230544,-429.302209843602
856.879821725362,110.292269368538,394.666169030413,-29.3323911294252,1173.56128388087,-60.9229854596605,241.354219161628,-41.5798337148408,1304.28340323151,-64.1997654887333,1427.63665252936,-91.9993691892185,325.164069582573,-42.7112213308977,2279.3920099886,-479.489218844061,1137.97904048605,-225.674264491138,711.462727874477,-15.2205141923707,1742.79498450898,-375.639813160776,639.948968868755,-119.528907039544,545.968123318262,-54.3768465824369,503.672088957319,-17.9667921707676,1704.24257616931,-435.611417608197
843.929520302934,112.220718732445,397.229919610077,-35.1495531049357,1174.60719047712,-58.6307470774057,244.64392732888,-45.1206495054139,1286.68160156378,-59.3823538507487,1418.70716310689,-89.3875495696613,326.339640299776,-43.4774629957825,2275.69285087101,-478.850999185874,1120.64800815032,-213.517896993977,708.678960765742,-11.7014863659154,1727.99445795981,-375.339959495868,636.649725783123,-117.855578410418,538.317962272405,-53.1884473794064,499.243299858111,-17.2092697483573,1700.32007577705,-437.220767317899
844.837637583844,113.136756490235,402.498304230311,-38.8607984999892,1164.28672708143,-57.0245172539533,248.202525161432,-48.6036745193338,1289.70689941884,-62.0479831589085,1420.88452743902,-90.2170543562986,324.918933386396,-43.4924660262911,2272.34634442038,-469.795043291468,1129.43389042158,-225.661761360003,709.963198342395,-11.0731930185319,1738.04555455183,-373.164749402284,634.987630445503,-117.101993504258,543.248716745795,-58.2523292862986,499.128561279003,-16.8729299500893,1693.11670329781,-437.896012471215
851.907362845383,113.438451670344,393.995172689874,-31.1855783432037,1191.70196184777,-73.0363663977344,250.497424746369,-44.2314948180392,1317.40317205881,-68.0225485143289,1442.17102441884,-98.8789233809737,327.369541493874,-43.1780930419836,2293.97205744378,-474.331053765882,1143.10416349286,-223.414499553851,712.34013705477,-10.0619163973875,1750.95841489101,-376.666794953705,640.760793976437,-119.969317412942,544.111961633788,-56.2539025791473,502.937364928755,-17.7926998867551,1703.63886656388,-432.552122351634
845.217411106371,115.0273179348,407.964675437491,-44.2521729181454,1168.12384718772,-56.5564535169748,237.867290723641,-37.3281966859238,1288.05075791273,-60.9222560787646,1420.72782564241,-96.2020639181495,326.521086057502,-44.0195039142281,2268.32698906276,-467.799552436211,1126.92183753131,-223.699891181589,718.299997509835,-20.5528498290905,1734.61222472326,-374.402416899936,636.099708075094,-117.465857687964,547.44125871119,-58.4429258868121,499.317645331197,-17.1274775418689,1684.23098681804,-432.983836057844
863.817053223937,105.090987873592,390.839263255074,-35.2714836663727,1169.1670007278,-57.1974634864693,246.339143490709,-45.2526144379705,1305.52021825843,-65.8596112524537,1432.72092347356,-100.811480399366,326.923829759924,-43.7032040177258,2279.18030229162,-479.606379849846,1120.56529527797,-216.854232642881,701.288209446854,-3.88781433535934,1729.11446847212,-366.296116885482,638.05458933342,-118.189434460572,546.702687471963,-56.378717631791,502.911964819681,-17.617926319591,1696.19913762044,-433.43901880482
865.350280968254,111.436648963197,398.263677445724,-33.8393774856025,1189.33495550278,-68.3794182686794,248.244217660408,-43.8719739548448,1321.17742408164,-68.1890992217029,1419.08016024196,-88.2710735603399,329.861970794292,-43.8949185569296,2285.29239263827,-474.574515454367,1133.65961710725,-226.212181353188,707.751638288347,-12.2577973956707,1746.70233903592,-382.758610950446,640.26022499008,-120.664302410998,555.232858018873,-60.9050837503214,502.799033844513,-17.4273169467814,1690.78841823878,-433.404066989763
848.967724943226,118.8037936664,403.746166741668,-41.2385944223887,1189.16561678521,-76.8091487868935,244.276944514104,-42.2842347141802,1301.42439710268,-64.1204043543773,1408.11624940479,-80.4991724452921,328.005367080223,-44.1691606704665,2274.85019813698,-472.427506642554,1136.36742102321,-228.33079575577,702.002956361507,-5.41990830180437,1734.26868503649,-370.244328726584,640.874826347534,-119.19666586256,551.049296722569,-63.6207388985051,502.489535444641,-17.4967761533423,1702.90007542923,-434.38511967925
868.085024387309,100.870948014658,401.994046649825,-35.7515090822973,1189.80003366029,-65.6548739044143,253.482003717601,-50.4087814496989,1316.40103117187,-64.2650716431965,1436.59646460729,-100.453537513955,330.385204897026,-44.8075496526204,2289.05045831509,-478.46007159151,1126.61504173782,-219.668476029126,717.607595545608,-17.2487273813609,1741.42161161806,-374.149323959027,641.398175793197,-118.696556790115,549.595792285651,-58.0097483700286,506.78705046628,-18.118180386566,1708.87278605926,-432.210341167134
844.463338266497,121.393313256249,408.513455319237,-44.2306094405359,1166.31119473297,-57.8256396688448,251.572081580187,-42.2431055623785,1306.7277976402,-66.2120349585108,1421.60150202284,-89.1315649625532,331.190299862902,-46.8979142806225,2283.46179003442,-470.307444881159,1129.93273294523,-225.104405089175,705.820413371258,-8.27521835292333,1737.06705438001,-364.941209787546,641.232813255771,-119.600592772284,542.43878895545,-55.1030719576367,503.75641866093,-17.2651005612952,1685.91899514218,-433.882509522133
842.185522873693,120.598115644285,396.581624660359,-35.7052732889748,1179.94261079752,-65.9801314218452,245.910316879248,-44.5059996854754,1306.12290629923,-63.3443765276726,1422.89385209614,-92.0933963529428,328.336374314691,-44.3868177681491,2288.65264638997,-479.547801391929,1132.85666373376,-223.208492834794,709.842095698248,-13.2422485742712,1743.33238929573,-374.083741044175,638.570610264009,-116.56021365911,554.121741525988,-56.718990604504,504.923598204213,-18.4229987562014,1681.05389834556,-430.1881068511
862.708375379053,110.024319164678,403.33526488992,-42.244235796011,1170.68617533359,-55.3608949103556,240.356455332782,-39.7850683387392,1328.37906660175,-66.7388964332329,1438.18651013427,-98.4863606833283,332.819105871418,-45.8098131126625,2294.5435212017,-464.201196740333,1135.75610847443,-223.559501366811,708.413967498091,-4.92441675038877,1745.31799842425,-369.260177691967,640.716334901571,-119.004037488699,542.107839515249,-54.9959238279457,502.820627254624,-17.7275383617656,1684.72123631976,-434.281408285279
857.185809386102,119.030510006562,405.152970274705,-39.9669922690093,1176.99732985426,-59.5397494008217,247.566362927517,-42.7817197633408,1301.24710521359,-62.0927059538722,1418.44121976085,-84.9070073396373,327.947076827512,-44.1169189097913,2273.83938849553,-474.608283997537,1117.58387258283,-218.924371354771,721.994062664489,-21.877601553991,1727.79504868807,-370.902308591229,636.674956027418,-117.665497134448,542.070328117207,-52.354523638223,501.221172000762,-17.1645592786431,1692.76821077269,-433.774310788355
858.862067035355,109.038530080956,421.808567636386,-53.1331305990442,1167.61802530373,-54.2546910338416,254.520591229097,-48.2473078482758,1317.37584998716,-68.1042788209024,1433.02908672419,-96.0434240945237,329.498310526219,-45.2007747087302,2289.07418566892,-479.19192794863,1136.41648127948,-223.238482047768,714.090819111691,-12.1329339217118,1753.82635369579,-378.702229275334,639.834510557793,-119.052954711212,551.152882782322,-63.3298333086087,504.214313982095,-17.785882413231,1700.66901216571,-437.596054719214
847.67337349628,117.368788268134,404.713512817029,-41.1967140074634,1182.79469219542,-61.7413814680956,250.090269543987,-45.593542930086,1301.22087395366,-61.3251587766641,1415.92478896376,-85.8124757195364,329.035138497453,-44.8885882121671,2282.4373691891,-478.051441599051,1127.2726229573,-217.863162353663,716.895394805341,-22.0045015508283,1750.12451236475,-373.368640716206,639.516124817845,-119.292693200612,540.350457263723,-52.191155743206,500.295958461534,-17.0513581439864,1688.14516758681,-430.751501353204
854.233818597297,116.140424903561,391.03977528257,-29.7658156937984,1169.72935249694,-62.3135991388524,250.104165218354,-46.7251488698728,1301.16081738204,-60.2604592170284,1419.2560072681,-90.6817509633039,325.298408665655,-43.6755897599876,2264.66026776011,-462.697479671135,1126.68162881016,-220.035835549647,706.921972129978,-8.73387716996381,1735.90001221282,-375.180125213756,635.712271374202,-116.580418414825,544.002004664264,-56.2012915419707,500.707599610012,-17.4334018019907,1695.95621785694,-429.822828298688
852.625019310658,116.480243000933,413.812436181945,-44.2578480154296,1180.16730733848,-63.3895784756628,239.692005465712,-42.3287732093348,1320.72212567731,-64.1464014455347,1445.21652250207,-98.08308312365,331.463384956599,-44.8058073335424,2301.09326360872,-486.432970318054,1131.82971819956,-221.965616303777,717.523450368433,-10.7323776837471,1761.92613507687,-386.093310923577,641.982784636096,-119.720327125651,553.506380973665,-58.327020324145,504.25988787649,-17.7065761393322,1702.18575760122,-431.237848073189
849.578677260066,118.283748480009,401.883463333553,-31.9775137392386,1184.77114221647,-66.0827844961935,242.70446579813,-43.7569452755482,1303.07283304861,-62.869489603501,1425.3662192926,-94.8910116587727,328.189796767958,-45.1732220729186,2296.52508495074,-479.342822869334,1131.3562898705,-222.995899623872,711.045884153623,-12.7549475585028,1725.19162700819,-361.91375924871,636.455035898328,-117.625330918925,541.983636069651,-52.9309253788131,500.51072078293,-17.05586608128,1695.98051328737,-425.865759193178
857.952480693384,120.102582531268,395.740802068667,-33.8365007043307,1174.96677353123,-58.3879221623217,241.556553408437,-37.877720340422,1312.52097625316,-63.0635217815409,1426.1135564964,-88.8316232299374,328.148050846474,-44.3186999087826,2275.40073377981,-471.166637223882,1126.32227689954,-215.707925209035,718.406318329829,-9.41443490908397,1741.68019788066,-372.729204727874,641.56208627184,-120.058239472884,549.591608804872,-56.1294473490751,503.083229759501,-17.5232298729537,1694.62064561247,-430.223335312724
867.875387750411,107.751899242552,407.425573310607,-35.0712865127284,1163.3094583606,-49.9019820450289,252.055059142987,-45.9923851834105,1336.03166826826,-66.9470119481585,1437.36092550546,-92.0625414415474,332.020938251677,-44.1896927692481,2305.92920031388,-484.473499387599,1143.40382490083,-229.241115168387,720.202481027801,-13.9272013746151,1757.97184041237,-379.403223690913,644.634458338044,-120.017802382457,556.555486854042,-59.6037952384249,504.140520880828,-17.1926677380932,1701.96175154439,-443.2775523381
857.926414973295,118.484049875496,405.936161585688,-37.0272559821537,1177.98928919477,-63.4386629015281,241.068271043164,-41.2261006383991,1313.82358070314,-62.6296840584459,1437.16750430962,-100.668782340539,325.893960189326,-42.0633682023902,2299.99763251398,-483.670578225166,1131.23543437703,-218.570347523955,718.834666193647,-17.1122410849702,1744.23455819587,-369.75394238903,641.64540608172,-117.618001186005,548.925057601274,-58.8512452804332,504.297937761677,-17.4530634426002,1704.25771756817,-439.424676416494
861.42943774712,108.650616271247,403.252917019058,-37.6450839233502,1195.36090117345,-73.2362968273618,246.277424565085,-42.5793614761113,1326.2729073796,-64.2705025526481,1451.05267514559,-100.885286909059,333.998610150693,-45.7410989384567,2292.10923441951,-473.918716914602,1144.40861915593,-225.110684128747,722.148542045417,-15.4387419745338,1753.34653980841,-374.330291652735,646.27100061511,-120.502612757055,555.527813996294,-56.5143255350655,508.723009020905,-18.068264312844,1720.04523030367,-438.028717841717
851.750116758231,118.43810109691,414.460281342083,-40.9198816155723,1177.67401932464,-60.0894537269042,250.477018759331,-42.8568880907777,1319.7773021092,-64.628991655871,1440.08539249752,-92.8782414492384,331.292921349585,-45.0250000714516,2300.69206845441,-475.743077408145,1150.35958342227,-225.665753749881,709.654868604079,-13.1427337979224,1760.34704879536,-378.162698389247,643.694261287949,-118.8400055314,548.168811649027,-58.4420569244348,506.785320460354,-17.7078294818833,1709.08900820006,-441.38267801436
861.256892103345,112.302878265848,409.840013349526,-45.3519603604412,1185.86207471345,-56.9294457518661,246.525648768194,-39.9444017868853,1326.38400802704,-66.2742382035673,1429.114260055,-87.8322136361203,330.217556659511,-44.8102280251249,2284.29698939464,-469.218357489709,1143.87341685388,-224.943991962831,731.802718729042,-22.7955482225185,1749.23774732277,-373.076976896132,646.462994196909,-119.782297132614,542.29288229547,-52.8274880335463,507.986859649686,-18.3437765845914,1708.55582713529,-427.449625893386
883.373790136688,112.617572887349,416.543864083029,-44.3612515935039,1171.75196004363,-50.5561616424515,257.997815523409,-49.4193668030533,1346.28982595158,-69.225561760412,1447.28002292986,-94.9407316974052,333.888289053348,-45.1602869215787,2309.84003820977,-483.227200009967,1137.75395107984,-216.088086760763,718.863513069877,-5.96980547057791,1764.47380586124,-381.254072686446,649.195595173378,-120.982741528594,547.456582234851,-56.2010817215753,508.207669870436,-18.341222387157,1697.66955541072,-424.209066597885
844.951858094318,123.232254926119,409.687093946637,-37.6761227766664,1193.297545785,-64.7315496247903,251.433228265967,-47.8761437978951,1318.16518716299,-62.8904206088258,1441.86390508206,-98.0788046620289,329.364419892619,-44.594106022342,2318.92083716934,-490.168337187352,1165.24811009843,-235.996054328077,718.470555027575,-15.017754059137,1745.46733590112,-368.299464896901,645.013458164918,-120.765875585045,547.245647750264,-51.5981533051762,506.105440484587,-17.5404653809778,1702.52635461506,-431.410674962961
863.197727131239,119.529746886229,401.040584968755,-35.6322288102127,1194.97629459803,-65.6257182993222,246.162752663428,-44.6247949754769,1331.03556772303,-65.8643566861369,1453.30883637427,-94.1189012449554,332.174499356832,-44.7710163026503,2293.92608650487,-470.051199914844,1151.15742121723,-222.430874791605,728.115180094429,-16.5820642960588,1771.58495811991,-380.611790081477,644.870829579324,-118.146189500546,566.975781048416,-62.6867029744468,508.037339143209,-17.7868255603272,1715.23503520381,-438.067015915161
866.327929107615,110.222615259682,418.954979187181,-42.2796520091269,1189.78047186684,-67.0980129047731,254.073045900795,-49.4068268302939,1314.11900692452,-61.5041860155519,1447.58137263148,-96.2001888440194,328.667606747309,-44.1908979414428,2304.65372713116,-482.520535296342,1142.91108720804,-227.675789173418,714.766897400268,-11.5851239912078,1744.27641494005,-371.410671445267,641.086119504128,-118.668821602837,543.335916412587,-54.5862582960753,503.663455802758,-17.2821116145095,1708.83446480324,-439.274839518892
871.032075021272,107.670386689924,401.473544362132,-35.8721883732652,1190.46053228155,-69.9103941437212,254.898370885849,-49.5081964330227,1314.13103891655,-59.9782978679199,1439.8651132658,-99.9463842683566,328.488930824296,-43.7834496721271,2290.00929060302,-471.216637964134,1133.99730649811,-219.483720934164,717.095631286185,-8.56568421097692,1739.88339894775,-376.529262136662,640.269591997184,-118.673731210477,548.885474625236,-55.5584874682495,504.686453238259,-17.1937621600856,1705.67763364881,-432.751200738967
851.391230394767,121.026163110456,414.054554363242,-40.6511166766452,1186.88568261308,-65.4162873365924,258.700042745683,-46.8602646556186,1334.60412821394,-65.9415596897413,1449.10504966802,-98.8730041760373,329.110642502739,-42.7813179085036,2295.65133477685,-482.966609607166,1130.77830077142,-214.484679870319,721.340625324264,-12.3416002166903,1750.59723312183,-376.663665684566,641.909149232081,-119.634182079596,545.569208755136,-53.7007733046334,504.829250257801,-17.9127954976807,1727.57849701957,-451.980343661363
856.694923716148,112.650440870394,407.992485450941,-40.7066033014741,1175.94870615178,-65.9004170452059,244.865846916281,-42.1739284192288,1300.36404629511,-57.0777455980747,1444.28149318725,-101.295842835161,325.681289428886,-43.7401379102195,2281.35520600815,-471.551535139985,1128.24835588532,-221.029630611348,714.248492117136,-11.3871002937651,1724.52786001393,-369.993115949935,636.443844789035,-118.121364580133,539.702116420185,-54.4343693347012,502.515203790865,-16.765709361959,1700.63336697064,-433.677249191994
857.638768345062,115.992665825234,402.45127192,-37.4308003078945,1170.69029765941,-60.4815360870001,239.775251908484,-40.3218594745219,1311.82223097142,-60.3713034299987,1431.63384534254,-90.2404072607297,326.86134341392,-43.6379742090126,2294.43129401819,-480.503376153947,1128.73828041529,-215.049232192458,727.294018056421,-18.1447380072988,1725.71440457362,-368.962525428857,639.902710802241,-119.201411361513,553.478088129444,-60.942245704938,505.186730782879,-17.743847652375,1719.89716000114,-445.77431158785
868.735747711456,104.507547182563,407.684285414036,-34.5333342580516,1178.52195968411,-57.8752496107931,260.944123943543,-49.9796836044259,1305.96651675855,-59.9704688839313,1431.66994964476,-93.4830199911191,328.644840919123,-44.5660874047927,2299.30498200071,-481.475540847419,1131.06758336399,-223.31743335892,698.806802329587,4.36098266216764,1718.7114915381,-369.938053963962,637.538848021098,-117.268380325645,543.759699742865,-58.1994150483764,501.922023630433,-16.9568023229294,1720.83415500472,-441.362502004359
862.531634775385,115.483517789289,405.307717294872,-39.2647195702742,1175.83505783518,-61.0546051436662,234.671903969875,-35.1090783867882,1299.10376539311,-57.4931820868003,1439.02465731075,-102.581698972994,325.38245303372,-42.5639062078741,2295.11831367249,-484.770347750344,1141.17394363785,-223.136381588816,716.235948367487,-13.5658509417513,1708.42966353504,-361.927783881383,633.847660564878,-115.078024957168,542.235378411059,-54.8634527281662,502.279534394108,-16.7896056074234,1712.01574793672,-441.162322513433
856.60490497755,116.310815392056,416.542242990767,-45.9669518659781,1165.81192497625,-49.0277494428936,249.270558497834,-42.0044598750553,1318.80431777321,-60.5377213503005,1441.55282023074,-93.0537627127836,329.288767858377,-43.9114351419299,2307.24473000661,-492.372407903292,1137.79047709629,-226.017093466599,716.016548547185,-8.48554680394248,1727.88179824788,-374.79712262575,640.454289066468,-118.558674910397,540.991380287326,-53.9423994125319,504.998500052168,-17.1282030606398,1732.21327448368,-442.016312645664
864.999935766246,114.166668303126,406.736903404919,-34.8544402552848,1168.2347452219,-55.6607792241351,248.300489911692,-47.1384701895522,1300.00803315545,-54.4555109414938,1443.49968996577,-106.005724804763,324.064428852675,-42.5784637063994,2295.84695501192,-480.945400595402,1125.28154157416,-215.480780182792,713.315489248739,-14.9036689690834,1695.05548806997,-354.854926484176,637.412084966393,-118.024471370789,523.249609057171,-46.6157006617327,501.792515963067,-16.6166132065908,1714.84030116169,-443.976009303417
848.158925447662,119.853407913447,411.79679192377,-47.3544171572124,1179.01810566807,-63.0266990828245,253.404391609132,-46.1869077962618,1308.75686220973,-59.2854438277885,1438.04287823721,-98.6508059673711,324.932568110202,-41.9933504245048,2283.19379695139,-471.252887744176,1120.8403433725,-218.758431784172,722.294855997543,-12.4736172874146,1712.7100355097,-367.279658322215,637.498560261383,-118.845817600289,538.94118322186,-49.3004749966458,501.757260376426,-16.5317269642751,1732.01016200002,-446.874582727941
869.934848568411,111.401142295688,409.268079187724,-39.6357458890823,1182.34702073499,-57.7315321794428,248.893975542024,-41.5030843958973,1317.42993759175,-57.9574525891219,1437.89193538122,-94.9168352994235,328.950733679289,-43.5122995614611,2295.16392227992,-478.064674498815,1131.22379232184,-225.11051009108,732.62180462618,-19.6384581458744,1708.37670022791,-366.169198834295,636.139729651064,-117.442838509226,535.027809721758,-55.3791540448242,500.704632082595,-17.0608556953187,1723.71281799538,-444.122073893212
860.401246196057,115.611769774067,419.595300569566,-44.583871168929,1171.8803353196,-62.59727040901,250.958253575327,-45.2983424330706,1299.47857936079,-55.3962514516437,1426.36746530451,-91.1437968098686,322.413770471058,-41.3565532512362,2289.72462445347,-472.937169328468,1112.22476372773,-211.088714298412,717.316704354475,-8.50201076490814,1689.73043599998,-351.963023802082,633.024107190954,-117.278261252346,513.65331537327,-40.5774742551766,498.598601300597,-16.4595939602717,1718.14978717997,-443.598308611988
868.3732243416,108.738376097431,411.660628999658,-48.0166344539212,1177.15980945162,-56.69753566306,245.346797982977,-42.7955694381455,1313.71571844064,-55.1482676407942,1445.55762167996,-97.2997622466784,329.850760353429,-43.9456140435059,2301.90892640238,-481.261103359075,1119.89691346473,-218.701943305205,726.765526114598,-9.60907076387501,1717.1716423372,-361.53945062244,634.225790451876,-116.479673702935,530.678797838125,-50.5653289617384,503.573400147725,-17.4925669430098,1752.96682267558,-463.009909882365
847.924505857531,119.280779619515,402.06147345563,-33.5233330541025,1180.3310261567,-65.4865333592081,253.06578028517,-45.7634984040618,1306.97777249367,-57.8504439320937,1439.55687112521,-93.7252368076303,326.428732697904,-43.8385246781136,2295.39190996097,-483.336385066194,1135.25846575021,-226.105405609628,723.690841960788,-12.17174728297,1705.34418770696,-356.724348580191,632.945070333822,-115.228140443199,539.557889213792,-58.8971678644193,499.236732261225,-15.998028311459,1716.15632370023,-441.64391803995
862.115502215939,115.360991187796,416.971590427909,-44.3609096296599,1171.61450959212,-60.1574904971295,254.338967498007,-43.8429256705603,1308.04460043103,-57.4273777763191,1443.624656075,-99.0489684445535,324.776917214649,-41.5316432307363,2295.00214679198,-479.680469037508,1126.66765376507,-217.086632152798,721.868014315399,-12.5489950822697,1705.57328791169,-357.307522108514,635.064190927124,-117.149993793374,538.984195425727,-52.1873310301884,502.290793112902,-16.8258329413996,1725.21144067297,-446.517045482053
865.683882774629,109.003705745887,427.041578576128,-47.5010080698014,1187.346927567,-57.9171755512997,251.661221331574,-42.8317024119304,1330.4538213705,-59.9858318301179,1446.10509403523,-94.1424536299068,328.692261434786,-42.3620913986221,2307.61033571708,-476.274143352379,1130.42916294335,-216.93404836962,742.011468431425,-21.5759701300147,1711.95502750692,-354.195752081654,639.202350553846,-119.620834937134,539.889041428623,-53.5317916295498,502.606958415896,-16.3761655819823,1717.93483007927,-442.008487956814
850.894254027403,114.791242241579,419.983160007119,-47.55249880955,1188.26566618286,-66.7201319426463,255.66816208901,-45.5894964043063,1300.82448268661,-54.16168068984,1438.24937452807,-92.5005760765834,324.454580872379,-41.3272561150395,2283.21365547343,-470.84066050358,1133.05189733734,-224.649571970749,717.763927974218,-13.1026481892749,1697.46638518073,-360.631483341388,632.835270000822,-116.91181474609,516.108173838653,-38.633695144426,500.006645998124,-15.9916796808892,1711.92829968747,-439.950412261949
864.720596298647,109.339362771108,407.726752827012,-42.190530221276,1176.7858813494,-55.1967183832715,245.72891627887,-41.2207368979428,1310.62609473781,-54.9844577458417,1453.64396673579,-104.057893094694,327.566526823679,-42.8217121721114,2309.17943836759,-479.365213987126,1132.13343350497,-219.392383443479,723.344841097245,-12.6366588169271,1720.14484270549,-364.628126250354,637.44700861113,-117.757162895034,524.567629784397,-46.8743724506949,503.409107091047,-16.8012799881278,1731.65969234973,-450.871410582491
874.036316820461,103.140995976093,409.013086476721,-45.1764163235633,1173.33690547316,-53.8747528768025,248.622903858023,-40.4050059380848,1304.65110378756,-55.5368121571083,1449.85154919047,-105.799761274414,326.045641972954,-42.0022070768198,2295.04355408734,-474.901783508496,1135.91658421158,-226.269318731811,733.954044402217,-20.881341051198,1691.8744894909,-351.83698475908,635.641627510446,-116.200746004471,529.899569972581,-46.5668337427972,501.512250519397,-16.1728368302235,1714.28331247365,-437.895794078054
