817.284872299006,119.175896217746,380.439469020764,-30.7476083586876,1152.49158926518,-63.4873235606511,234.467007003169,-34.1194711941865,1229.59604634082,-44.3234916952427,1397.56248793403,-87.3921968104047,322.532098110793,-43.1882216690245,2277.4696849846,-472.36769547344,1077.94609693464,-205.497724090996,701.735836177609,-1.16591575555393,1658.3005109555,-345.762920161403,614.305512711188,-112.664037779841,521.698299174037,-51.432515742531,485.905311340166,-15.4168926910258,1753.7953361171,-447.07587977048
828.185391219148,114.356312531579,386.792030169482,-31.8303449105357,1147.63189499178,-52.7246834771364,243.550263265356,-42.8617006266977,1234.37867987216,-42.4745710466209,1394.17562907762,-91.3365901359594,323.258668708093,-43.8784655024997,2270.6131358879,-478.888224555534,1094.77118730555,-217.544956501037,706.368963392008,-10.9044102886271,1649.10300198809,-351.244824799025,610.566771636385,-111.58017690505,526.514328540241,-51.4703119529237,486.327805921786,-15.2217707389131,1766.3124499924,-451.16409762411
813.286177461994,121.211210489515,387.883910355936,-30.2281697315845,1138.16625465714,-44.3079827664866,256.868859383262,-50.7243180829765,1263.50131151405,-48.8533001681313,1396.60371431389,-84.0995046343575,325.518384160178,-43.2196619394863,2292.93983397557,-484.130528376033,1101.96648172794,-219.982806871087,707.872723683807,-2.12546758581535,1661.33865805133,-352.297412671172,616.838207778908,-113.704675266298,530.860745719568,-54.9102773800326,486.743251005866,-15.344409624898,1775.1894986121,-467.356858753128
814.395015227836,118.397910560528,384.382976024934,-31.6236885635029,1135.20709378491,-55.9372256112574,240.678998418461,-41.9226086447665,1224.27609248508,-43.1467280266185,1388.86414003274,-86.3925462578027,321.755041481482,-43.2089157298613,2262.8735380976,-471.203874590731,1089.76279852038,-211.595054655544,704.664099048076,-6.23369400977496,1639.26614639438,-344.935373909995,613.907678668235,-112.503810085815,520.562130322296,-43.2136766526023,484.015021245859,-15.0303588445876,1740.81020999773,-440.697797062385
811.622131415106,118.816763421458,391.734088988477,-39.6912625644361,1160.33469524445,-64.7607278912056,238.178048165951,-36.3732945106811,1239.35777218211,-43.4353771284878,1395.39323539494,-89.3021152485015,320.724910137668,-42.402602362162,2275.20110034859,-477.655073006689,1084.63450852406,-204.060010894839,711.437440771527,-9.2356440693577,1651.69910778103,-351.877606809552,613.690059894516,-112.20388794391,525.950069318263,-46.5634871189067,486.654046034562,-15.0658999803435,1768.69808444665,-457.852085938366
822.431291501178,121.411422599389,382.421741597806,-26.5884011795754,1157.65314679773,-56.0377414962229,242.482779464017,-38.8025923026532,1239.37535962532,-44.7711801733494,1387.68945248175,-81.5308221962615,324.700448848023,-44.5873657832796,2285.0016164402,-485.839210061993,1093.3973397543,-211.06298879448,707.910617204204,-11.038755086733,1645.27027773556,-344.765022808653,613.934488823177,-111.304438540136,530.438317733152,-62.0638279569505,486.577809778188,-15.3620454379722,1765.22419914334,-457.568840974277
816.81841301543,116.878329251974,374.421018640185,-27.6857495209301,1144.73994710083,-56.4913022130215,247.373537434756,-48.297165842836,1233.02939184477,-45.9316478416578,1381.53659328376,-88.4990079564448,321.219648723672,-42.6162074091688,2274.80895497953,-480.411538760741,1093.89247038377,-214.132976042854,715.341940154237,-16.1440161048569,1634.84692764297,-336.467096041755,615.32169651238,-111.882345506468,518.362151823745,-47.6975604197011,485.704192774714,-14.8531282891283,1750.26225461656,-446.936972582482
829.531444841893,107.030783761982,388.124544831519,-32.8357311329416,1148.6126767661,-56.2406471309619,227.660741676627,-32.1555066156535,1251.87748348869,-44.6165336770285,1403.27274234908,-89.2232881583384,326.858521206023,-44.8022174473168,2264.62172419928,-467.411236684483,1091.53576874499,-211.219842273253,718.426460765357,-16.3690841935476,1655.88347085608,-352.680862297626,618.621863079371,-112.752397064403,532.934227314592,-58.530332177606,490.555655167443,-15.8432331337846,1776.08504935117,-452.436624770595
830.332203782758,112.555820328636,390.440413177483,-36.6055411056655,1161.2271776854,-54.1028640214018,242.525268925174,-40.4420476620035,1236.00648533145,-46.063079231415,1392.1248235816,-86.6741428381283,322.91524051091,-43.3263725754264,2276.92780314343,-479.757730936405,1091.51517559903,-211.735635184818,711.991097810339,-10.8974311964328,1639.97760364667,-345.093148344875,616.334938011381,-113.781049428581,526.178587615007,-53.2150674002741,488.19447486157,-15.105512158386,1762.08061574545,-452.63155391632
821.087448640068,117.253960624556,390.281268841742,-33.382879682987,1146.90740546228,-57.7568385321909,235.810524191896,-39.2308935307697,1237.38253847733,-46.226826141124,1405.50359102203,-96.5120324867381,324.611172271226,-44.0698896551905,2282.39017739985,-476.54070781011,1096.97003524928,-214.882823960229,700.022935183795,-0.546481514455944,1646.55530289281,-347.366583151031,617.775122966551,-113.181121315543,529.139409360806,-51.9529609636231,487.74897120987,-15.0043349204393,1779.42556096436,-457.262683689226
825.462239071398,117.546168188517,395.153897041409,-41.2574093899486,1149.96937480208,-51.7733973909219,254.56586518859,-46.6806184438408,1262.33907582541,-49.2380901095308,1404.48582118553,-91.2600022306725,328.782435810335,-46.0142937519029,2278.41049829042,-474.484339126548,1094.71990209102,-211.506524644723,712.630887796989,-11.8174724651415,1655.86650968766,-352.96545638044,616.943395805859,-114.088504186524,528.880294095091,-57.2624124146147,486.983367944644,-15.1485539622331,1769.92518692595,-454.769175664856
822.229758458248,119.876887310325,381.011876155569,-32.5374078855428,1152.45189838378,-60.5926060299795,243.577563983623,-45.5845283290951,1231.35115388275,-45.8317142543381,1398.48954156866,-86.7485452237165,322.610906840022,-43.9360364691811,2272.94112974901,-477.092879536904,1080.11224437234,-207.827080362779,703.023656812995,-9.20992318621691,1638.63063360908,-342.099675924514,614.231764560956,-113.517824555845,526.242034110739,-56.1621131197461,485.386732542226,-15.1198559675829,1755.83483852449,-450.920483480013
827.144686516026,117.034012088542,387.404011024223,-34.154972828702,1140.95236684955,-50.509825128627,237.015182902163,-36.2978643541334,1244.74653825636,-48.3367115593848,1392.64568198562,-84.0667017411608,324.893793865234,-44.1135430643289,2301.99540399674,-486.444411001339,1089.18032967037,-208.608993116806,708.288156589736,-10.3954505289392,1650.19243358193,-347.385908545531,617.365745240035,-114.909739280857,519.959474091254,-45.833284973689,488.433474998408,-15.6751309533766,1779.5084022373,-464.505478354452
830.814127810406,112.142083034786,384.999817045678,-34.3885736450279,1148.47225410077,-49.3421238598988,246.004056525702,-44.4802032575333,1220.6657996895,-43.2405861282265,1385.9154365003,-88.531256452011,321.716424934114,-43.4708370026815,2268.48403765814,-474.065110162696,1084.58530705781,-208.755452655584,702.487924976443,-5.15502754052207,1626.84887971487,-340.890933047372,610.88615979916,-111.435739415753,520.339448064549,-48.161626284111,483.503454798461,-14.0789178427494,1759.7486025918,-447.779976807706
824.176362501538,115.365494899152,388.261935447568,-39.4705294941879,1145.1548957829,-54.8718558527026,243.565151068934,-44.5333670880825,1222.46179170018,-40.2100882114497,1380.14844631885,-87.1312773588273,319.708643449245,-42.6542570402646,2273.30932588168,-473.813367414317,1076.54518839051,-205.838013698676,703.042755563949,-5.22688525097999,1642.86417904601,-345.889035689533,611.85106350219,-111.016393935114,519.864439119019,-46.7217250308296,484.498621989252,-14.7872513485649,1748.83994954776,-448.347209409697
829.14653248364,113.820602252359,384.285312859517,-32.0435403074447,1156.64045321224,-61.2962394328339,252.129937410514,-43.1948808135538,1252.49852549494,-49.1626498747589,1402.1859972757,-94.5109488851801,324.269237593229,-43.9155210028665,2265.89158187943,-467.611883131098,1080.49813540229,-201.959025182357,713.978664816559,-7.4803846593748,1638.31055034477,-339.13151551518,619.077753937167,-114.74821837761,530.008900640782,-53.1372178691202,486.429988089244,-15.204986598043,1769.34834881707,-459.788204587218
821.343265432194,112.161063252573,386.889826458725,-41.2206022270718,1150.41119885253,-66.8241904722541,244.746572537438,-42.2842380531275,1212.99105189326,-40.0055505855602,1388.92676194119,-79.5427106012739,317.80997919831,-41.4423988663925,2248.73956161584,-457.798572217095,1076.19304359778,-202.237592780333,690.087791018633,0.681534692055323,1631.47870432965,-348.590418256241,612.744957501969,-113.163288353597,510.571264279812,-48.6753666134178,483.791983095406,-15.0088016257666,1747.46294809786,-452.136773702282
818.374365928872,111.354877391645,384.830846639039,-32.9920929180658,1141.62915500999,-54.6285761248636,248.516900097064,-46.9658680434169,1223.62455903881,-40.5612969294297,1394.37837584881,-93.2949036600791,319.26960978165,-42.8958059950512,2268.05503957938,-469.386574443074,1089.64757654068,-215.301178013897,703.374351713172,-9.32200638164275,1630.20095614555,-342.970844269915,612.833980533808,-111.759560806775,527.248227816717,-55.5185656562454,486.217024983404,-14.7565608396237,1763.06620250082,-451.985169784703
824.663834569488,118.937632573779,391.518989033816,-37.5484013677752,1142.40569629792,-54.6473102406821,240.923153569027,-39.5268678288023,1230.68520299422,-45.9100880745498,1384.80062142608,-88.8427423981482,320.236790051975,-42.3073490419745,2276.13217418347,-474.741113059845,1086.29058590045,-208.073930985633,712.897722976749,-11.7584135743272,1634.94805088161,-343.490848617032,617.432600219222,-113.899272944402,514.735219241468,-48.3921250616406,485.851674248054,-14.9889646810356,1756.29999649787,-449.12411360954
825.673508266271,112.023010018935,385.559920610751,-35.0196708407048,1132.28165390872,-46.8591775266842,245.620029771054,-39.8844423640155,1216.48401581512,-41.906071145231,1392.40597144835,-93.0887673748962,318.092993880225,-41.1702543523341,2262.70439523388,-468.927696949993,1077.43020156321,-202.363348678483,695.982110359736,-1.46227850479706,1630.50588170138,-336.632046836447,616.621352894264,-112.917603723152,518.986282183653,-50.5567703900945,486.347324004158,-15.3919263258537,1728.94457671431,-436.412388231771
822.346703109035,118.66344620041,383.513383216482,-29.6458637368323,1150.16602781519,-52.8893184427872,242.72514998625,-41.8337172442735,1235.7999176448,-44.2537163151132,1402.98459156579,-89.8305780594813,321.581176611324,-43.2030529215959,2268.15640105581,-468.567207588122,1083.67890265886,-214.038397474776,713.090231010051,-10.3669430259271,1642.96895753858,-346.478255880914,619.786087262763,-113.395534366687,521.519887951204,-49.135085382803,491.284187470819,-15.8237254986649,1784.61951480831,-462.663964378903
802.554476851202,127.33687001561,382.896163703812,-33.5225848516806,1135.76378843121,-46.0819009422661,248.964931453653,-42.512803180561,1218.72477418124,-40.7673680142385,1401.31316443917,-97.0475132490574,320.273254750756,-43.1771357208125,2283.25785900823,-478.806867252482,1085.02063757083,-209.013587076875,698.865409024525,-9.38641874550524,1636.68410326207,-344.596380636211,619.860934793746,-114.042969623603,518.381335111161,-53.6787154504037,487.881377790292,-15.1360975394662,1745.16077439925,-446.740782421855
829.498172676021,117.421132072102,387.506506926192,-38.2538624828556,1138.51885585732,-55.8536375080452,251.958784629022,-49.017233182511,1230.1485847508,-45.3033444057288,1385.98411007046,-91.8843559478158,320.494808660938,-42.3002172582804,2259.72559984775,-464.510472555182,1081.86933944538,-209.119462271718,703.752187391106,-5.13261106503492,1640.00338356859,-349.506186107074,615.326646811329,-112.839524305044,519.725838514796,-50.6420837281524,488.863654590506,-15.2233776933605,1755.71501641783,-451.873664313476
829.397188612653,120.28878314506,407.58912707117,-44.8572608279952,1158.76897316152,-58.7806852685639,242.213905920267,-37.9634992856188,1242.16294653006,-44.4987733571074,1406.49359418781,-90.2839592248376,320.307771498635,-41.9050222091599,2285.44831518291,-477.422645733035,1082.81790027864,-207.560565407774,712.625968982108,-12.2226502663879,1641.80703749136,-344.726316539396,618.317250678426,-113.956241322714,531.076246083175,-56.6712647980125,487.590950605656,-15.308782748497,1756.69461921431,-453.588836474888
829.625927942726,114.627720626733,380.189609195407,-31.3001008937517,1147.57246625658,-58.0785377686662,237.454021547187,-40.8762538182708,1221.98737323353,-42.4067790200085,1384.59588053386,-92.8190098458598,317.541478846852,-40.8235508515884,2255.39805606235,-466.68328704845,1086.70332689726,-211.950732699421,705.863770395288,-16.5066736860243,1636.18927882361,-347.079423962514,614.683585075497,-112.924321530003,516.267845351281,-46.2003537689067,487.653096042349,-15.1294092230285,1760.92618354925,-454.19501090757
823.464531147498,118.218413619339,386.696954715981,-35.3561101182889,1138.96559110143,-50.9312246690488,234.207178650731,-38.1708815754254,1236.72799027918,-43.1472253646463,1391.33890988975,-93.8888706998459,320.317639050478,-42.9106656046153,2277.45439548303,-477.164950470135,1085.02196307078,-209.787378215633,712.741076210874,-10.9004733019028,1648.14987851317,-345.026065864891,616.818258847064,-112.962978273277,516.063709709614,-50.2906480364294,490.423823120339,-15.7447419809525,1772.04689524666,-454.195600066525
813.932827603667,124.39663767069,387.237038949669,-37.1316835040408,1140.16433531448,-55.6066361111111,244.62999570518,-42.9923132856321,1216.60322368317,-38.528101089605,1388.89631948196,-87.0947504016396,316.650690510151,-40.8645038024875,2269.79777770833,-473.059290899352,1091.47140150813,-209.267921747031,698.86657973752,-5.64881085578375,1635.69586920019,-339.799669956647,613.244496655799,-111.227299538531,513.716244386609,-52.4099824336058,487.24298257918,-15.2326638967333,1719.48709176651,-435.461960842624
821.384501593751,116.0700873292,384.099595662613,-36.7652780099335,1164.12478218706,-64.523465424493,245.980709866637,-44.8951612178395,1224.74028559463,-40.8740753782178,1392.62643578858,-92.2712885055448,316.514062079787,-41.3108232377006,2264.57301508188,-475.130674610613,1089.83197566234,-214.855291158507,692.134806497123,-6.4129110223838,1640.03815294512,-342.714230273361,617.330279042695,-114.49792969297,517.056161873784,-51.1478748553858,487.488991423949,-14.9712988314296,1760.71559645458,-461.881197373541
831.592712755379,117.094482016366,388.065836478782,-36.7966140295519,1155.30659389673,-57.7727216269483,247.63448311023,-43.0222199575966,1247.03125356596,-45.7688882460931,1405.45340784222,-93.0249451538837,320.063881815876,-43.1714073355996,2277.55604072025,-475.481451975106,1089.31148623528,-211.84832842287,712.783608951656,-11.8855805086258,1646.55582249395,-344.092637712206,617.857185621971,-115.134312325388,521.301111635964,-51.3846687014041,488.028319687377,-15.8351707825501,1746.85137023916,-448.28728835734
820.171233484909,114.603766248522,389.314374064052,-36.4666008341299,1135.19662869978,-54.5520248157046,246.054697330872,-45.910015859812,1213.45425777591,-38.6693985315564,1406.8159729976,-97.8315103927875,314.443048759932,-41.0227328231224,2269.78944557313,-467.720764712969,1079.99850205918,-208.88969748683,698.857764557307,-9.05759051144462,1640.57048569026,-343.028774562338,615.459663728615,-112.178003280045,510.232581864419,-47.6907087221331,487.663572145656,-15.6600638098839,1735.86233590183,-440.057971578931
824.612714930194,110.85027680341,386.531305571268,-36.4464733820686,1153.00459990099,-64.182088681318,254.636389196268,-48.5724386681318,1228.94228589447,-41.054186726754,1398.62175753121,-94.7713023936308,317.864168402733,-42.0686327871725,2271.34787728002,-472.344427197515,1077.79135889868,-203.216608965285,697.72468106246,-1.95299026694223,1656.1364416628,-349.436084405209,618.702744190473,-112.698629761194,527.536577191449,-54.9671103962639,490.523860286226,-15.3315848450284,1751.16506118512,-448.133417582718
823.822812807151,119.123972101481,372.823967337287,-26.8376338337823,1143.31534869765,-55.851674584237,248.046378393379,-45.0441102618995,1220.30885910712,-39.7015379921773,1384.84249474344,-82.5681508347988,316.103661760266,-41.4403034482212,2290.21284619898,-480.884441786069,1089.13453746946,-216.78820972198,694.097507512644,-1.89138988064655,1632.30145615991,-331.16372641415,621.500378905603,-115.925085461481,506.654539434291,-48.6828776812816,490.276650466234,-15.7552648702542,1744.04203274441,-442.784880440464
828.07208502961,111.730103579769,381.879047220041,-31.9952688693032,1143.01388276855,-53.0759947177516,242.183219392661,-39.3222059462396,1218.24041759746,-36.5274716200532,1390.91251673263,-92.8274555902481,316.136128221219,-40.5580587789801,2254.77362585354,-459.073051629004,1073.65781226408,-203.718616768008,695.616600893988,-10.1648214703586,1651.18141917527,-350.052265718297,621.147782080291,-114.005756545268,530.384705444008,-62.542197681828,490.019382553155,-15.7804472253953,1747.02229547734,-452.649893002256
826.192720726086,118.402375747634,378.393570300318,-31.5312834775567,1157.48626019848,-60.1597271697209,240.965788352297,-41.8703730415432,1244.79511208364,-43.0135314140581,1399.38861677961,-89.4370825284918,320.278877418918,-41.8046240034194,2262.12898225756,-464.696554414023,1090.94338910407,-213.006325457968,698.796142696042,-4.29876251198125,1667.38948895124,-356.715477675249,623.679367112483,-115.407828806132,527.572243503365,-54.1645720418806,494.570668864219,-16.7093657435067,1759.5525766738,-454.731490051729
817.043012896787,118.383020258336,377.395869193595,-30.1662069403853,1148.71223612114,-57.328036897187,247.602387791755,-44.5294134963336,1225.13160123263,-39.3790194616824,1387.06188694436,-94.2161160347009,315.908648893802,-40.5581814775067,2275.56364557063,-480.409632570964,1084.3895535477,-210.627751804255,690.289772910558,2.60837517634022,1644.19533706427,-343.817395819855,621.096182879477,-114.455293109242,514.370116406276,-50.3542336620331,490.51599387148,-15.396020851247,1742.71380465073,-440.004567826241
828.415967340105,114.277719210594,385.601234595541,-34.504151302896,1151.29534368962,-57.9742956823412,251.668980059914,-48.0195373902795,1241.09554212775,-43.109868025904,1395.38447614329,-89.5680854271229,317.372655130186,-40.129615973769,2266.61107741793,-467.981222874025,1076.60856897918,-200.801179093933,693.937226634541,-0.851083606093412,1663.04999908245,-353.965254445694,621.296060253521,-115.061971250138,531.225741694762,-57.2554061485945,491.906357941428,-15.8016972524146,1773.32865969739,-466.650304107511
828.361758957938,120.744954672895,379.324809991043,-29.1467064316079,1155.088915282,-62.1702868919595,243.453446511928,-44.0308505237136,1236.03352640166,-42.7760666842277,1378.67096569959,-81.4009197544774,319.886729563167,-42.6130766880962,2295.6845577751,-481.11249090363,1086.08699278879,-207.504715351994,701.733599628866,-11.8977020324025,1667.80745424735,-352.81537954581,622.36456721786,-116.349430386295,521.275470565371,-52.9374878027784,490.615201411977,-15.9436179534123,1753.23829355266,-451.551423834186
813.0511186186,118.516656800099,389.310805625429,-36.7301625803126,1145.98264494425,-57.7633169512427,242.714860335921,-41.7010789573617,1234.5459908196,-40.5583876110316,1385.72707470345,-87.6125325594646,318.475384225625,-41.0356030805749,2264.66428185059,-471.614123658415,1091.40851647782,-212.820343760921,693.153231392643,-2.23108838617571,1661.82908453102,-349.625787842081,620.393555402672,-113.677606616964,526.240644364551,-50.4607034713818,491.593206170895,-16.1088721244937,1734.22564285213,-437.304379916188
827.047363489117,114.663889911329,390.377536816936,-35.2627261643174,1144.56802557255,-46.6418765130502,250.871876735982,-45.3058739850066,1257.73502561514,-43.8987835605185,1399.80816739997,-86.3795866519508,320.907048045962,-42.5064884780193,2296.61480290413,-481.88534765508,1092.2575064832,-208.746481804917,701.35392285136,0.977217146134178,1668.36649261733,-351.613963715597,621.040140248918,-113.812038391424,528.552637666131,-50.1461153461528,494.142926316159,-16.5245547866173,1777.3074984479,-458.493861654469
815.139843308429,117.595567833387,382.615806457689,-33.0386776313723,1149.26354281579,-54.5106957744488,244.56575545704,-45.8396019149646,1235.35635987531,-43.0187011119799,1372.41477536116,-78.1065408669351,319.248666642804,-42.4474009575488,2264.6900449911,-473.446157990476,1083.63368799362,-207.22471654008,694.696165212229,-6.11895152828211,1651.92199926555,-348.502895525402,616.480246166892,-112.513875873715,519.879286215677,-45.5621111768818,488.744199587807,-15.2015498726946,1742.62629139068,-443.143587780253
828.207961493599,114.248602129751,387.718328240589,-35.6867833122773,1134.59104243923,-41.0723487441123,244.619582402506,-42.0871617021474,1249.83789891109,-41.5695603474236,1394.86400069911,-89.1018391579401,320.188755334754,-41.601037427443,2281.00196243054,-470.878143540146,1079.02163987044,-200.419089658119,699.629933428097,-8.75460340508082,1664.95195336272,-352.649460243918,622.504180539796,-114.635394337956,526.198131199887,-46.6696334075805,493.29133891331,-15.8652277937312,1766.74733652176,-450.71265383201
812.057238721896,131.677385399681,398.116772182385,-36.2948548497098,1166.38402280034,-51.2017328830624,244.552317958574,-42.3021334189751,1263.66635438195,-45.5410987040821,1406.73102281759,-92.4477192976357,323.093214511098,-42.7845208853752,2287.16722801734,-467.940358538729,1106.85355833967,-217.424716570674,705.139448654758,-2.20909917422464,1674.27333857007,-352.03964295009,623.075220095505,-114.88704531584,526.125320563748,-56.1981309938389,491.981290688782,-16.0047835274445,1747.27410146666,-448.527946883536
827.808325887896,112.409862825496,381.907034848788,-29.6002673519017,1137.95970068535,-45.6116895916961,238.13355848064,-38.6608948954543,1244.64229958673,-41.2587112648006,1378.96399390775,-81.0760835798618,320.180061593363,-42.3075960750081,2266.41612051835,-465.426233281292,1088.23518060398,-213.48633182075,693.962930138117,-2.71610148341774,1663.96674504793,-352.371272418421,619.843959767987,-114.166043766239,523.686916478614,-51.1938351111512,491.366685863474,-15.2911777911326,1758.92847140418,-456.80846566434
819.738764762873,121.312953485127,389.293691706788,-41.6488803608034,1157.09079939316,-57.5122553250464,244.705485773571,-38.1495331816657,1267.86741480563,-47.6738608536366,1395.44224873802,-95.1191002086344,321.79861308615,-42.6539860128525,2284.7161832449,-471.026754086947,1081.07407012568,-207.322077786585,700.673519368828,-2.80214368888007,1687.42312882117,-352.51021347507,623.30009469043,-114.256262585174,527.257186448959,-52.3068163251504,496.395981082353,-16.3137854398308,1772.65834008656,-460.630356028269
824.356787700376,114.006393149429,378.224718715681,-27.875837455388,1145.65893386724,-55.3006391320347,237.909148322427,-37.2431019466606,1256.45545740999,-44.4566430456796,1386.35964469183,-88.2457521487805,320.260337055326,-41.7891391766963,2289.61783081879,-485.277957008249,1088.37957904503,-210.930538432695,690.752789684788,-0.959740513329233,1695.09157873508,-362.993663955487,623.211382684146,-116.279327578777,527.271909114588,-48.4817670013044,493.011079902919,-15.5502994005756,1749.05342380002,-452.006563176663
825.073789425639,112.487459954717,386.120746668353,-36.547044976413,1162.72588231349,-64.3619772101701,246.283907893497,-43.9386171153035,1264.10563083994,-47.2007503314672,1376.22132730935,-76.2915261950637,323.132772308857,-43.1950210760432,2296.64813352808,-480.131590893053,1085.33385836035,-203.801502741556,709.750521245258,-5.31565899830833,1693.57174569669,-364.837442985445,626.146377402447,-115.80482464963,520.671724405277,-42.048370250322,495.976624919632,-15.4659568194842,1716.38155377762,-445.303536117467
823.592686341232,114.567790491626,394.888983461232,-31.7205923243309,1166.48423841824,-59.9528331421136,255.170474109767,-49.7000253502079,1298.54425375865,-53.6363357689072,1419.07677018063,-96.7522226410282,328.033123133832,-43.1955609495603,2288.56829216177,-464.359450573337,1104.44036268008,-213.478108220263,701.268883289178,2.23920175808243,1705.86586081345,-363.179034681104,636.1194086922,-117.883009136489,531.963296028826,-51.9521826418301,498.907736444116,-15.6180113001682,1696.95166739823,-436.318758789015
834.77981074231,113.956000485381,390.086161757311,-34.5939419931723,1161.87991784011,-54.2189455159877,255.908199894725,-46.5001091142077,1279.00832978719,-52.7727846291921,1411.93461381541,-93.158243254429,326.428088323415,-43.3032343599393,2274.04861945458,-469.376301031772,1099.53882422665,-210.983783482409,704.788280225521,-6.3714541895354,1705.58885599598,-365.084750682613,635.537962302887,-117.530432408347,527.976194322197,-48.9399314102416,496.870573389295,-15.4950207137028,1702.740860775,-428.901434635454
839.636194704019,113.452356658207,397.931039548415,-38.2168942157757,1159.65871367755,-58.7341543205873,250.882471894416,-44.0238796366642,1296.99536115874,-55.6607177645693,1404.70362782092,-90.0028973720374,328.602459070263,-44.1339982720338,2314.14678546197,-482.778685089118,1104.28473607279,-215.41105500606,700.636359901909,1.22856698656391,1721.1240939293,-373.911541514192,631.938388758739,-115.083783506419,543.473041310471,-57.3239028043444,500.210788423144,-16.7305570627593,1755.8280954529,-457.210537981658
822.249786934456,118.897467644691,396.814392170063,-37.0159873135466,1163.25928775486,-66.1759857592841,244.154157368019,-43.6784432875621,1274.04938781454,-50.7433223692008,1403.65226754298,-84.5758865665062,325.527055815834,-42.3562073226121,2293.51379736423,-483.149196466643,1114.75915413451,-219.140636674949,707.044511181235,-3.64573559560112,1702.34987135199,-361.233557600516,629.922900917159,-116.481326804418,537.893035432387,-52.5969890277029,497.061151971929,-16.2747581549789,1734.65300013563,-443.309887090345
821.333284914139,116.939581222059,393.19761183557,-36.8766914441325,1162.67406205407,-60.2052326928266,245.951881246125,-43.0738526026019,1284.04915987307,-53.8776867700707,1412.62659128784,-102.074086259402,328.28086003162,-45.6802999098715,2309.27956862156,-483.918863329064,1098.36255677711,-209.925249187957,711.254396666448,-7.23464923085989,1712.47215247893,-366.494879814507,630.918720015374,-116.764444872118,531.797574976385,-51.2045307000972,496.578252630704,-15.9297907725612,1740.0830951392,-449.23943662063
836.684754857301,115.446350500023,389.743720933573,-30.9167911446286,1180.96342935567,-69.4140619924503,250.075898859858,-47.3571770753317,1304.34674177058,-54.772368707297,1414.96094384751,-88.1624608000272,330.581387151341,-45.725508863664,2303.25252599519,-479.643376182256,1105.77914177394,-216.060180227048,709.96500971075,-8.2388270605806,1729.52549122916,-371.526606003789,635.362046719481,-118.017190515498,555.334003303493,-66.2431351595785,497.801387682221,-15.7037407498473,1760.0855981288,-450.975122890241
822.666927134166,122.117410513715,376.9890228327,-27.6643774762943,1160.11590399502,-56.8379681090116,247.770231376052,-42.5862010312368,1277.82985187836,-52.8887906328457,1397.55920032828,-79.9184029768854,327.130652697678,-44.3628781949515,2270.8296716901,-457.338677144233,1097.46331763721,-212.330246634325,699.715718435635,-0.46616033229504,1715.67706653735,-370.461730738782,626.664689088242,-115.415127683342,545.828221909781,-59.814778892675,495.036220781304,-15.7791018618333,1739.13974228581,-444.931102676149
832.731537760612,106.995830030757,380.873924407181,-29.6581443846913,1162.19380759487,-51.1148650065556,251.90376374281,-48.2277124018043,1291.70433964285,-53.8805982697758,1396.84540478405,-80.4921515006761,327.600699366745,-42.7730832013868,2292.79642287972,-477.231397993559,1107.35413383805,-213.606373981037,714.707870580122,-4.88371737644472,1710.03439805619,-366.357768236451,629.711824842772,-116.368722304505,537.635018209998,-51.9155960380257,496.946061817948,-15.7325673554651,1768.04789392784,-459.649114643437
845.354950154587,109.094507401473,391.889146402741,-31.657101686535,1173.64922140355,-61.6584788699075,245.878816171624,-39.9643141550968,1285.38955596005,-54.3115321277407,1401.93109680781,-89.5526311388365,328.652946678269,-43.8649520321043,2293.38215065219,-468.147717140077,1100.45719117949,-206.959077118549,703.981291050697,-6.02361668174025,1719.04195357853,-373.043875046076,625.490771586326,-114.304152012182,539.433374243127,-55.9617410349583,496.076111040769,-16.1581620730589,1735.3734938618,-448.806760933666
823.639307952631,122.142774652837,392.966331593124,-31.3892160037081,1156.05647351257,-58.4669784541377,251.169420756574,-44.2163407278556,1287.62394613631,-53.6754995026246,1400.16338668141,-92.9979622598768,326.203999827042,-44.8501732121253,2303.09229355846,-484.971748111239,1101.90339162823,-220.902493315941,711.87500892792,-8.85760745486346,1714.8775222949,-367.375405373273,626.872970749398,-114.94551060567,541.829716494345,-56.2533703796462,495.864931411343,-15.6009196944369,1746.33694788589,-447.396097371698
845.238154275386,108.108212290405,391.268745346392,-37.5821147178112,1160.68554264858,-56.446878314868,249.722001306877,-48.1400861840604,1311.50790640123,-58.564591619862,1416.69974423491,-91.9109016095996,332.086968992746,-45.3878089808018,2301.27612523655,-476.115992858801,1103.05557386817,-208.960768141499,711.618056018373,-6.98086259769137,1725.63750172287,-370.476399444725,632.822855328834,-118.85436982005,554.401869466388,-59.0024563780926,500.917049173439,-16.2962957135246,1762.87383157969,-454.068609926248
838.704438612887,117.966365092521,396.760208719638,-35.7946808350582,1149.45642971188,-50.9146082538754,250.012790787505,-47.0900991394853,1289.3442539821,-54.4354069242384,1393.02017666992,-82.6065879302164,328.003122149807,-44.2608151065364,2293.08211304391,-471.058034576661,1097.33097213847,-211.928041522975,701.752191307708,-2.52220700039092,1708.52502121058,-365.665121202238,631.729643983415,-118.359122569855,543.101409371432,-57.0887181140895,497.982003059902,-16.1094807738503,1730.05733977871,-435.181468180627
825.837859281011,116.794660927678,403.698388382557,-40.3812376423306,1157.64209468462,-55.8128421409486,252.066743788768,-45.121300600121,1300.25606291008,-55.237831566634,1397.07416576073,-91.0879833148269,329.05813213045,-44.4089294059634,2321.36073590947,-484.772507244413,1108.04283055506,-214.950604576048,729.325663603089,-16.2691675113582,1709.81382593408,-363.879739594766,630.12055464307,-116.356386300925,545.68303631049,-56.8391647222439,499.418769562857,-15.9714506228894,1775.35262385631,-463.97983343
849.244371030993,109.75519442444,391.168668244566,-31.5712554059027,1162.60450097447,-59.3440466676345,253.597734171258,-46.1557042215496,1303.23089912015,-59.4310921594938,1408.85592798911,-89.2261865055343,331.907680465983,-44.8887106380303,2295.68603574702,-473.994912699635,1103.80462968325,-214.13375621908,725.054504349605,-11.0896016288289,1719.19397500758,-377.936431864894,629.634831611186,-114.925003300163,542.946092314666,-58.3133614502029,497.768200503995,-16.3285595906096,1746.47460798954,-454.048350990811
825.755299172464,117.332939188033,390.097484394435,-32.7715407074584,1159.36813871688,-62.9524472181219,243.030684157614,-43.3503488738066,1296.83005343107,-57.6466029611721,1389.83833384346,-85.0216241856651,329.724163476485,-45.3068721247006,2316.32998178296,-492.583068730987,1104.27721458387,-212.914151987825,721.489594276189,-11.9851803559531,1720.18807314997,-371.055400309777,626.782939358421,-114.502070365399,543.401015640057,-56.243327996523,497.617270492758,-16.4772704591934,1758.72916668295,-459.457723192781
832.52347456283,118.707955984979,388.635751590333,-33.5920263281515,1184.29669377861,-67.0312796138534,255.081694202287,-44.7361380135388,1318.20974191005,-60.8354962232533,1413.84073824947,-88.3957101867592,333.505452325254,-46.316655913771,2325.00744250849,-482.898481659254,1111.16450167541,-214.924868595647,734.992863216165,-16.4739131794161,1738.36940619043,-381.455930409224,633.070635591714,-117.899648828947,551.46387385537,-58.5976735654554,501.194360458679,-16.6495777540433,1768.57416526602,-460.463284803439
834.0259510911,119.859817215463,395.794541689533,-37.2266835084647,1170.80850976706,-67.3953863439516,251.900505108405,-43.3686488087586,1290.09211887052,-56.8803187607981,1412.16782030421,-95.9959590623735,329.479637021092,-44.2135134612065,2298.80865884231,-473.891852753857,1103.35228809576,-211.062508587354,725.0941229513,-10.42720899758,1727.09183373343,-375.500950415764,626.274005143366,-116.519639765933,540.924224737789,-57.1172157877662,494.990522513823,-15.8686904597207,1740.14810440954,-450.545373123364
821.557680431152,122.427631790033,398.722702797992,-37.9274909658634,1167.13456077293,-62.3950926559693,252.692866125606,-44.6418375185566,1301.4771014477,-58.0070748725852,1403.04888609596,-87.111574114077,330.340354593753,-45.5100886964534,2305.27100107655,-482.035701884276,1100.41384543505,-214.508532651981,727.061020316418,-15.9821748395982,1717.79198925866,-372.729499481008,625.110501476297,-114.384885021338,545.100858376518,-54.6131301470801,496.904489188246,-16.6996494716115,1754.48381177024,-448.252799828193
836.143013788145,116.723541990896,402.715512051219,-38.0054436970325,1163.93347604062,-57.2636925629497,244.857213333686,-39.3337414523783,1288.74051734878,-57.653579054069,1402.32450563212,-89.0116508717538,327.818997561502,-44.1580229162098,2314.05999890181,-487.288743461835,1094.38492742693,-208.398642297843,711.388843440663,-2.82014765268647,1704.78991941074,-362.687048776968,623.203676265813,-115.864214245459,533.701918592689,-52.1717397081219,492.898233756378,-15.8116057581128,1741.76826553559,-449.29388002528
832.152004996626,113.421744156652,395.035791043671,-34.9732642045832,1160.27278402022,-55.0279189462722,246.235208552575,-40.9549669946682,1286.19621275274,-53.7147695750653,1398.15682742295,-90.1900879253141,324.810877952791,-42.7285891710094,2291.9483618564,-473.983565812556,1096.99982212957,-212.951805272324,709.803749954709,-4.7020630257704,1708.83026630987,-371.603068300207,620.32177608156,-114.440152512776,540.937425034302,-55.0867591639169,492.081706151133,-15.6287378917669,1722.96176059412,-432.081425466238
827.884449682129,120.721106349676,401.680075888188,-40.0116665480173,1168.31639805718,-65.6806998813014,247.018376262766,-43.2117541833078,1303.76781531377,-56.3893616015997,1409.04420495221,-95.6335057363867,330.805401734122,-45.8951856568329,2318.838716267,-488.214545835363,1108.29526042785,-213.063400191584,725.731098659105,-8.5099395436984,1727.11671425418,-376.253398089167,624.414892876152,-115.831325881574,545.490281148983,-58.3632904850027,495.485526304276,-15.8868281559341,1756.83724693083,-449.950807338019
810.480813446781,128.106491831693,393.46191608014,-37.2025123130798,1153.24097041803,-60.8259707491163,248.6038294487,-46.5146986440663,1285.41972014947,-56.7719137945371,1394.61727589224,-85.1068633024145,325.757735818843,-44.0049957677769,2300.48338720112,-476.738434304455,1099.78393022666,-212.023675007331,709.424987477544,-4.53364920943565,1705.41748471089,-367.253541733308,619.805667302308,-113.823948149313,532.931983638209,-53.5149018868212,490.972994535433,-15.1891663567821,1726.11458532146,-435.776896573267
838.104445230326,104.704418106957,391.066736825013,-34.8820310891097,1151.64409326707,-59.4478985259755,249.534995204004,-49.6839416414703,1290.38095618103,-53.7814063268836,1391.412566432,-84.7286206549416,325.598571644571,-43.0050668517013,2273.48607178414,-458.693857558409,1088.04024208191,-209.010524313258,714.592259567565,-4.99327189156862,1705.39302419167,-361.459397862978,620.24997078704,-113.760597008009,542.754712068081,-57.9339248956632,492.721113538753,-15.5512562006408,1737.32566881238,-444.280632582114
831.763682204421,111.934162902468,394.453120051904,-37.2849984998308,1162.02138086865,-56.8724450459974,243.773074869201,-37.4668464690517,1309.34171209333,-59.1797450456978,1404.77136370863,-94.7594481621521,330.023848912735,-44.5130470130409,2313.76863393622,-492.855643507879,1102.78066859999,-210.541065865768,715.509951404886,-5.77853264607,1699.94775630013,-363.578585454372,620.140812340184,-114.3502512619,540.191477135554,-52.7383835446015,492.178743486679,-15.1072373475446,1731.10355795818,-449.1514790036
826.587088222279,111.34260288598,393.225473146379,-36.0043052279202,1137.90751079709,-52.0907272976875,252.826598574391,-45.5121107376727,1287.66957218875,-55.3081108287126,1401.02613707116,-93.0745753942111,324.217018774452,-41.5845721031605,2278.10466753391,-466.482532354468,1089.33474807995,-212.448400250736,715.246643027949,-8.8588769756189,1696.67436585566,-361.037702476231,620.144592918286,-114.605676193465,544.894692203112,-58.0525368902854,492.342140952282,-15.3916423440992,1731.07639481537,-437.040558693607
824.511548823884,112.518401045457,389.666703931231,-37.0810057979392,1156.25212174074,-57.6547200384547,254.600065351565,-48.5558121022261,1302.41256780804,-56.952999642038,1389.24330814155,-82.060778652381,328.695180061912,-44.4099006329675,2296.92566346589,-474.760206313904,1100.46028914832,-213.264734405505,715.3156044206,-7.75353720999523,1719.37851394031,-372.766584265555,626.187166668479,-116.943010687942,550.838790458806,-59.1182496103631,496.129856903355,-16.0024663455514,1758.7494694021,-455.787138854505
819.822037153064,119.05270518626,391.194214273726,-33.526270771161,1158.52688383752,-55.8701036786464,246.601408206151,-44.2433528108298,1285.79168080382,-54.3313563923554,1381.7387759249,-82.1692116022783,328.135059461036,-44.8409042927609,2275.89527939648,-467.508248138225,1098.20322520293,-212.238883914593,711.44552645174,-8.47489466318795,1694.20396478581,-358.122662015565,621.827083312164,-115.216822404985,535.907762368105,-55.5019599359018,491.888342969022,-15.4745601013492,1745.34282226861,-444.753406486984
817.913922741631,119.059485227522,395.516165095769,-39.512971130491,1138.3492757604,-48.7851749354298,251.976375939206,-47.6593323211516,1294.29125969484,-55.6870971298029,1390.72315389421,-90.3840794173601,329.454499103191,-45.0950571128655,2293.35633507851,-478.941912795507,1108.57398237201,-217.950619702351,714.603761038428,-6.98928271591491,1706.98716549523,-367.904279255449,623.351031858779,-115.937265548156,541.159376272311,-52.3453559253225,492.992526916157,-15.4960894681134,1767.34510038253,-457.526651344878
819.542072767754,122.951625711976,394.615475558915,-36.9117871183157,1154.30238706739,-59.4924926106658,249.700472982817,-45.3216104432337,1313.53159157832,-58.4074295310818,1396.230706031,-84.2456823775021,331.40066731024,-45.4065837640188,2290.27715425819,-471.489658000346,1102.04107085552,-214.330764934173,727.640131306362,-16.3662474036121,1699.49185299705,-361.754533651227,621.113848057357,-112.832761443396,548.586930591199,-64.1324330794079,492.264924139676,-15.7374327274862,1743.47830039539,-448.325005267395
817.617439774612,123.292934924408,392.477494055533,-34.8657982407299,1150.60532928873,-54.0996807853439,242.334722814814,-40.0844199818804,1291.16475452178,-56.1969215051083,1382.1088632357,-83.8675900352874,328.419747003756,-44.5229236991072,2295.49348971535,-487.798621824492,1088.64843407544,-210.107022979194,719.490072452589,-6.96322945609878,1699.0769072927,-364.672004512446,619.159869456883,-114.322733976006,549.921158663126,-61.0760031247473,490.622570443603,-15.1935571516019,1736.02325246473,-445.210914572855
839.389393538004,109.356461872463,402.908612445069,-41.7133871515353,1138.50708633658,-48.1905039725051,246.496940360912,-43.7640719801343,1300.80510601531,-55.4542894907164,1407.52217482941,-97.4215843376532,329.684233727685,-44.957574777102,2300.79894407897,-476.879672305787,1102.93822288611,-212.349550490424,714.945786807811,-0.411850147124431,1713.69201362238,-371.949905295082,621.158180454516,-113.147568052069,553.791610252908,-62.3023989976995,494.17596756053,-15.413873200409,1738.63990931756,-440.84491432549
822.558976848636,113.80575840588,385.51920924472,-34.5367074294761,1155.60373279575,-57.1994642546872,245.771712116259,-41.6741311491214,1282.03938565507,-55.5099709000879,1384.07971997093,-78.4054723686201,328.232941659869,-44.2178231787883,2283.50247117809,-482.045112861268,1091.387312558,-208.23226271555,715.413919870657,-4.37569530616365,1687.52068833688,-365.814890041532,617.680212921945,-113.240452749724,535.493442471912,-54.4791329977657,488.865889816357,-14.6861167078814,1732.54182713298,-445.656176193705
819.741826960271,118.069439214253,384.369283653498,-29.7175879402163,1152.70638815149,-53.9079562474294,248.419708424383,-47.3037987174239,1281.92288012117,-53.3746626197741,1391.65240080968,-83.5727349490375,330.096644056296,-45.9579031450476,2281.17978885439,-477.984859925237,1092.10422100751,-210.81917121628,714.711596699885,-5.68856572373614,1698.42808342845,-367.524789047163,615.736050789774,-112.383497119623,547.981480639265,-57.1078384827841,490.234760459616,-15.429095987748,1756.29330824845,-458.990393354242
827.567131912768,116.722822267274,395.099503070362,-38.2228542365555,1154.25658639415,-53.5525288040839,242.243809987853,-38.3961711956405,1305.27298004562,-56.4822119393092,1418.03285418218,-98.677216717892,332.475789804329,-46.4901718075062,2282.79206965629,-463.09264690859,1097.5216724029,-213.573859725249,726.27638829098,-15.915641154542,1704.67694079008,-372.392535917034,618.925089622049,-114.461242526999,554.453348126407,-63.8930576890912,488.584781547607,-15.4782862696397,1740.8143469079,-447.248399630536
822.379389710849,116.154791502576,397.944797329828,-40.6829802499237,1150.16172646945,-56.1013511503646,243.453308285078,-43.2977749239322,1268.04765444229,-51.3335459083976,1399.90770566954,-92.6182993025468,328.255804010895,-44.6840004162134,2289.19094861887,-481.744470114753,1073.16866189812,-202.08841256672,711.290523546192,-2.1448588609628,1673.62029227927,-353.113479760623,613.810798161614,-112.575226035888,543.985760186603,-64.4493205530609,485.673544393373,-14.6496209565354,1746.33436945765,-455.303633073166
810.238543153983,127.183470760573,395.537241493324,-34.0374541295193,1150.54027313061,-57.1611287742146,254.691625667171,-47.5044430117494,1283.54004993584,-51.4350734859098,1394.09121349685,-91.6629821731116,327.255995442988,-43.6091528704358,2284.57148632302,-474.711785112684,1084.41409067797,-205.98495536883,723.072936935967,-8.56260665926578,1693.03343279174,-365.829874277166,617.326724366617,-113.84659405588,543.160113209323,-57.9806981769213,488.868693104019,-15.1494992938044,1740.20361105992,-439.355012653345
843.045515449368,111.165706784846,393.426760449595,-31.9022669465422,1150.89829034168,-54.5235730713084,237.664021076334,-38.7645196787817,1272.33590125428,-51.7083942698434,1396.13494826151,-87.8795694136659,328.88052797634,-44.6047911553671,2306.52993671192,-480.002891045162,1092.01164011818,-208.534589875996,700.674860414644,-4.76314916890782,1672.38171431179,-354.802227089554,612.175617287618,-111.103441169358,539.255554184121,-55.6957134315261,486.218949702513,-14.357161254409,1733.034122275,-442.156564916225
824.84568068314,117.804755866733,394.445760260978,-37.8224524166358,1131.44696413703,-43.3266711069855,250.593888005456,-45.5075795080555,1273.34784684961,-51.7803883119976,1382.96528964397,-84.1845325112848,325.108235029081,-44.0127252296273,2276.41891318012,-472.993354347126,1084.37528315171,-205.254872485991,716.801104488629,-11.2599644430932,1674.23900253316,-350.916964791769,613.371348826162,-111.862991603779,543.695003251832,-62.9055011256198,486.54629968698,-14.9299868587506,1738.70615423172,-446.011698100196
814.893124561646,120.439863466903,397.221606143482,-36.638047426283,1143.98887747999,-57.3445012548823,238.824473477741,-38.9883891334478,1294.46601833924,-55.3431510739456,1401.62735652992,-90.1988030646177,329.819632756986,-44.4901612838553,2293.65129194804,-476.993690047983,1091.17025042753,-206.746144384512,722.947306547137,-3.23061239711344,1704.3795478321,-362.091188991552,617.507717407264,-112.611626216451,546.663851977087,-61.0117684029695,492.066944501013,-15.8024481657078,1747.03995202525,-439.97612166017
828.118292595974,113.556316837673,393.147527855498,-36.3312379662902,1151.23887789522,-56.2923167605681,244.376670213996,-38.5335416054936,1275.2425607424,-52.099260787608,1387.19884833254,-85.6617261736409,328.057443890452,-44.00201419358,2279.79380155591,-477.790101917247,1104.40019772416,-217.448035907644,719.023074247502,-19.2705248007256,1679.58939808039,-355.121423729125,616.033963536856,-111.436330862368,538.587153711687,-53.2405869485566,488.308130793006,-14.5687718971433,1747.79253814665,-447.577611786059
820.247154297139,118.629694652377,392.057015891704,-33.207503984698,1157.81300951534,-63.1857242379382,252.001608736163,-45.8058540624741,1287.19843911966,-56.133576891091,1398.32890285614,-90.0382794008366,329.668043722537,-46.1234908053192,2286.77555358704,-471.048235326998,1087.47759465549,-211.374753329168,702.996522426468,0.433027367492266,1673.22360110913,-359.377003499391,617.635676292753,-113.090947824465,541.207712019158,-55.9129832500259,491.104654626125,-15.3704450175402,1748.83496080833,-445.670763760305
838.937618936838,109.203388034026,406.212064409109,-41.2612361017033,1146.18566527701,-51.0184934243615,249.120067566904,-41.8369362676349,1313.01396153175,-57.230264501944,1408.70078249548,-86.2518256859346,336.075144582503,-47.043502353718,2312.37616096812,-479.61048479722,1099.65169216089,-207.37169584,715.30231056966,-3.29897838016702,1703.04686709312,-365.481309859972,624.091531803171,-114.998404391924,554.421290063182,-55.67638826534,496.054712584132,-15.9748996359098,1762.02282918926,-447.616880978046
840.296506360299,108.084028126378,395.880884683083,-35.9514165822706,1156.41355414929,-57.6634734277341,240.015861803851,-35.7702469758256,1287.08875901578,-53.365700992053,1405.10344672191,-91.8188617678868,331.425646538047,-45.4214651866543,2295.34308891524,-475.030661132919,1098.56470866447,-211.132438803549,717.611492199963,-8.95947886091355,1676.0785104144,-351.829546066695,621.690339953529,-114.037975640614,538.498783840705,-53.1255055987591,492.687090296397,-15.3606066881025,1760.92155492095,-454.276765336434
828.757183405435,116.518549248298,394.394477771367,-31.3946317760918,1154.10112101111,-52.8578044737986,254.162456524275,-44.8504029086599,1302.55733842538,-57.2059298394907,1407.99358216638,-87.9831089973585,331.638473261946,-44.1780683108358,2308.55241429011,-478.50581005761,1101.30201136637,-212.687293460936,720.414510511207,-8.7585981964443,1698.67757491986,-361.492755424507,624.396400000682,-114.847819789879,545.257954057259,-55.5998921784776,494.749407127964,-15.6129370377219,1751.24943773913,-447.42734746837
847.114704219338,114.688233611071,403.509487187848,-36.0294992541355,1169.97432442736,-51.256397206518,252.60125835243,-43.2061611684761,1303.20626228667,-54.2672780411487,1422.03033600052,-93.4456700966081,335.888405370395,-47.203009620337,2308.51407071152,-475.735723676449,1096.94260607481,-206.866347540332,721.209884045554,-8.52030729653466,1680.78614528123,-357.013820815961,623.008457568762,-113.607792706269,536.01150510593,-53.7778696285138,492.771325586997,-14.8404591531049,1750.92201684157,-443.071379599715
821.264636206609,122.782525105993,399.40829971474,-33.3332075564885,1162.54775107507,-58.1667397172646,248.471845261548,-41.9979194339512,1288.07638992397,-50.9152519073185,1412.13862723018,-90.0279515267369,332.440535638305,-45.0923111198397,2301.37985231876,-477.582651700999,1098.12295392084,-210.410606888299,719.465540839914,-12.0170187149678,1678.89571437817,-353.81523423289,623.820308141962,-113.818574067669,543.754232257158,-57.2738513933401,493.348212534556,-14.8818636929134,1766.25534626207,-453.986968805969
828.692064729254,118.765972144736,397.706164029999,-38.1107443536165,1164.0538367227,-58.3689702711881,240.015013816991,-36.0635342560864,1312.7847316072,-57.5282997684367,1422.69100545641,-92.1721772611203,335.72743567367,-47.127871496604,2339.92097825505,-499.729375840669,1114.49952677792,-219.47768691568,731.141725231818,-12.0947419603251,1705.56163867421,-364.442968998153,627.907382886134,-115.866367318665,545.497483577666,-55.0981470003479,498.821021965493,-16.0128330448882,1759.78399777696,-449.531442668512
827.460114063636,118.343711700649,405.959368504246,-42.5194201392056,1151.4019355512,-50.4880584745494,250.320426197305,-45.1007363024657,1285.4703917671,-51.8996700936486,1415.57143471614,-97.6677674597731,333.175238012291,-45.9771545438746,2320.94864049617,-482.408081551366,1107.49396764738,-214.467230563024,724.109234666015,-9.13467354315631,1686.11318253528,-358.205310018155,621.088845058539,-113.79013056436,539.406085125795,-50.1563444899761,492.557424123522,-14.8401912818537,1750.28307182979,-447.077841425366
845.589343770309,109.407446676885,392.46100961748,-35.0530091156702,1162.43683447673,-51.9353068792417,254.646031580549,-45.6743524088436,1288.66980571891,-54.1401149241375,1419.13445051402,-98.5472612523468,330.608412052609,-44.9441319265253,2308.24990786204,-477.416133440568,1108.09223614569,-217.857536917468,728.755510690788,-18.3069427328598,1686.9971713315,-358.575199402235,621.414425743836,-114.426981220554,551.446836503194,-60.391940689953,492.924776160215,-14.8095873327358,1760.42128102238,-451.323199326132
856.041730167282,106.495120165087,399.228572555752,-35.2691530812162,1154.42945240105,-49.4966928924354,258.945087970538,-48.0763520813634,1316.99974494195,-60.2459033544833,1424.32469828336,-94.551104762916,337.377619282882,-47.4470370853614,2319.45097863743,-487.475927153445,1112.69879994001,-219.894328387389,729.822526924032,-3.25463949526003,1699.06669086595,-366.895598641249,626.051640138894,-116.187368279358,546.081474460312,-55.6907058246365,494.941565774158,-15.2077846375032,1770.22050977656,-453.07190922973
835.759239409022,119.836810533785,389.42455312842,-31.2738709591627,1164.623652334,-56.379960334165,249.26334656662,-45.2338581802325,1273.15015908982,-49.518163129716,1403.17901467981,-93.3955767535934,331.672645532348,-45.9436897477237,2284.95270978362,-464.611560326642,1104.70964292685,-211.199440312168,716.42553553237,-10.748909265234,1677.18878600011,-353.813407265747,621.004045741946,-114.2373240058,535.768861814326,-51.9209705452149,491.520560082857,-14.9336226443866,1749.81877100844,-451.84181934673
818.696136543983,131.725227078587,388.529012860313,-33.0571531392986,1156.73610147219,-53.9850693307883,247.576237607921,-43.4984258961522,1286.03291713367,-51.2670882964279,1400.80858562118,-89.7928405356206,332.255857881416,-47.0480659209182,2307.14591294316,-485.140005964114,1114.21733470655,-216.610961979119,725.399720471544,-15.1634937330788,1697.09873660998,-368.337241472306,620.559201435807,-113.888490921749,530.678048082956,-46.5078691887954,494.204994471586,-15.3440710312676,1762.3801199707,-449.688191618272
