864.777031745004,106.242767523313,400.809715333343,-34.5708581815973,1167.20387831129,-59.3482512495251,243.774575286346,-41.0140902895061,1278.35140191928,-54.400757405647,1425.00413207002,-90.3737455567067,333.272140787858,-46.4861164848697,2291.01595287068,-475.222285965866,1137.63627487826,-227.928954755166,733.524267318694,-19.5577339672193,1695.09215595806,-362.053932515016,629.535279797423,-115.257557403195,543.714043482377,-57.8202127438102,501.93756094941,-17.0499925740303,1763.03068914121,-451.241917092521
850.589754091589,116.25432615225,381.928727176371,-28.0607733942921,1183.58237805012,-63.7329188224858,250.965977517401,-44.3241595071314,1259.62943555915,-54.1542268906795,1428.75270452819,-93.183338032171,330.555609123406,-46.2784863107826,2287.78537781209,-473.729406721193,1116.50176896148,-220.506970695119,714.073030361101,-17.8512428589546,1659.65934060806,-345.392279853187,627.085073947563,-115.80178495262,528.424307813641,-52.1810060525901,496.922394379859,-15.9143241431965,1754.21052890613,-455.777630299559
860.780269968709,106.763643473809,398.738024481067,-38.4398462946943,1166.03049018806,-54.6504014717681,258.090443038889,-51.241773097188,1262.7159889413,-53.6885644417394,1436.52021383477,-100.787276121481,329.521919271469,-44.9343683957669,2291.3403111756,-476.03946278845,1123.3657856433,-222.218908244569,714.997007471347,-10.8249019160391,1668.73333451885,-353.924244033423,627.186740087406,-114.561588299136,531.916641968475,-52.9358437150014,498.827969557272,-16.062433735027,1753.63446993541,-447.580534279475
855.932672586053,120.87676584508,416.615143204749,-43.695531741166,1171.59593844748,-61.1728351582968,247.652635602838,-44.4382978005039,1293.73860619364,-59.7273872882155,1459.91189012503,-108.375789000052,331.343962131629,-44.3423924489466,2311.57994990999,-484.204614291734,1124.05379598056,-215.940575298984,731.531932596738,-10.7852517508294,1704.10037317037,-362.56056703348,635.611848561092,-117.88121349801,549.832263825624,-61.2203707441361,505.018150977928,-17.3326590015166,1746.41784195992,-443.232033126779
855.620050143131,117.395200266836,392.168630080104,-36.229366130251,1168.14898823518,-59.3233954038806,258.03734210854,-50.4666067288067,1259.77713934748,-51.312098205944,1442.2573064189,-106.489267296511,329.302135879212,-44.1033476347567,2291.18297027417,-482.102337818104,1124.51841494196,-222.347837443771,716.499856969256,-13.0837708846223,1685.42344728303,-351.517653870986,632.397504442344,-116.931103387587,544.360872217222,-58.7871117016751,501.498448230639,-16.7335555278039,1733.9385131306,-445.282161914864
847.431612688946,117.264194251461,400.559317625849,-35.157272194407,1163.68272830094,-54.2788187711745,254.393465449435,-49.8666730404754,1272.13939265461,-55.072637632301,1434.01757242263,-93.4923927961036,330.742880160008,-44.8532221341802,2301.11791278294,-481.778447518082,1121.06733353515,-218.743870347604,714.468123510458,-9.78397124231728,1679.25388275204,-358.62088613805,631.438101744419,-116.087778335584,534.857297535888,-49.9204846757723,503.189098840233,-16.3325738365453,1747.61853187442,-437.93522363824
868.518524403499,112.819622830527,408.341647224834,-38.7996540291035,1179.20290570332,-57.7497054275142,253.69876926156,-48.2542923693596,1295.39647710004,-59.5276613532133,1452.19082814075,-103.858662726775,335.478560466205,-46.296590342054,2322.12870343547,-489.136123834952,1131.4387279301,-216.368616237898,735.005017410469,-11.3690794248283,1690.75374187657,-351.468867318513,636.238710486743,-116.151283482378,550.529925101526,-61.1582787475056,505.565831647185,-17.1674051034946,1755.10682716204,-449.993583613482
852.510808743973,114.560020830383,396.256968672186,-40.0515747581206,1179.28463411412,-64.4466283560497,251.414413571088,-45.8755904792823,1268.18939299908,-54.4564262725025,1448.93435728267,-106.457361103531,332.778142106689,-46.6873221641028,2302.91848505328,-485.688023936786,1135.94987369186,-225.754839868776,727.130638048027,-22.3882542806829,1665.69792595133,-341.351525802039,633.260444119592,-115.57342785121,525.85840234009,-49.739482734992,502.650287538283,-16.3713600099653,1748.47929007009,-444.965271382677
859.550339478465,110.172575205821,396.477509330036,-33.2927436899195,1181.52516715252,-59.3479598249099,243.757915497915,-36.9902287270062,1272.76152186796,-51.6503603207215,1441.69057439257,-97.4227942629099,333.55810401898,-45.8746036606504,2299.54231204028,-484.405941306177,1133.65791668227,-223.169631549288,721.589284445991,-13.47995188457,1683.07541386046,-343.848348551977,638.168397408082,-118.0735385029,542.014820690982,-53.6956682077451,505.130649552646,-16.3275050352865,1770.75278895981,-455.285304952576
879.443327963443,101.639236211877,410.953932296031,-41.2876062720753,1182.62176439562,-55.6632540672325,255.058692684631,-45.0982663162629,1262.62489947469,-50.997535993242,1434.31670436696,-97.0103476548771,329.475266854036,-44.8994508490606,2309.07142356628,-483.129487265979,1139.97384229422,-223.696456396424,724.518748224197,-14.8118708394056,1690.34395435206,-358.680658238013,636.888802136296,-118.093598264085,536.407920249236,-48.364732883453,502.700541255389,-16.2164086423259,1739.81282764499,-441.865678019069
858.2279173554,116.5232764003,396.929570935037,-32.8734968519149,1176.42019184826,-55.2903284566311,253.864751137928,-43.8986888715169,1252.76589941939,-50.5490066212326,1428.88084384867,-97.469384403003,330.521684016916,-45.8950894066553,2301.96807355433,-483.379157227248,1128.66794029122,-218.60683578235,713.478230035983,-13.6641185557429,1668.28282575521,-342.14452885828,631.781488473469,-114.79324750762,534.868992395037,-57.391416112496,502.76145997282,-16.5984897094651,1738.24275882364,-446.743078062934
865.841668631837,111.404186391222,405.078690702673,-37.8460660078357,1176.81273825333,-59.8844387762097,250.314779447683,-46.4384498889596,1273.41060874378,-53.5073196314805,1457.22892945321,-104.273203559563,331.439499223515,-46.2646718200019,2284.64854022337,-472.811172392787,1137.15719153943,-229.386523639386,741.763370374614,-25.523486569131,1686.62533802424,-355.158436823134,635.977271116521,-117.104097426776,540.180653526486,-53.2252180041452,505.772708253999,-16.8498050973715,1747.94089719418,-445.561295330725
854.68093369051,115.863032179586,396.811650326778,-39.4925595896708,1185.07941993988,-60.9767727899117,257.490084519609,-47.4498462163535,1248.58339762775,-52.9722482620105,1432.77997830683,-89.1330032320712,328.067118931033,-44.8128052395108,2317.14999534095,-497.297744892631,1122.13491234909,-219.087423268448,725.75134256904,-13.6220392323694,1687.17682871853,-362.521172854701,633.255518428754,-116.724215033759,525.690632792179,-53.1319625417421,501.275766941488,-16.2590536908947,1735.41025838578,-444.517293554001
859.314135100655,109.090699392736,389.526633732134,-31.2787082589413,1163.8688410024,-54.3118007406744,249.105671017065,-43.2791427637323,1240.6058286081,-48.3727279395628,1430.70596395141,-95.1802147969463,325.921033144791,-44.3424578881608,2281.60293322639,-475.394515433716,1122.54963545961,-217.164069079677,711.652138424374,-15.7205115063473,1666.59048112296,-346.885608137218,630.228083597157,-115.836572717548,529.035940298184,-50.876396944578,501.012205883505,-15.749510416894,1763.27923854126,-459.818021421662
859.00727641117,119.64224064014,406.471177531229,-43.7521424782241,1186.94259885113,-65.0884326049195,254.578123510022,-46.9512774005759,1264.22273533351,-52.7867269991038,1442.69409676158,-98.986623405658,328.541413837541,-44.3017680574355,2306.91104316175,-496.942120391009,1120.92022915047,-217.518519880052,724.63949723483,-19.4398779424476,1686.49236444686,-352.895111067735,637.849276832576,-119.110754009215,543.387884029471,-58.0838932812312,505.105706960023,-16.9189104189768,1762.30787410135,-447.283932152094
859.696893273532,108.763035922631,394.65818558536,-42.156834400713,1163.09878197234,-57.1680885197694,247.375976173978,-43.249025181602,1226.9848596668,-46.3449875488952,1429.08282635504,-97.2006787969676,321.473750833838,-41.7127369854756,2262.6435252801,-457.855648572382,1119.31503518395,-220.126911983831,708.182424782655,-12.9893050163123,1652.52661521908,-343.254641994144,627.5691634454,-114.727944537872,532.878838488261,-59.8058824165859,499.045410902468,-15.813852490686,1751.49112655105,-450.472356705374
857.072013485372,106.729395869413,392.943979990414,-40.318633773266,1176.55311157158,-57.6780988190586,245.680259765511,-38.0753414962894,1233.75563847979,-46.816440004975,1416.65155828059,-89.5180557981438,321.950888801539,-42.5103172173767,2278.78491313889,-477.527742474355,1112.40646183183,-216.271588100344,706.378553514302,-10.1571503584742,1667.62805112428,-350.636578989181,629.80081820944,-115.357065429156,529.977044808801,-51.5104563708967,499.987206518626,-15.6056152235242,1745.09347701281,-442.305506082045
868.353417529391,106.262760702244,390.113689468338,-32.4689967525336,1177.93502415476,-62.2746586010528,248.474461259912,-42.1858214709652,1263.62330426784,-54.7458903652519,1450.0037971622,-108.172987652871,326.136779842774,-43.7501910095008,2296.22162372637,-481.127248264422,1125.56576756003,-219.214107082415,719.519883232085,-12.2110825219614,1687.1809974685,-355.424169673432,635.184994466335,-115.927151155685,530.339686055772,-52.1790758876038,502.161620636847,-16.2633082290843,1751.98676588175,-450.769987290924
850.352146103151,110.614084630988,386.415884710361,-36.1261386816422,1157.24569148098,-44.8447245891346,245.061099523162,-42.0496038326383,1222.93032267708,-45.37131557219,1415.16168204015,-92.0586441951114,318.753911375254,-41.4251398189744,2271.99120172588,-469.895273809222,1111.37495474043,-206.557323778195,712.686435688551,-10.5084771397031,1663.08336105957,-351.939791044964,631.43526820724,-116.537176185394,530.352430391333,-51.6108738093414,499.112887708857,-15.8481946227072,1750.75947872773,-450.106336392928
844.627460338421,117.518468800048,396.411119584541,-39.9174575958379,1160.73676881875,-48.6634772851364,257.494269990112,-48.937863068249,1235.76993132461,-46.9435499526245,1422.60693665959,-92.8299643838448,321.122672127217,-42.3663806664495,2280.98551300253,-467.326367204272,1107.86997173429,-212.234994365155,704.422454350265,-7.04557461862217,1664.82020426885,-347.770211609023,631.369754839779,-115.23523671035,532.522753984808,-54.1051620476271,502.434112320279,-16.5047312217958,1738.86560088985,-438.24439342393
858.522947459672,104.195586876309,399.819424552513,-41.2721744927816,1176.33166088897,-57.8345942906733,253.615544388387,-45.7121709944811,1257.53509756567,-50.359530375818,1437.34600499968,-100.743823576925,322.326925768152,-42.6825854034278,2308.2448336672,-485.274336856387,1119.39286184403,-215.652247908089,725.096256825916,-22.1302037373825,1665.3918239355,-343.299869362565,634.157847243683,-116.712523177254,525.997378438344,-49.0254052529111,501.709027380646,-15.6337365167651,1737.60736716453,-443.25080671459
847.840496403273,105.782784360931,400.928971832123,-41.0533195803422,1163.68838595406,-54.5433656975295,240.541866837938,-41.1312650771256,1231.85653957614,-45.9156953972166,1415.99855151077,-99.7032410326658,320.165664404553,-43.0292594565272,2280.96597319128,-480.629990944876,1110.82374840915,-213.274625047382,706.109284361143,-9.7328994802593,1627.69549793244,-332.897954539835,631.18963266741,-113.848500010348,521.391644885362,-55.8361204911777,501.432976308131,-15.79359530757,1721.30728875116,-433.472755979255
855.209731672454,112.006744174431,399.353796638027,-38.2502962089837,1151.81437930953,-46.819490298288,252.719849604933,-44.4808696557484,1244.56487369717,-48.5183337357788,1418.09189649073,-92.553427724199,321.379499529805,-42.9104561991299,2291.6358438066,-478.062071654071,1125.73475745504,-224.966413530556,706.108106520727,-2.89117673909459,1661.61689917441,-341.615874613994,635.896616617398,-116.247333211299,529.265891442198,-49.557446304319,505.360655725182,-16.8400074537813,1774.18391470524,-463.366913024477
868.00895281836,107.494534142719,389.288636050991,-26.8833506990584,1163.95529824213,-60.4453658959512,260.71678847246,-46.8067794513999,1237.03524492209,-49.9986999120436,1419.29491265741,-90.8538049432494,320.097633562981,-41.1816642246565,2289.67688638311,-474.732594510136,1122.0529634123,-217.613187605019,701.41755204416,-4.23338164774859,1663.26199931309,-348.563333845075,634.375046215913,-115.329357001697,516.761495909703,-46.7969998670993,503.864471228222,-16.3232849025788,1754.1701570891,-448.262001810312
851.760546033935,117.725622299805,389.880260312854,-39.7387037177034,1177.13367319136,-64.465165318357,248.976510794604,-46.6073132489502,1237.10202988283,-48.8333643841891,1428.51289337833,-100.623965930775,320.543098105753,-43.6589302993696,2273.46659888448,-472.317144771126,1116.71294329504,-217.01100573079,701.934888415901,-8.35253969244003,1666.81065478267,-354.684353233493,637.189109941807,-117.219752819134,527.017311585643,-53.8182928176541,504.892522359337,-16.1649770890485,1731.76368613794,-432.403901700488
852.905157503784,117.673357357241,394.54452187325,-38.2478323441842,1164.4960709159,-57.3056862608126,246.764667738686,-43.8690431939263,1256.40714658837,-50.8335126028532,1438.4637240228,-101.774923206374,321.325687277069,-41.7344439908155,2282.41974369299,-464.271667957441,1123.53823565943,-213.428585096486,712.993525239238,-12.0981284396599,1673.89616448214,-342.974887022626,642.032817218793,-118.545291997156,529.660621565627,-54.7336768729649,509.156482719438,-16.9832068918525,1763.0902554052,-460.156576281258
850.03269841416,118.73636739222,388.895315509281,-29.5895983025655,1176.19728615008,-56.9057483530592,246.447103657705,-40.6595567004694,1228.84261739596,-44.9958777124898,1409.83685361529,-93.0552745313896,317.964774623376,-42.1005161356471,2276.79330341799,-470.82330247935,1120.44405527244,-221.8755569423,700.297854702264,-6.97151460594308,1668.06898786778,-353.797025292942,636.000911860324,-116.909391617157,520.120458832979,-48.047026448148,504.272802121534,-16.1897809838899,1762.86962885917,-460.710569368994
863.037771765069,110.361043084991,385.273029300914,-32.7684288086535,1180.37419474445,-67.3139034776566,250.521142368035,-47.8127399727268,1233.01159181137,-44.3413784137901,1421.40794146858,-95.5678088688551,318.078207431702,-41.1140638804089,2273.11452222984,-467.90516669265,1100.82669854291,-204.761331380594,690.355030149209,-1.48041471034879,1666.34040602035,-352.017472765464,637.449254846735,-117.204575086592,521.998586717385,-49.9477193174281,505.828584438483,-17.110918128868,1759.90401169495,-449.914794625641
871.588388050886,107.471052706321,402.919000772418,-40.6618800512403,1185.46606874921,-60.5095769816084,251.628119977173,-43.6841567827392,1247.2080227975,-48.5929870640001,1420.42070320972,-87.657044510214,317.559578510056,-41.0397284777034,2277.88994179128,-468.68705650963,1124.29733869042,-221.015573114315,702.703194017242,-7.72334955515859,1673.62342211007,-357.015742533336,637.2667523393,-116.275236330096,520.093845360151,-50.2045947332992,503.419703558929,-16.2122742502633,1749.15826338656,-448.664425247178
851.02133298958,114.861541744917,396.564551120719,-39.5975964694249,1172.13572599728,-62.2220734539928,239.044826581361,-44.0243370724328,1220.0838108247,-43.6979489761625,1410.08594308093,-88.2995986333323,315.37334172503,-42.104279981117,2258.54403791419,-466.073889001503,1105.06807707741,-211.591425307385,705.0309673482,-10.588297439212,1665.06259072568,-350.183674017271,633.459957778543,-115.934781253922,506.138738189243,-44.2405917778978,500.734109317719,-15.9444761790416,1735.56013851426,-440.294373951385
847.432832448259,124.659645439979,394.994472300881,-37.1230161535603,1175.37014657378,-66.2499611558446,248.116769755813,-44.2355713943438,1235.08433537131,-44.4412070257038,1415.28253383051,-90.1428461060936,318.119269687902,-42.269833831128,2281.30080183046,-474.758489079858,1100.5499243924,-206.883407935444,705.280010549035,-13.3498483655343,1665.56976932509,-350.100500664595,633.605633914336,-117.681862948349,516.566890639165,-50.1425045631793,504.735299891305,-17.0934046463958,1750.40012054434,-449.021306399806
840.818124446465,117.531586080319,383.077940403205,-33.2205411823469,1168.67115024295,-58.1689908931029,239.587005698356,-38.2560809350347,1214.35332455493,-42.2778853084452,1410.3396423169,-90.9133294601469,313.831195357322,-40.0223880953733,2271.93146614996,-469.040458259276,1120.0459907481,-219.412372118556,684.653234470473,3.49019476335245,1639.23631117162,-338.887821569065,633.293693888489,-116.884686569811,500.025374491791,-38.321707741856,499.864578249189,-15.3034755664,1751.98018528005,-457.127326532313
854.782035869227,111.522325987174,384.607784736582,-34.4589288800535,1159.58857299383,-52.2546633881336,245.425128287862,-43.0432572727741,1215.2732105582,-41.9726031943068,1403.0839380775,-87.9200081560626,310.388627472194,-38.5307148408852,2247.36315125365,-451.283184748593,1108.77526351941,-216.784741796964,690.716213412146,-6.92532569991796,1638.44851323198,-340.257407190438,629.183209130229,-114.503691518934,513.529223933863,-52.052287518663,499.77888002112,-15.548851366687,1740.46980393628,-443.350966249917
851.786338281709,114.83075021891,394.0996800126,-37.4948246207537,1164.22683996658,-56.4093656670379,245.285870677218,-43.4371754136924,1234.07653124935,-44.6583894164201,1421.81753336284,-96.535431359349,314.503326428844,-40.378581100168,2264.96429451018,-466.580656820178,1106.57611070616,-213.122607634942,698.679858526649,-5.40172001754465,1660.87040329054,-346.980353575573,633.764784618481,-116.524526436586,510.79156906928,-45.5392323061758,504.185427095889,-16.4079920179416,1757.20951979378,-452.39938028424
853.443984054852,111.569469017488,392.528022059936,-31.9464000378556,1166.60402235605,-51.7813739500449,239.308530911719,-41.93647167536,1215.7736432938,-40.9893942701224,1387.42221998697,-76.3190705422822,309.807125693279,-38.6602637625806,2253.47699893222,-459.985894311488,1101.2051909665,-215.25010907644,683.408981851503,-2.53941505975466,1654.1978796049,-343.406343509877,630.006876905111,-113.822897416822,506.812336029309,-46.4627657947752,499.13732013918,-15.4157775165206,1740.17114157097,-453.113941689156
850.627003491894,107.169268693825,380.39329057386,-30.241635705705,1153.77682653192,-51.883075928662,244.374458411887,-43.3934157279759,1217.94938221102,-42.3548538215321,1406.25801613005,-84.8279273175818,312.376638974278,-40.7621162446353,2256.12091071569,-463.589776076341,1097.62915511569,-207.561199982463,698.957837077532,-11.9090145638937,1635.3846610281,-333.3956279694,629.614737013085,-114.442464506541,517.51050418618,-50.5989602715301,500.455070008964,-15.4599549743263,1749.10058541015,-453.659691120409
861.682972462428,112.118718530815,389.181898556382,-30.1381286202669,1170.4189748796,-54.6269551604214,247.661007745866,-45.4212309941128,1240.73624877113,-45.2166892529601,1418.31540375771,-95.8032769151364,313.624500347779,-39.716275175878,2268.30101447179,-469.057744027706,1110.30612493776,-210.628275841506,704.883053549072,-5.2601392783286,1656.76134022563,-342.709896420538,634.941059622238,-115.88822654116,525.535552798213,-51.6173949085062,505.968119370533,-16.7211889415728,1737.21218665917,-439.918934862771
850.013438628161,111.15851838654,392.709874703683,-40.1745337152999,1159.07655701335,-51.0225590923414,247.003283559127,-45.2209704004715,1215.31198742074,-39.2483128112225,1401.50745593452,-79.9022989337208,310.195701991238,-39.2398648813326,2259.10444091254,-465.443652654785,1112.60553351759,-218.196244364536,689.445629885682,-1.87446021060656,1644.01633889684,-345.201903118877,632.117148403033,-114.840787964742,507.87132481623,-43.8283828301359,501.756691353447,-16.0335263038329,1724.67119299491,-437.888590758867
849.210200162369,113.893619528178,384.994866639062,-36.4738666615166,1167.40449913172,-59.0056573666855,248.113933609529,-46.2434428505164,1230.74257522747,-46.2333057139831,1423.97503466483,-101.891503000588,312.152228860526,-39.5105795485607,2259.54617567095,-467.12117191428,1101.29702000883,-210.464293660151,688.733989386887,-2.90433847371371,1650.633865876,-339.067498833095,634.687509581905,-117.52141653376,505.786596724724,-44.5258050477755,504.304056907683,-16.5074672767768,1738.80037022916,-436.617811899891
856.513524275303,110.963818870128,391.938300808779,-33.2030195003418,1156.75859462109,-54.4548671122116,250.311091374582,-44.0728989989821,1240.75262155346,-45.9667169892101,1402.20426041649,-78.4886399239959,314.179286572951,-40.7443162330465,2272.97572186105,-474.53996191329,1111.24575260997,-212.941981337759,690.540054941157,-3.00704477507164,1645.85683591116,-334.844096926878,636.680828748257,-118.134064298807,507.141971025785,-48.038389336552,504.009944382594,-16.6491831832401,1757.42048151496,-452.30901782955
835.472312318589,120.587599883907,390.281339404827,-35.6845729292206,1158.46076383905,-51.7104743748705,238.897195375247,-42.8054488264653,1226.66857052959,-44.514840592837,1405.51349792595,-85.9624183635198,311.673315690542,-39.6456188203274,2257.59544484012,-462.734703677479,1110.01818111818,-215.106518807312,687.55907718995,-3.54186583954738,1664.10816476154,-354.582155632238,637.142163421602,-117.192962417308,511.771427767657,-46.1680473641794,503.786819213577,-16.4355751111459,1748.70532683151,-454.964193218691
856.485879564075,102.505011834839,392.565947892558,-36.5177727044194,1175.46816051724,-58.9464539802101,248.619286331312,-48.1728418127366,1242.46997674374,-44.125732753954,1406.57484422439,-84.388480283492,313.547388337402,-39.8964222433186,2270.70697969104,-472.190707484065,1110.64822043639,-214.436626873077,696.225165327145,-2.67765894437343,1679.77262785714,-359.174480926786,636.888647142331,-116.436487996795,506.562146536912,-44.0601692975783,507.038066116905,-16.6118982902878,1744.49317124297,-444.097579592504
851.853626403399,110.545431472774,381.844251706083,-35.9465873516144,1171.69064631691,-53.840013521695,238.311403263616,-44.8729165949979,1221.50090700401,-42.6236467571698,1400.01328907549,-85.2426610029203,309.689746774912,-38.2286741491568,2256.62421488583,-460.904690326483,1106.72584618973,-214.500921390412,704.098233184123,-10.8661343469154,1648.79713623141,-343.83503351864,634.615296265677,-115.912822637814,511.896297729773,-44.4298602769534,503.366917642052,-16.2342686371505,1747.29099952324,-451.142949581789
842.289722760102,118.734745974551,388.603044343001,-37.1382910023349,1168.07450791714,-62.0977559281342,251.925989200095,-41.3887371400782,1224.08566362467,-40.2489506521185,1406.15854725746,-80.2337263039218,312.398662056475,-40.3826285155663,2284.19199037588,-473.344016375004,1107.99659451107,-212.07483951584,699.159219628054,-9.0714562629431,1646.93765757644,-336.869632474773,632.921711070549,-114.792968713994,499.584634573066,-40.41792764847,505.09304361832,-16.6895899640765,1744.84600520939,-447.536411322336
856.372004103971,111.375249241285,388.914178006754,-35.2128514750211,1182.69250866821,-61.1777202597205,239.757294543952,-42.7701823094829,1257.26313239869,-49.5415516501975,1413.76725835759,-80.3255390842064,315.536157587413,-40.6663955793931,2266.74811171321,-467.107497572483,1133.19672428307,-223.807301072226,695.860981490825,0.929382443871918,1666.81360409486,-351.825072485817,634.566379043164,-114.971407284147,511.19817268002,-47.2587150124769,503.595336864471,-15.7677054555771,1752.56760843027,-451.238764783709
839.11279208398,121.253520086222,390.442304529698,-33.9278854636569,1167.36829376123,-54.8143962550407,238.933317135734,-38.0610037787,1217.99408748463,-39.9215018221606,1392.76138982546,-83.4214836016616,309.877743385161,-39.2647028804084,2275.46412308336,-479.550835044834,1098.59728698921,-210.965471042358,692.976829940398,-6.08793524939572,1641.45687181806,-339.642317217382,632.212293409774,-115.556793346879,504.897063135738,-47.2869533216605,500.39962269154,-15.4912716084243,1745.90456560876,-447.521287139068
853.057587883016,116.018137832254,384.758815135648,-32.6180442955364,1178.61258188467,-60.7163302823989,243.8187472597,-43.2792907903922,1229.34247115266,-40.4341092727132,1415.49675375911,-88.1208850400452,311.138213788225,-38.8981958374658,2281.66106524708,-475.81714750937,1102.15243453987,-213.460165663707,698.71073366951,-9.24917035493255,1647.30166596653,-338.77745946581,632.697767427888,-116.263720050773,507.061681655584,-48.0499166727236,504.109249711117,-16.4467948479837,1746.9329757906,-449.368817663438
860.785752726271,108.142628721658,388.964277596405,-34.8366027645222,1185.23104113312,-61.5283720558329,249.529533215026,-45.8050279512838,1224.3610480833,-40.7039617782942,1407.63181394587,-84.7432577786527,310.029807442865,-38.5462784673288,2280.292699502,-476.966999846481,1110.36955364977,-210.360347846031,692.99529921519,-6.67774297691888,1634.47974978681,-333.938406391182,629.81861554806,-114.10176640752,509.579498920126,-46.9877272914285,501.220400263961,-15.9901961492812,1741.21318079274,-450.83954025838
836.022455757662,122.383369693726,381.831672990406,-28.9094127396615,1168.79931997619,-63.5876110194795,237.224601571358,-40.5286226678656,1218.21469946277,-38.7046113727165,1412.20746342508,-90.3737714271708,306.696307314173,-37.1848003467763,2256.90837580103,-461.738901521849,1107.90820426917,-217.62051728476,683.466878372822,-2.14527385464615,1651.46089979121,-345.286544301066,630.360121995235,-115.14043131302,495.81082153586,-38.1499646111881,501.109160514826,-15.7941378765569,1730.47213725327,-439.418498814139
867.977232717445,111.145931154617,383.825700191998,-38.6471957515199,1176.79589769954,-63.9904756371131,240.54359801529,-39.6403906429048,1237.59190235433,-41.7730343134189,1415.62229468867,-90.8302525582981,312.504149164521,-40.1809732143989,2295.96936758554,-480.142685839157,1105.89346630938,-212.985425757707,702.371409326736,-7.28076124580833,1658.55591150066,-344.158314692349,635.354588752415,-117.018180112244,504.006353347042,-46.7414221202192,504.721178636425,-16.8328705007834,1755.84957921302,-446.026586985394
846.869202924946,118.660738852138,391.318093728569,-34.3581363587017,1167.72711049098,-54.0268883098499,247.921395071457,-42.5447972510266,1218.08607620602,-39.4217005531631,1407.25911197782,-85.5518237386244,309.133683776138,-37.9897994769238,2274.5398151997,-466.522145437456,1103.9804096044,-214.151237597199,670.204785929439,1.54657730052737,1626.47418408755,-329.554289139843,629.652366894719,-114.692214718085,496.718270192951,-42.171798981485,500.879063894101,-16.0214030135089,1732.12529621068,-446.65162455622
844.776746209797,121.274260408976,397.302479151275,-42.6584803345954,1173.32062972112,-55.8949305177973,245.363109908757,-45.2484401974598,1226.93917212877,-41.9145419788457,1404.87839627961,-92.5761167625896,309.807235952902,-38.8883082448638,2267.70147496244,-463.749767047818,1107.16710040615,-217.469385882263,693.838538917154,-5.55402351733392,1642.34456503332,-336.573095524646,631.762589176418,-115.703454085643,505.935719358297,-47.687462556321,502.512024647891,-16.0175283009159,1756.52446697827,-444.4399373715
857.008439341524,114.297985231855,396.832465251376,-39.2447203894352,1168.52634224903,-54.3602891737419,245.981432770969,-45.6249126174222,1252.64886815775,-43.5788637848175,1425.7021367833,-92.6891533722553,313.251257630159,-40.3138679885836,2273.80079454105,-464.086877705089,1116.79091310217,-213.886906879059,711.23812334082,-13.8643483726943,1661.27472401885,-342.701984890244,636.52104311006,-117.062186907937,490.330619890979,-31.4416408126048,504.376257073371,-16.3805012188075,1746.96202906224,-446.234873522855
856.795971367189,110.193609672549,389.832915299007,-30.9825645093375,1182.69817302909,-62.2230807498052,251.173722834244,-44.4569547245623,1229.82439857282,-40.7689191962783,1395.7944649033,-83.2639737400399,310.714025077264,-39.1082306300113,2266.76418051948,-473.77234466159,1113.99360066892,-219.993881140146,705.303934869443,-9.01012935803009,1638.73447361316,-335.1442136093,635.624210084802,-116.839469848008,508.170094556738,-45.4306914622174,503.116171845089,-16.181023696535,1727.64307970135,-438.578234098102
855.400720197787,115.283754147,391.248628345236,-34.9243834085748,1181.10569204339,-63.9001639193328,251.091445209266,-45.1279300798175,1242.34953198182,-44.3781855178064,1422.9729377199,-92.761928911885,310.286540956541,-38.3766698400081,2271.27950590913,-466.598833107249,1097.60390392213,-212.123953843525,688.457025541913,-4.28523758972332,1656.34514780456,-339.20834425527,638.694447940742,-117.840841122656,506.580991266905,-46.0242037249946,506.71993294596,-16.650363618937,1759.8644878739,-458.396620957441
862.224252731707,109.789370645669,382.400238171162,-32.2498930885266,1179.39521671175,-62.2330299771053,255.127973991804,-46.0520644129597,1234.56418138333,-43.7190923862701,1406.97819058667,-88.9694617038265,311.29419490096,-38.7375804668198,2270.2242121677,-471.518026990354,1112.1203367016,-217.344997484015,695.407279966923,-12.1319880524032,1637.65766762256,-333.750406860306,637.554509642165,-116.981822255884,496.803519274369,-38.0577886164991,504.001081486794,-15.8082788026348,1735.85207616122,-440.773350587531
847.43719097305,119.176437370142,387.586273863201,-34.1080536641827,1176.94925213048,-52.1171605980342,239.544272149028,-40.2627036249487,1237.01650910248,-44.1632078832816,1406.11443673934,-83.668614095899,309.117142978628,-37.1359126184923,2272.62417113592,-468.576461238337,1105.07585492339,-210.322778587089,695.459472800879,-10.8275860144748,1659.01191593763,-342.468706848652,634.840152325332,-114.017498098579,503.235733396323,-45.3301146607303,505.432095502417,-16.6378383852065,1734.7835714166,-443.166179593261
858.733658950319,117.961731078558,386.188244944324,-31.4428653728315,1181.07156823327,-61.7391855858858,245.608868482989,-43.0013289996054,1256.72469784624,-45.1335318261904,1426.22172536659,-95.8760930778088,313.108793417925,-39.4771463813632,2309.49447081013,-490.45049444651,1126.86621315578,-217.821490381212,698.24824714378,-3.97340610089721,1676.01705179225,-348.995712035195,641.500426602322,-119.079056730342,508.948640677232,-38.416087193167,510.020773510879,-17.4340120897035,1752.47533796865,-445.777047441922
864.376898519307,111.971487234703,386.292211836183,-32.4408121425954,1182.27266791863,-60.307602500636,244.396602510157,-41.748393787126,1229.89759461882,-41.1803145408639,1401.13162960122,-84.5894965686527,311.183829081365,-39.8264917177188,2268.23847352222,-465.797306345405,1110.62501592579,-215.326199883967,686.799074428854,-3.52080722775493,1649.91538032084,-345.719087562073,636.775672128147,-116.307185915836,505.880659801583,-45.7969091035352,505.572928575139,-16.9527386532461,1741.43647799014,-445.011305965306
864.189151020937,111.818389828489,386.330804323006,-33.7097328431151,1181.64247510511,-59.1875167508089,245.722730049981,-45.4987599572311,1237.71696238042,-40.8374512313381,1410.89458764435,-85.4649466580311,310.20536535092,-38.7534243912308,2270.11507983912,-466.430158897374,1115.20135172489,-220.408357403676,696.520963265077,-6.41375464292018,1641.1281170307,-327.943042021931,634.465974213745,-115.313859243563,495.413041505174,-32.9458514462814,506.607121740098,-16.7753352511996,1732.75082584231,-439.363702690827
851.491793433414,114.874446461978,385.741609601566,-28.9739531981111,1188.70590334242,-67.1165598380626,248.241917020043,-45.3577578857898,1236.45460391424,-43.2444113229597,1418.15282465776,-84.9912148449068,310.309820057203,-39.1258367779281,2279.1198576382,-467.404358750407,1105.58751937498,-209.263290078744,693.969608913398,-6.12184148757921,1662.97323651684,-350.496874451136,638.413918191977,-117.395442500516,503.776414906408,-43.7794645405921,503.466093392977,-16.1558926765572,1738.20950449456,-440.523030905311
853.654687287713,115.104131435468,380.48228971105,-30.5408921888505,1169.84241182762,-50.6064095006453,238.145900242363,-43.908853461578,1221.55183033357,-36.6128959702681,1395.3171887468,-84.0547609184592,306.888796751831,-37.6330878663566,2265.61348622508,-468.585640451445,1100.70411948643,-211.504533688018,694.719550809759,-11.1169358612629,1644.44025756699,-340.838674070097,634.665747071581,-115.978342416709,490.983436123641,-34.3647085586686,502.971018366793,-16.1617574459067,1728.13094668902,-436.610619774495
858.716525122751,112.428544367045,391.448219680297,-33.0875829129936,1179.62167715572,-54.1718727357755,249.315269622124,-45.2296861656866,1246.14169531744,-42.9402948448244,1434.98594348034,-103.905824155132,311.580139814555,-39.796560911798,2265.76689660736,-464.967204732691,1117.96522650639,-220.529958419777,701.88222079318,-12.2255931223831,1650.64121894613,-336.524898250128,639.089728561749,-118.486453708214,501.462960168103,-40.2731520322951,506.607291785096,-16.7829019996606,1755.77412968963,-454.140053959169
849.289857432474,110.088818275752,391.464661630247,-36.8083362384891,1181.69642206172,-60.5759977728824,242.70662505634,-46.2338211176234,1219.55476684312,-37.275549813047,1402.24466960669,-88.7943101099703,305.325289863063,-37.3475915712946,2255.31715961497,-460.673138574982,1100.35369557986,-209.932360999905,686.447356135713,-6.24697108100901,1639.60192040229,-341.274820579722,632.887999765768,-116.729965391229,498.502480034566,-41.415837101852,501.485139300106,-16.1376779775987,1731.47956512944,-442.3087367474
845.728352011023,114.72622305314,393.120492455542,-38.8239891111476,1168.78925861613,-55.9533677249383,242.150776322834,-42.8070790674433,1227.52008350419,-38.5663478563336,1398.22298649947,-77.5480065278679,306.867740234094,-37.5364156058745,2269.31542419163,-469.064441185953,1113.05733190658,-218.722914416499,688.538852164103,-3.12103416027441,1659.72775102055,-345.817912739977,636.68370493185,-118.47091226058,504.549275766346,-46.0934773326546,503.049521108856,-16.1116567840442,1723.86727261533,-435.202625589182
867.149920389349,106.530865456328,388.164747798318,-31.0520685910687,1183.31000146894,-64.2058200721096,254.433981648437,-47.6022763911314,1249.45437682175,-44.2241909596569,1417.62130325237,-91.015126529112,311.17873128478,-39.9616899522434,2293.38240082086,-480.640408595113,1107.92472373212,-212.794964835685,683.340241141696,1.19088299707745,1659.18433105521,-347.289432260149,635.649858869053,-116.624212770322,501.185000117599,-44.6870699442487,503.34336432094,-16.4576036304556,1746.00268156893,-449.268288961429
850.984163044407,113.260205180965,378.566584261073,-27.3497418022737,1158.02931027631,-49.8624974088614,247.109666440847,-45.849109567161,1219.03503840089,-37.9938136273884,1407.49915453363,-88.7556568572043,304.538364373125,-36.664691108306,2250.74580986538,-461.043561336904,1108.06207439168,-213.223327765664,685.508515385938,-1.43434414023598,1643.48998932526,-344.644612386115,630.38404772019,-113.753495552731,496.201374187729,-41.5841751602931,501.659377375983,-16.1383759173723,1716.52948155805,-436.4672161089
848.726098091505,114.331913084982,377.880080046634,-31.4135252089113,1166.28512162076,-61.8197191693557,234.351815778357,-32.8092652460827,1233.07447626774,-41.7758242052509,1421.01528615895,-92.0827413564463,306.033009227783,-36.8413958004164,2261.54232011127,-466.862278023106,1106.98001983442,-213.315300900065,691.45587452984,-5.68564849809985,1648.93277041817,-342.556848766556,635.013614715969,-117.227733252555,503.943997666221,-46.4814512256535,505.022672906784,-16.3743893307197,1740.8254012341,-444.6303300618
843.762050247133,116.030145840759,380.739664783151,-28.7813563230663,1170.95320597268,-53.4825320560224,245.420820628585,-44.7699267681327,1225.397897515,-38.0498898533521,1403.80903093695,-90.604684988946,307.246119919122,-37.6059919417275,2266.35702230948,-473.904354643066,1104.36123299101,-209.383774816391,681.435425135646,-2.1957007677808,1637.8461273382,-339.761528079139,635.345907512098,-116.381648935523,493.678917531685,-39.7823937715384,504.052999123995,-16.3373278003396,1730.07482203701,-438.403338641312
846.908895311059,109.010241271473,395.602092284657,-35.7974966805434,1172.22409313785,-59.7862993841992,242.924712817832,-41.7854783608673,1224.0207613065,-39.2938129695181,1403.3551397215,-86.3555914758336,305.041595638535,-37.3898475805463,2255.16015640169,-466.841348381099,1100.18088355256,-209.628413621471,691.355048646115,-7.06664768157451,1633.43690601492,-336.204064600509,637.385005727817,-117.343465920717,493.539805225975,-36.6480709060993,504.60470931413,-16.782489133879,1714.66552608156,-429.524183875432
851.056581481166,116.959000389675,385.036969500216,-30.934732699246,1175.8797812707,-60.1872180740171,244.47103638607,-43.1438892464139,1244.63457661973,-42.0586841179708,1410.35966474758,-83.0798884976715,306.811441978329,-35.7306093108643,2281.92586675602,-478.232668958853,1099.52544855532,-208.573461851777,689.344227842395,-1.09279806755931,1664.4788415954,-350.139685022978,640.289115606278,-119.111800645816,498.710316903441,-38.9344677724362,507.966561791645,-16.6095649978913,1749.36597901323,-454.125348058199
846.288998619842,116.328252147127,393.138355639504,-34.2345068296232,1173.36715724271,-59.554638116721,242.92541572187,-40.0537884801245,1220.66554930816,-38.0474571505643,1398.24361776694,-83.752346525374,302.633667935425,-36.3446467254346,2249.2208438817,-461.946212679766,1102.46729059929,-213.720811230455,678.797837228788,-1.2406726958643,1643.64856889054,-338.757728585976,633.904220686651,-116.46660508104,500.254953767398,-39.9401074749436,503.766975901102,-15.8725621686604,1711.59207388128,-434.719484177185
845.017518185765,117.673421715398,387.377339007458,-31.8845396410378,1170.002999907,-57.6803123771005,232.987146542662,-32.1170066065384,1230.90040212958,-40.3382509124577,1404.38677040957,-86.4417965657778,305.026963435693,-36.587277881226,2279.21037763641,-473.00850407054,1101.76140605909,-213.605653884153,681.142211670399,1.25408773477464,1658.27098929437,-342.52079002429,638.65497395259,-117.872004843501,502.65855746642,-41.9699236785437,505.04587648252,-16.3999146484413,1724.391424224,-442.887502153079
854.471696713238,122.203499747159,388.834280511344,-31.3513064317589,1184.9829208107,-65.7712130582442,253.218291162302,-54.8952563748852,1240.19838313631,-39.8790677637134,1407.49221918818,-87.1593731103995,305.512854350914,-36.9899256388536,2266.10858264361,-463.484962359622,1097.33104697894,-207.67459428871,681.270659457344,2.07091309424476,1637.28379135873,-337.037616646802,635.726149185723,-116.935564631727,505.531907879385,-47.884028649824,503.219372775246,-16.1365726332311,1740.92488477406,-452.040612863487
851.785299441334,112.334497156763,386.871608589531,-32.1596073993255,1163.53700242825,-57.1594062870447,246.437749485782,-40.5586275605274,1220.46131754515,-37.6334865002366,1391.47190149585,-82.4789672206007,305.784785336817,-37.4301668617213,2262.82945032477,-463.001457363604,1099.39471842546,-215.545234412827,676.772517865462,0.336473170259137,1632.60112457556,-332.106801053803,634.607814739048,-117.614993163882,503.259943870821,-48.0313933446534,502.400579230431,-16.2831702952783,1725.28800037836,-435.416975506634
845.109153506106,120.853668291496,382.315135023317,-26.8652661262019,1171.65971801169,-55.916999247312,236.777020967078,-33.637502789228,1233.84297367142,-37.6521843923769,1401.61562736182,-80.4789941247475,307.779719457052,-38.8061375869115,2255.47528416735,-461.531638080024,1098.56414135726,-213.437704755772,690.180939202925,-10.251921064457,1651.28274514744,-339.20668327227,634.323629451531,-115.838111953269,492.633737305809,-41.257406264756,504.385025523393,-15.9372635885957,1740.40570186108,-440.24235251775
842.708888020968,112.183362447744,387.997729568383,-38.3184327135845,1160.47809921079,-48.6544723551706,243.200910164223,-42.2074277983973,1219.77083097582,-38.73075924673,1423.2006511181,-101.010167059929,304.457870496878,-37.0118461396297,2255.71937678802,-465.899712171704,1098.0107423609,-207.723736411108,683.403536021911,-0.788573069393636,1638.58680369015,-339.665075538394,632.440679471862,-117.692027856804,500.414187072756,-44.1678190327194,501.304066815563,-16.4497119413333,1728.2475051155,-439.896908907357
838.502683198926,113.086418893201,383.740997083419,-32.5141855076583,1170.0493762685,-54.7717836764438,240.948567125457,-39.3493513088568,1219.64420454216,-39.2074640177392,1396.59574655733,-80.7475829929865,305.123902900847,-37.5955797447583,2262.41377602994,-476.289803774327,1090.2441685645,-202.623403714472,675.74676224013,0.097638034218079,1634.83008672744,-335.542046777743,632.326648111085,-115.951484842276,485.099540124835,-33.3776894459162,502.063189267635,-16.0069674563605,1741.41503997379,-450.451006032579
841.647292632682,122.552101146756,389.772668476255,-34.9597061311686,1172.86692444774,-62.3953675378187,235.544415880756,-35.5571459041755,1243.13403454668,-39.9964449915679,1415.81747409256,-93.6563022835932,309.177341689676,-38.1465967420848,2264.95435587499,-463.591145391898,1109.96289614603,-217.799645446888,678.271083063471,3.82847787321115,1653.40329143891,-337.877605772777,636.667303833217,-116.767749982845,503.986208881299,-44.8165339227797,506.086376286977,-17.0453775974601,1766.4556547329,-459.268252276961
855.448564559793,111.7313800921,379.081504452292,-28.1576326358239,1174.64934888654,-62.9768498373041,234.019306052102,-37.0594156087519,1213.27644635945,-35.9451179643541,1400.45312041639,-86.7293072197082,305.022138144356,-36.7746941547105,2261.36897968188,-461.760534908073,1100.61986205758,-210.899598640521,688.478996398164,-7.58743176194128,1639.17259759896,-344.111029303205,634.491301405042,-117.444230565942,500.588662599225,-45.1198835288122,501.085169971036,-16.6010810429751,1731.84608506421,-443.160422329206
853.231015432971,109.559657572138,375.166897716875,-24.1841201713705,1182.21758440149,-60.475350452243,239.17426111503,-39.2611357669294,1231.68058523187,-40.5623772217908,1401.99752881985,-84.1228571111777,307.862928728039,-38.5129936290168,2256.59674622489,-459.545496307169,1096.36390831316,-205.845117599822,686.840289114797,-6.76611727237715,1630.82032511675,-328.329856765695,634.98906775362,-118.696525388287,492.542896526837,-37.506413951294,504.626997261695,-16.7108978796841,1714.48745336523,-424.09640131277
860.972644270208,114.704150697813,392.939895495239,-36.0794910848298,1170.847492958,-56.1844348125243,253.531790998824,-50.3715597008762,1245.31883754762,-42.8918673723469,1417.88387925604,-95.1905443814901,311.85741330153,-39.3543903227649,2263.29132458485,-465.095265730253,1116.78479976613,-221.185934823823,687.262173574695,-5.41682529682546,1647.79794697407,-339.420284772716,633.681326744317,-114.102070595668,496.691257038526,-40.868702224179,503.596656800744,-16.2478148399004,1735.87236801098,-450.968218376758
840.552328323738,118.536243434893,385.078946627747,-35.8979711671729,1179.66881316102,-62.7234973779542,246.754090944462,-43.0574519721244,1226.23020077555,-38.0152506959697,1398.27819937213,-81.9638719563438,307.520853524783,-37.7599017015619,2259.66134191498,-458.974243323505,1094.59760173427,-207.542543529382,676.135836110608,1.53046153071395,1645.78426732419,-342.946260579958,635.308537009569,-116.07774039974,497.216621481664,-39.4245333290802,503.973353049543,-16.0498227606514,1733.52800634605,-446.323098420217
854.717978531583,110.163250977813,381.378568570976,-26.3315779853649,1168.46438245705,-51.9935967877822,250.327477948091,-45.6686837112083,1249.82697381792,-44.4879870659639,1402.09080735649,-81.67933875764,312.507709504941,-38.6146387244512,2289.75007928803,-481.753354306071,1119.11468588639,-217.170520874084,701.386470822307,-13.970366170954,1653.92419701827,-343.085856440627,638.509984157009,-118.100923354995,492.827374288328,-33.6663509393317,508.916482338786,-16.9729537852176,1749.92112382334,-446.611122219587
842.814398203209,121.376369384956,392.187463896021,-37.1054627515567,1171.13556114123,-56.6618803372722,239.652270252029,-39.7464929250661,1230.10184099658,-41.0235238196243,1409.41393991157,-91.8584478539974,310.270102146046,-38.9945250874001,2271.35114858633,-465.538697114813,1106.02008292428,-209.660596264947,679.838295109641,4.48529372009331,1648.64755457291,-339.997809360645,637.6531263477,-116.522895725973,500.646127894035,-37.9997745329064,505.289257125302,-16.6591348323202,1731.97393922814,-437.004981396883
845.865194300602,115.990077448908,386.404376260825,-34.7222143283541,1171.15700551504,-56.5643292332099,238.909757641044,-37.4829315690173,1241.11571052084,-41.2717636613993,1408.36645494363,-94.3083164443352,311.866376008999,-38.7112313672227,2261.5127670423,-462.594174328304,1115.72171575076,-219.342540680496,685.771123328792,-0.949057561611328,1668.45197592589,-344.623280798129,639.201284786704,-117.552922671067,502.161218137592,-45.5709729492711,507.596164072481,-16.8712645609346,1746.05077123577,-456.101324601103
857.816672979318,108.327932626895,394.338163159972,-36.3315320718908,1182.13460173178,-60.8684172202149,243.288647991842,-42.7179372459092,1252.45133616511,-45.5781776535005,1416.63375660047,-98.2473710468536,315.278459347029,-40.8530107678304,2283.89899187845,-477.025584030329,1120.33742365516,-213.976052863492,684.651628308586,0.0283092767255477,1649.85913337704,-337.531175176492,637.722203118216,-115.971025244521,502.532041955319,-43.6630315730138,504.728620312768,-15.9440971726231,1719.6255824358,-433.228414695586
847.21855111485,113.685035645706,382.709508886011,-35.3114313873514,1170.37732597831,-52.8049426319834,245.575659597793,-42.1843862801537,1227.28918369086,-35.9475959292651,1406.90877938757,-92.7052657538341,310.589400440077,-39.0374005878797,2262.94613549476,-461.05254423237,1103.73749421694,-206.241110592717,686.168860718651,-3.19252841043016,1652.06580906863,-340.944531998424,635.906932598685,-117.251448186591,496.066053832005,-35.4283379151907,505.040744964984,-16.5406270616855,1731.77141740203,-442.476853106864
862.69067854451,102.470152148106,382.879614462359,-27.3980816888331,1158.90993953997,-46.0158440918414,246.797928833887,-43.8601357174919,1253.10645064151,-41.7523320726804,1416.4254007492,-85.7593679329459,315.139383146498,-40.1472071251992,2270.03903707824,-459.598865803636,1125.55978062579,-219.31383430045,701.639648718092,-10.8446048454441,1684.37230029023,-353.877719614222,639.528543187057,-117.163340662777,508.323071250786,-43.378944803496,509.541841230928,-17.4168459387617,1768.83819871832,-460.065986295619
848.038485713818,111.27324790659,371.492958084121,-25.3322430482961,1166.64520504595,-53.633800013621,235.668014391015,-35.6376006197914,1228.51579405582,-38.5346998163669,1405.56225077269,-86.1731897378778,308.92732479696,-37.8914048017914,2256.10513068176,-458.86219312035,1115.52244286548,-215.40264111869,691.393159032068,-7.1215672694273,1654.12342775317,-340.245942183938,636.193759965067,-116.252245549534,503.10579731962,-45.4006759583031,502.078879871225,-15.6612710054,1718.78051657457,-439.264265040842
832.032515148398,126.078869492829,391.65413403535,-36.401179171861,1167.48130105245,-61.6962283285643,243.177551201138,-41.2799823425997,1237.37462194658,-40.3847882822985,1402.03363729556,-87.2811868629599,313.176869619779,-38.7722136256076,2255.37321325349,-460.12369239146,1096.53254577976,-205.97695797455,689.598761545993,-5.94330340681769,1666.16731206186,-349.943427838066,633.509023665504,-116.030330191942,512.788423397457,-42.9152924154038,504.029635955973,-16.6279301525677,1726.93496657838,-432.746381468969
850.28631831338,116.100612131435,396.549404882626,-37.5197665564542,1173.93803502648,-57.7192506487678,251.53939211275,-47.5837107316302,1247.18083234047,-42.9935899041847,1410.27964797527,-90.4366813401658,314.010655100336,-39.5012931787391,2261.80951084409,-467.409081007702,1103.37978516204,-211.622721940918,693.345673190554,-6.94887236516698,1658.9067512294,-342.438092020976,632.277607924473,-114.905641751811,506.756708555681,-44.1267962915026,502.049758088418,-16.4394159643758,1723.24012874755,-439.109580089206
840.217287804344,113.404084640776,375.109066711473,-27.2236269834844,1154.67307024489,-51.6257785861843,242.866152491755,-38.7490141644037,1231.60413120734,-40.6584122679244,1399.4341311018,-89.1388777516607,311.282605610672,-38.5150721420579,2255.77104323439,-462.469690947114,1102.7141133077,-212.287472922194,698.890731519183,-15.2594723378903,1650.69062534778,-346.699035567682,632.185516016497,-115.965163478824,504.747336831308,-45.7722297500894,500.323338251108,-15.6477889716043,1727.22170708035,-441.728543333721
842.397498290573,117.747567071882,383.629985547166,-29.9873643019041,1176.38018416156,-67.8703119295692,240.969182815075,-44.5489210171952,1245.72257272503,-41.1140107110477,1413.47929162662,-91.5745477333434,315.641132126453,-41.3847002932434,2258.57799770346,-462.656167349885,1103.42656298914,-205.367268962025,696.144941436736,-3.86863491966792,1669.74001477983,-345.344354500422,634.210251013959,-117.015814325781,507.394498291821,-37.5235826935037,504.326511481542,-16.4607296142304,1742.9624760494,-449.595161842929
835.947196447582,116.211291619817,387.313563156791,-30.3897052154193,1171.45565223958,-58.7628764145683,252.208017639383,-46.6118912238284,1235.27600961087,-41.9212415910627,1400.7531505704,-89.7962964875292,315.319590418015,-40.5932353559092,2272.48721039978,-465.888919881966,1105.81710428959,-210.649004497377,680.369774460658,0.984099715487538,1655.30441210435,-341.44607169412,631.763167144823,-116.452281751297,503.059958787081,-40.7763113861907,501.287655493586,-16.2640962784531,1728.90645809791,-443.194789325758
843.253919831499,114.35401150083,393.261972463888,-38.5595456046544,1165.76444247932,-54.359865860226,241.811995747637,-42.1980230970734,1237.3535813851,-40.8788663466874,1396.38013515268,-83.9562378529326,315.01575878042,-39.7722090715509,2273.62719287286,-478.119244259535,1105.15344234367,-208.437262624564,688.928525201479,-0.397507507352457,1662.24669242468,-344.620597425869,631.206832890701,-115.491510583526,505.612874670372,-42.6086201584314,502.36641602876,-16.2623047358652,1717.24898510882,-429.638936003144
849.128379107553,113.386596444502,394.39672507205,-37.3935095541626,1175.83731333027,-57.8471221499304,254.843286943619,-50.5106588506502,1264.13939166128,-46.1991311750215,1416.30360880908,-89.6755042975903,321.647021019684,-41.764626737711,2256.16099322143,-455.445159943799,1116.72808968205,-216.84348592383,694.976190085512,2.57555195715175,1689.13932744787,-353.082573147892,638.084737333448,-118.294025213819,525.247195386834,-49.3309058033883,505.725144373844,-16.3607855124409,1753.00735671577,-452.51386033428
845.21255410952,116.120558854653,398.381828636113,-41.3818447182885,1162.03884970309,-59.3774163723729,246.761310288138,-41.1198216702809,1242.77660320292,-41.9066941810828,1388.43056238263,-73.8066281411763,316.396168094817,-40.7643858947144,2279.89320452391,-471.941338815845,1100.38643906507,-210.320201375736,693.282026056502,-7.63018374590402,1669.43674481879,-344.717112524599,637.300851240948,-116.473308142684,522.942869662238,-53.4736524299868,503.312810450912,-16.2603296973744,1722.56534340779,-443.058542833516
