818.2184679593,124.058626360611,387.316260658857,-34.7150759374528,1143.9808848132,-51.4205594569684,245.748997174877,-43.0606726649595,1233.51754276324,-36.7394919474228,1383.73546959948,-78.3277279894483,316.079669895683,-39.5817962273829,2279.47451925086,-479.801537309706,1081.13195667874,-206.073670535204,711.837262514877,-10.547698132733,1642.44680540232,-337.307088820751,611.718583665397,-111.725742129584,511.118427582555,-38.9183586346388,487.44392150979,-14.774946746813,1738.76023387469,-448.478216522085
835.753583890596,115.441395601724,392.825975619099,-34.671712195227,1161.42595822057,-63.729825778494,244.817955550501,-43.4844652013525,1259.32397700453,-41.9002009750541,1399.10858278814,-84.5715018435576,319.596604076279,-40.8314826296761,2256.73822968327,-467.845897033033,1083.28227028493,-206.055116067341,713.263600281774,-6.81577527474498,1644.21219608509,-343.936871525637,613.871685433526,-110.883914808276,519.858732228012,-49.3399518250257,489.063310731841,-14.6221945994148,1731.86772163102,-443.517916399041
827.083422340553,110.892461536226,396.840225415463,-40.0264388852359,1144.69680900615,-58.5722398467765,239.488402530259,-37.8654399708086,1229.14305446702,-39.7030826302958,1381.87172672409,-84.5439895671622,314.249233256583,-38.9741241397103,2251.86909530483,-465.394523346735,1101.37234769754,-215.250960877505,712.241952232291,-12.6449466934054,1639.36419808161,-341.08858340318,614.284768242688,-112.522449119049,504.702963867975,-38.5891269179865,486.480885369079,-14.5863260654631,1738.30624045666,-448.100468542598
832.049670554077,113.099526655717,382.084011082555,-35.6682585548795,1139.6837317576,-49.7937740005457,241.036727680489,-41.7032153270885,1242.1168909128,-39.5862340967594,1401.31874455288,-90.6967827719461,319.422873945463,-40.4128772470028,2261.84424688968,-467.995815818792,1091.32695796695,-209.350840219014,714.326819889954,-12.0288746646003,1655.62803347021,-345.307518806246,615.996921328158,-113.869943636467,514.277183688281,-42.0574343087507,490.426277804013,-15.5972538722693,1739.83255623685,-444.507222111244
833.259429448261,116.240960957104,394.711059522947,-39.2013182493164,1148.34864493615,-59.0491231440979,253.023765616742,-44.3885808764636,1243.48327195196,-41.2743735953922,1405.18986166194,-93.5499398260421,320.322840759081,-40.6855899915711,2255.2146923467,-461.981098597519,1102.66198981743,-214.620819659606,704.441391804462,-3.64985417614474,1646.0810208665,-345.663672831256,615.475392358454,-112.211572927082,522.957481472378,-48.8654362656479,488.539962498562,-14.6320386630995,1734.82551265805,-441.632095796791
833.983027250165,110.430349795764,395.531991271508,-39.1187666748491,1149.01533722787,-59.480444718232,246.597560514678,-39.3617963998662,1236.70422466522,-38.9159464969809,1395.80254511727,-88.4849267270025,318.545629361154,-39.8444337869351,2260.21464623643,-466.38102359073,1086.02763713546,-201.734642736825,701.719881322823,-2.94893966080431,1662.32613386478,-353.237032694501,615.353223937397,-113.154679337485,512.61780027847,-41.4133891211348,489.494937090832,-15.1254244675058,1734.58420562295,-440.864452974698
848.823592351905,105.3636523125,394.809703815745,-36.1773670357888,1140.97009415904,-51.8752151689001,258.479320243203,-50.5851126433828,1258.80079891231,-44.0682340430716,1403.16532874678,-89.5583448766987,325.665138251005,-42.9505649841658,2278.44071314071,-471.907941912879,1100.10119333392,-208.88439211745,699.731475484036,1.58565596326642,1642.11185917354,-331.974928821159,620.286015089314,-114.012791647117,526.885375936553,-47.8527446343574,493.003649301865,-15.1458372944679,1756.76852857706,-449.972377317754
828.4279284578,121.779825009897,383.731858902426,-28.7105511649035,1153.97161308595,-58.9658597776457,241.940317321161,-37.9374123692689,1235.19280938685,-39.1807580017615,1381.35398298283,-76.6406222369906,321.151323263851,-40.7409232097903,2265.95479926871,-464.007413776634,1088.61037776332,-206.815654900534,704.715869062909,-2.1591156117661,1657.86220422276,-347.677143820575,613.35749409362,-111.162526303979,517.97843614777,-43.481448573576,490.011836633664,-14.9101403569412,1753.57719771795,-452.341081646346
827.410511377844,124.204804358425,392.711914327414,-35.7330691898079,1152.77049065768,-53.8271797345757,247.551820287607,-43.4826488140672,1246.73522657442,-43.7214462893374,1394.76177115723,-84.9519394181705,321.162021452,-40.3462925738923,2271.20111259349,-470.820658462433,1111.61279243142,-218.519871896728,711.320559038496,-3.48341826005916,1646.80829587336,-342.28927958825,619.163267101973,-113.401224651094,518.71389029155,-47.0044496801312,490.53745331866,-14.6926097868628,1766.86252491494,-451.278929935922
828.720289484242,121.737045417348,387.57627056655,-27.9024878190805,1168.29239722326,-62.9015564581912,250.412331860222,-46.0578886498862,1271.56206776803,-46.7917683305686,1402.18587408953,-89.5424552804387,327.238132042614,-43.3330239262229,2289.46317330142,-469.009954587567,1110.73591958198,-215.512899753649,711.282440134539,-6.30502166259795,1666.41633316745,-347.734836666631,621.254108453566,-113.387413034627,523.214466583905,-44.8087785591346,493.241862634485,-15.4577934362794,1769.45530933016,-454.992245317605
839.128127767284,113.559259183866,385.698879279886,-30.9505515181711,1145.70979039498,-47.0649262510213,244.829887456453,-43.5967846032294,1233.8916684031,-40.748431814293,1401.23612501518,-88.6700166413593,323.411304917207,-42.5699476106616,2263.71731933087,-467.274731846982,1101.4115732178,-214.462377178445,719.402423272704,-15.52630755037,1653.49095373341,-341.182648694682,614.590414785037,-111.670412926726,519.346317940773,-48.4105545527331,489.715639780798,-15.0345404759229,1748.28798428621,-445.859381206619
835.687582252219,110.673854777154,389.470702159199,-32.7782110892584,1153.05778820183,-55.2214910618602,244.898728790551,-43.3631311984848,1246.9973547006,-42.271635045499,1412.75744861914,-91.8108370065045,322.49094510131,-41.4707705830351,2283.44976736203,-475.391808158892,1098.43652495369,-217.448095986986,729.286171958922,-18.7000410004919,1656.60370338636,-346.247398650696,615.599119904879,-112.179782534961,527.980812717961,-50.0209986909605,491.918329574572,-15.2588786893877,1769.2777826881,-457.356563507404
840.206673403759,120.356805185425,381.933119500219,-27.4545004364264,1179.15032554176,-65.5102155749284,247.537521413103,-46.116498303344,1262.9962193428,-46.0026709294712,1417.94687304921,-89.7455920884298,325.885437167938,-43.3703987154223,2315.93780577199,-486.544262244315,1102.41229597926,-210.570573802589,708.726117054218,-5.64338376361946,1665.32103566204,-345.891194853275,617.545839085224,-111.995089812783,521.878997270227,-45.8431965329965,491.217985944571,-15.3858237217848,1764.87890747611,-451.674256965733
834.293508066617,115.208783691741,389.460624754614,-35.8478658122731,1158.04935071769,-58.5604276321033,250.016827596948,-44.3554201221918,1235.98418064795,-43.0254590741628,1407.55309256969,-92.1310194908673,319.54813289586,-40.7140129689315,2294.25768973244,-482.53031082429,1099.4451742885,-212.762334911128,702.236661886598,-3.1508000048428,1641.74012050236,-339.419673348321,616.469240798051,-112.131220562701,522.288237508257,-49.4385765434004,488.911390967733,-14.557745486346,1757.9406236902,-448.292710492978
826.769970570254,119.818913300629,384.169894274659,-27.7307999879911,1162.47488291075,-63.3025515166681,239.904255345113,-39.6501743147377,1247.51814384705,-41.8030556435861,1417.23378947725,-95.7433639136672,325.50186489217,-42.8612006479294,2284.92153827746,-476.55080017292,1104.72188128555,-211.784358034654,711.31226375648,-5.96203483655523,1668.76541821258,-347.163000517386,620.995361295911,-114.726477662886,528.68652039826,-52.4112397577813,493.121444321985,-15.2235767536481,1751.50776410298,-436.937578322769
833.5843410134,121.500395486199,390.854750277249,-35.4068643419309,1174.79758742861,-61.6095664434848,248.79971817511,-45.5239720694105,1238.8493885111,-42.2084019508091,1404.88912096815,-92.0066997241814,322.807666197314,-41.5799859048987,2289.19414315408,-467.927734768983,1109.79356195577,-217.568528342288,720.352012315253,-15.2460545723456,1649.97176746759,-341.728706387779,617.31145702691,-112.199965718985,527.248419207621,-47.6579333608314,490.14499578758,-14.9212795412622,1783.31629785326,-462.602150205079
839.244175315208,116.040594750233,381.512828022494,-30.929766571754,1165.65231495505,-61.7236335730592,249.883521197828,-43.8111578137687,1235.02667293152,-42.4766940037949,1406.10683156268,-89.5818309819488,320.287376195077,-40.4187605050226,2264.89005266373,-464.266345568019,1090.22845825697,-208.269632066361,716.801286098809,-10.0126409417594,1642.57733597166,-336.827916572816,615.199046305353,-111.06579392661,529.357784396252,-46.3182607304702,490.788101283908,-14.9446856451407,1773.08352229298,-455.818736187165
844.281349572331,105.136707999428,382.126275376242,-30.8681919331687,1175.10458367686,-66.5269219550017,252.086208309554,-50.2766704382016,1260.15604503291,-45.9959056053767,1419.72421877747,-96.5607420806341,325.068261817737,-42.8357614260731,2278.30889779727,-464.2653506193,1102.86100260406,-210.967603752101,715.814675540658,-3.81218296354932,1657.26722578803,-346.663136188459,620.324917110906,-113.706758436303,531.578854963332,-51.8987951093709,495.290650455121,-16.3414032115764,1799.64117332515,-471.917111721375
826.183332543292,119.831204122446,371.387991533726,-25.8535896054874,1164.43950245211,-56.8738865327607,252.443310745456,-44.8471012463549,1246.40069031765,-47.6847842944667,1422.56102772943,-95.9237982135219,325.060546359878,-43.2687612545629,2281.19530858748,-477.952189670212,1106.75218859519,-210.675176427168,708.498958842479,-8.41766152644976,1655.85082712683,-343.158369136371,616.938828210552,-112.467018611161,521.358822769957,-45.7763546957729,491.860453361203,-15.5896983192429,1764.32273414843,-452.660160450591
842.564222553166,111.361195368529,384.154353283967,-34.1171567472749,1154.96529268375,-57.860401232049,236.171678117478,-37.1864425166222,1243.30474537759,-42.4416123137265,1392.02293828794,-79.2935504515384,322.598809261545,-41.3688160146503,2271.7897905457,-465.679827414105,1104.39426582773,-211.904464550393,702.632625601088,-4.57344115960945,1671.9974701624,-352.358810365493,618.071614210194,-113.23569414392,529.105279587162,-55.9324004266792,491.828936558196,-15.1983023774962,1780.18773415259,-469.05219939919
846.329520854543,111.7109781029,399.19953672574,-43.9168366061249,1169.95298229691,-57.8291329118028,247.3536721457,-42.7359110770164,1272.38366331902,-45.7764652891071,1424.71113433343,-100.200442701823,329.210488859587,-44.903047551871,2306.13275092555,-486.955305853124,1116.51019765275,-216.110506404239,727.867011892234,-11.4640559916725,1690.0870955483,-361.362122250933,624.957869453181,-114.748238037886,530.310545331671,-50.4177905200962,497.389735791587,-16.0820448596514,1795.14687711546,-460.851399147829
829.073977612119,121.74775855785,390.667585006763,-37.4403758520176,1154.72473580453,-53.9029415232374,256.939515401783,-52.6749098996654,1248.36839334311,-45.6945752017858,1403.59578446902,-83.2132806726314,323.939699627264,-42.3717695857388,2295.04321098954,-482.209576330372,1118.14341513023,-218.660717758612,711.272424542834,-3.42264240786236,1669.43745883371,-354.999192503918,620.04457419483,-113.53369149026,515.682790261417,-37.630591551768,493.049681619268,-15.6936441062367,1762.31587840715,-452.066543853094
851.033449373597,106.78716230139,394.063539643047,-34.8100892976655,1162.72331985265,-60.8906259967065,242.72062843958,-38.4136313853677,1256.26077496794,-46.6171800517106,1415.14045018024,-93.4243626692809,324.354801814311,-42.833401524411,2276.22345619407,-470.684201341026,1104.64007691975,-212.732804738537,719.995047602165,-12.5474588967164,1680.38220687354,-357.790364044387,624.028716251455,-116.367470054191,525.823822432062,-49.4957504321564,495.974596061137,-15.9414282902494,1773.70225215761,-449.622733979469
859.959145487115,109.140869975819,402.498866041569,-38.3084737470228,1164.08033422711,-53.8360724909922,245.320135092667,-39.8486221382866,1286.80123525026,-51.4273352988306,1419.59862108255,-92.5325977245269,329.123533264479,-44.3256490080037,2318.8422960156,-486.127069530678,1115.209021706,-218.353099126143,723.887266127518,-10.7451696868059,1690.76966349566,-355.113959465593,626.860200160893,-116.105724344113,532.419691119859,-51.1433062959612,498.739638883872,-16.4396819242113,1770.42971189308,-456.180489608968
835.560604504576,114.050617627939,403.718695425459,-39.5702541089219,1166.63469137948,-55.5132245509421,249.02085658242,-44.4306755405019,1255.63667362935,-48.1876543899465,1411.12874662804,-82.6018110880027,323.592763506472,-42.637530504452,2282.83271838029,-467.776331603716,1117.83349053288,-217.719574008785,723.827677675316,-17.0223360572264,1678.79912441077,-358.895267743949,625.5545406887,-115.785597719553,532.665768657629,-52.9905954225012,496.424341739446,-16.1567468062957,1778.27513606792,-467.8210191495
840.847706705352,119.398199945071,388.306663183121,-35.1090374846848,1166.63445104255,-54.0387696415587,242.138208419781,-41.88870302702,1268.34583275346,-48.2032079278446,1436.23193827461,-104.373679952029,326.786302772803,-43.5365074354369,2295.93597953323,-471.437174387241,1116.68036111325,-213.838430546951,713.952612112976,-0.566059291363886,1688.75282943473,-355.688431726138,625.97565763114,-114.326289482184,533.583167285543,-53.1957566178583,499.643472539963,-16.5379423418678,1776.7569016251,-456.658316711238
866.151537746662,106.649792533257,393.174343179877,-32.1215158547531,1180.89391964477,-60.7150073143556,242.482534468765,-43.3371394421305,1263.02957162712,-54.8017585490473,1434.8732478605,-97.3855258282899,325.012372987869,-42.9681335045344,2291.48979290921,-467.46352043532,1115.6525240401,-214.802876101698,701.218185888505,-1.01768693750213,1684.46872006338,-359.216073767597,625.09493661109,-114.054434567764,531.559794047555,-50.3195137519747,497.452558535686,-16.5257354953736,1776.82692597912,-455.793357120022
837.130723926614,114.223358548868,385.777454657932,-33.0080664415453,1171.84907589619,-59.4066116347807,251.174527470439,-45.2324956115229,1259.74231493168,-50.2792045583792,1426.76891458353,-96.0458740916112,324.500001832866,-43.2516333582366,2292.26255742409,-475.019145194537,1117.01588880662,-215.381894289352,715.014169701448,-10.1882116268203,1651.13408933799,-334.803330353761,626.999423362894,-117.258653131374,530.020060770714,-51.2129938365666,497.054820970073,-15.9180098986988,1768.36011638846,-450.230661725444
852.065613400215,114.879549112104,399.955923920076,-41.8138780546552,1176.1098387057,-59.4231729829389,255.029687917958,-52.0814802022645,1282.17574328706,-52.9012142676613,1424.72349758874,-91.0770185141784,327.528386117557,-42.7589638729333,2325.00344087873,-487.743654520545,1122.23980187497,-215.7627150034,719.19348869876,-7.34836622533355,1694.44211524968,-359.629754882834,628.144254863704,-115.941001000465,539.456623365779,-52.6113933462488,501.543293875669,-17.4049746822448,1807.07988492197,-464.124755567707
854.453909233403,108.867322878375,387.14347427518,-34.4501463358941,1163.90568367727,-51.8820652336511,243.760115135127,-38.4407099690406,1252.29132436215,-48.0787474503799,1411.79540316784,-90.1203565482234,323.043280229821,-42.4646608229571,2313.37096741703,-495.692426626805,1106.97332306168,-212.250100150496,708.464052916686,-4.16446951991977,1666.65372426414,-349.309190555286,625.242683438074,-114.791759334003,525.678379559633,-45.0661576352802,496.317647992082,-15.6203429542084,1754.49541404397,-455.048740612809
855.406458951252,111.087779933374,403.203190495544,-41.7465306545798,1166.50336251277,-51.8724994359381,254.58486076537,-48.6846748745739,1265.58034734346,-54.2729685261501,1416.85051002575,-86.6315508606617,322.967454623517,-42.5052358623942,2309.61745823997,-481.147945869883,1120.18409498221,-220.689740178514,717.675011591216,-9.2128218707425,1689.22835515488,-352.952256417264,625.227623672645,-115.154982647345,531.175184650852,-48.9920981487356,499.128728058211,-16.7221839699511,1788.71261463545,-461.872365471882
848.625086186435,114.296506127295,391.979895843886,-31.0196902634278,1172.43952439291,-60.3575342333725,240.072694892534,-40.6750675015139,1290.32828251063,-53.3408624476504,1436.74000928026,-93.3381372678154,325.231787782846,-42.5609598072549,2320.63031745911,-485.41712058649,1133.75846836848,-223.078276312748,719.244784835524,-7.34856063433237,1694.97526491991,-357.00538987174,627.899444454707,-116.099960606734,529.125131473318,-52.7024996907176,500.267448217052,-17.4604860157089,1767.94620406869,-454.912008903963
842.885543726255,110.535939777588,385.781970773248,-32.248610098059,1172.98494561109,-61.2680462541344,247.64971620547,-42.7834587983489,1250.99285391456,-48.0741042654691,1410.83311894711,-84.5933910356173,320.412086350411,-42.2594671689453,2314.90972264286,-482.323676962239,1121.51934628979,-221.350832520278,711.354771041408,-11.5610396337488,1657.06550800792,-345.543937532668,622.593978377625,-114.188787701122,530.099111241663,-55.4139077453272,497.242922680228,-16.3186456237238,1775.17226182224,-459.192216048103
846.770230171843,113.183066263698,396.988857643517,-34.943434050159,1167.42282088397,-56.6844149835901,242.297974979465,-38.9091548030391,1263.74113680538,-51.39986309872,1402.77456766825,-82.3180529341929,322.854763792268,-42.727725373382,2301.69839719475,-478.01762397647,1123.15517999386,-223.476354336763,708.697655909436,-4.05211993235939,1682.79696788053,-354.8517321456,630.191897680827,-117.504068798331,524.814405049183,-48.4207307277514,499.233978304471,-16.4619174225305,1782.47633787793,-463.060220493427
854.197957887405,106.661542429292,396.587681004201,-37.8121264441259,1170.65167940642,-57.336007790979,250.991436750629,-45.6149227655987,1248.43236837125,-49.7607310276005,1400.61805485318,-81.6037952921621,321.714714772957,-43.7187128388275,2302.49836615974,-475.403763357999,1109.29842557065,-218.518486650971,701.420110870127,-1.99720863462976,1658.65171132418,-350.35447147212,622.374318408588,-113.949308345073,527.526229571022,-52.3611725931239,496.45860377769,-16.0274930568463,1769.62421657898,-452.018746362493
833.116229193626,118.357853499338,390.300609098043,-37.5495738947391,1166.56615155508,-57.3786312470112,237.410047350807,-35.1443357216657,1246.47754403399,-51.2480190367471,1389.85082769116,-86.9576604607641,316.471784219291,-40.8027725377634,2276.11808145606,-464.637320745974,1096.19312273855,-206.619246978863,705.736427794873,-10.7749180809172,1662.32651616712,-347.745029965185,619.692348986949,-113.15782279706,522.700495000102,-50.7138158189651,495.456576811015,-16.0492979405244,1767.39764576329,-454.823948486805
845.567921867473,111.410127057077,388.611687547329,-34.290792575819,1158.6539576737,-53.5768414578132,251.014062219355,-46.7911590215885,1264.58254522366,-51.9623453190375,1412.50618592762,-91.2394172520896,319.534199049406,-41.0533499228022,2315.11986542647,-486.936980964504,1107.85393573686,-216.279607730395,718.138214289159,-9.73250248235979,1657.22945092498,-347.164318116408,626.005253275732,-115.838730159704,525.919592414961,-50.1137447852438,499.91210099568,-16.726691361126,1772.28542149261,-452.14245238135
841.652563538599,112.329720603077,392.600602085575,-37.8374985475261,1162.76934326857,-53.3270558907215,250.412157650651,-47.1237866126804,1237.5333297205,-46.8549820661575,1403.98515339587,-92.180708955315,316.070826156706,-40.5096779319427,2292.2246813596,-481.93729003135,1101.90674526994,-211.515654566673,700.251743690717,-8.3282701965375,1652.31784658783,-346.933619792605,620.563043698023,-112.009778495976,516.668418427051,-47.2438887700022,495.075889750236,-15.6832085959363,1752.91020467358,-451.866992128283
838.025697798747,116.19579852643,382.661894430253,-29.9047609737549,1161.59523270689,-60.6918449493875,246.995233897186,-45.697558091992,1247.38229887132,-48.7957392899953,1409.93233733745,-96.1984433360151,315.707070532791,-39.9342581063147,2287.45346895068,-479.877028259869,1101.39019606422,-209.644619008437,711.094473915352,-9.84892838763794,1670.5362205629,-354.460860037042,624.119234747598,-115.168177968793,517.893427841534,-49.0147934551349,497.207994737536,-16.5606182849659,1783.49819706907,-465.810557275675
853.499341597246,106.655209269321,391.252996650924,-38.0024962413779,1158.53634678908,-55.1518879409813,239.967420235219,-39.31476760658,1270.40991197058,-52.6276843509057,1400.5327948177,-81.9777141512505,321.519937373145,-42.1898035808068,2306.41993522515,-482.123272640717,1114.00500076899,-217.630820785034,702.213165342334,-5.01858814223492,1665.23828648446,-347.242576785917,624.658989245795,-113.634705438698,525.053619469128,-49.0175503444429,496.364997061885,-15.9448808530418,1760.53246557446,-443.827809897631
833.645248830503,113.780857917428,390.135459348535,-39.9106185972035,1162.63503348609,-59.6478749580889,253.889067260317,-43.8574787502451,1243.3716701383,-50.0634473792155,1399.21560256501,-85.7803210845792,317.424833496622,-41.7788213212609,2289.44795240741,-472.929859222916,1100.63977842792,-212.684518051896,701.73985864976,-8.11316195624791,1641.3189913978,-338.841561765575,621.730824594516,-113.219986130064,512.593941521403,-42.4490420444184,495.183100551918,-15.6626734383723,1766.94840494595,-459.149260671973
842.860965472754,109.714529359952,393.214165668076,-38.1885704830369,1141.51884203678,-47.8895242103663,246.909563072665,-43.005269513811,1252.55703993694,-51.3108646767564,1403.67059069896,-87.7989149279966,316.502951668215,-40.7281432039207,2290.94074134596,-475.608897571391,1094.5786664489,-208.894232301232,710.953020340888,-8.66233356773397,1668.87396568677,-353.257703998937,623.446929084037,-114.685317511222,524.850250080586,-50.1609157891666,497.439426684161,-16.2784059552275,1789.8668512464,-468.588483784706
828.342179153267,116.833510366959,388.023745392982,-38.6173433374476,1162.23498343198,-57.3434577009528,232.512829769311,-37.1889998719438,1229.99870930761,-47.4033166010287,1396.49170681418,-89.4417945876425,312.009727724215,-38.8941380608587,2273.06954463639,-463.168163216448,1098.47788667727,-213.88676277416,687.408337469249,-1.39088813939383,1646.90741499161,-347.494103950688,616.182348525455,-111.448121566368,511.871552786335,-43.9757495797896,491.729262381064,-15.6385620221169,1748.75454282681,-438.004806531956
838.148214116531,111.29194780381,376.351581325679,-33.4910924580343,1159.17011802494,-58.5681163924227,248.575829148648,-44.0062171623849,1229.22926583831,-44.2249729582664,1378.06466226704,-80.0000937777554,310.116424499105,-38.7943563470487,2282.67949319098,-474.889793953801,1081.01010404779,-207.764245923121,698.975714121982,-8.82612519423922,1636.4359129037,-342.699835315682,619.005674665788,-113.598191392373,512.678495140678,-49.6103486699228,492.441758311218,-15.8573030644239,1772.87350092341,-451.120411453292
842.579416657588,112.504599393228,383.153495197087,-32.6343286193525,1149.50347567922,-56.3166058465214,236.907527074642,-38.6736861239917,1238.93196906393,-48.1695699904394,1378.79667399609,-81.1895926996559,312.957870156589,-40.4901260580571,2289.16352172996,-484.054941993683,1095.15301807949,-220.198406614782,707.416930995283,-16.8845586996723,1637.01725518628,-344.355619837669,618.743491509123,-113.450480740296,513.604433518045,-47.7211050534897,489.470921441963,-15.4474204565769,1761.4490686375,-458.512696465467
828.932717551986,108.334954464475,371.282097841162,-27.4932878732476,1144.44879451663,-51.6940004994194,248.276610412301,-45.7803870773239,1212.86791437857,-44.2255351901818,1373.35928599581,-89.9989483846734,309.186474315517,-40.0752646164262,2267.12349567826,-474.549875136251,1082.35844897877,-203.611515184884,674.297556843443,0.377228712862044,1624.27033563788,-335.879879304094,613.391389768095,-111.57461140878,498.578214845544,-41.428496417915,485.946633508882,-14.9362844272164,1748.10433838201,-443.720063484416
844.027048491867,111.024461024007,375.397372716551,-30.3585556203537,1148.47739029419,-57.4387669203195,232.270425429107,-36.9942279510337,1226.21740313381,-44.8226958314103,1391.84639614595,-93.7707664725025,310.869010919536,-38.7632078264169,2248.92306029988,-451.317059357823,1078.47488420827,-202.637535188204,700.432455514936,-10.7551818865784,1645.99970212977,-345.201790103539,617.343683063426,-112.931956270249,516.904548085352,-53.7743440065929,489.813757475779,-15.4582073942985,1761.90380389781,-457.186947636741
830.278080797522,111.541928031667,374.352693562976,-28.5155674990908,1143.7464796538,-48.8956663348301,245.095203262906,-42.9803398209169,1206.89863940734,-42.0808257487583,1369.37769740415,-84.694809882674,305.177992419534,-37.4098689807938,2255.88315712626,-464.432660966885,1091.40770138715,-207.986188206618,678.028536956845,-1.89728104590476,1626.63072495659,-337.922979718667,613.760386829173,-111.678042205784,503.346702704734,-44.4186123968907,485.521205433967,-14.7615914125693,1739.40722455448,-445.900587381461
818.318352984756,112.19613776865,380.050785942841,-33.3552301393403,1134.9230851647,-44.3241339446966,237.408258437492,-43.3472929023676,1207.83397732141,-39.9170884924896,1363.4830144478,-78.0143956191165,304.470427551345,-37.1818457662553,2261.70063915445,-463.991160311808,1080.63416329434,-205.185220003125,688.732206108314,-1.2524893819682,1625.79067730922,-334.056020882749,615.847894322347,-113.298709422188,510.143539408338,-50.9316093893551,488.632978565085,-14.9982137483326,1739.80263662055,-446.677699237562
824.67347803662,113.487165356963,383.268655464293,-37.4790113667406,1140.81270643861,-49.5783473049464,252.067144512518,-44.9655629198804,1231.61163453308,-43.6480878395673,1372.88755448269,-73.2618376464915,309.096777673497,-39.4795657236448,2275.91459826859,-469.992645996632,1090.90106011162,-208.512157831802,697.347075790546,-4.70203821340166,1646.02438638283,-343.325958553815,619.466605047416,-113.006939741113,512.745072444383,-45.0303434171097,495.383765816956,-16.0306602725873,1764.40629590406,-448.896078939056
813.891195657569,111.879170669667,380.854269226944,-38.944347028446,1152.180234542,-57.6456568688885,242.780061527506,-42.730779115146,1207.11340035082,-41.0344603482973,1379.63672786854,-90.875166035754,305.844578820983,-37.9854521317939,2262.90752492417,-469.46230915431,1082.85175467578,-205.484737331847,688.295700461176,-8.36384949729732,1639.2036491042,-351.429733417482,616.492240742486,-112.534180842223,491.637556777051,-35.6394711149891,488.638033724297,-14.4501682826663,1755.10418889498,-455.306588234177
834.132451006627,108.717073320638,385.106461422614,-36.5036879120816,1139.83624239418,-49.1123659169488,238.163988232075,-39.5872490720037,1218.04228847744,-41.3783311490584,1376.60166298427,-80.1238835206364,304.917404318011,-37.4913778846925,2248.4342116685,-460.129489487847,1075.29977920521,-199.939729629328,676.122687731041,1.30884590589903,1645.70077733678,-342.663109440451,616.857892645948,-111.162178699389,499.769142066983,-43.8235311615814,490.630139076173,-14.7857465183253,1749.73376837881,-452.360901054125
827.661013355472,113.844413864234,377.984522031727,-33.2500416157335,1150.97410534366,-50.9880366060961,250.260710645575,-49.2829399240342,1235.96602020808,-43.7007492292035,1373.17935112419,-76.0002365291322,309.42416445072,-39.4458097229906,2269.81796277751,-474.58803356004,1087.11181035118,-209.483297422574,698.452485532503,-6.53603381324492,1646.61183414211,-349.596617327594,618.99978010566,-112.802989779266,500.653298724086,-40.8539755265273,491.469682561599,-15.4120284112422,1742.01855797806,-441.619353378265
820.343857269458,115.972740177046,383.811824651482,-33.0834434531831,1145.41421514085,-57.6723729825476,238.266121435338,-40.4635131971614,1217.77135885876,-43.4282589779633,1364.44928915126,-81.8117174945865,304.819251424415,-37.7845125720318,2255.70635205039,-472.297752132661,1074.38607183082,-203.57414839974,683.294687306885,3.34309613506247,1619.18697240729,-333.565368102975,618.157189026346,-112.498157756662,496.016285731046,-37.2537662223228,489.469687475705,-14.5594957969676,1749.12305064193,-442.283265388586
832.434262222882,109.70486407903,377.377960538738,-31.0595328075692,1148.93293671396,-63.1853883971297,246.527710829651,-48.3393846044125,1229.67980724802,-42.0802643348331,1385.58064366922,-89.0791791970958,306.716314503204,-38.6797095704066,2254.87953202341,-467.307331209525,1082.43912513149,-210.163286107177,693.783386120302,-6.6445028554033,1643.44948605733,-339.432968518357,622.162576402448,-114.131111279839,517.740660629976,-52.3461294525255,494.046651903058,-15.4139742323794,1758.10071082055,-441.410284417608
822.979988259512,115.724569002613,379.57532078868,-34.4154363101142,1150.87557013086,-57.1717900202869,233.952432459766,-40.1833613352467,1215.11763757348,-39.2570639428045,1379.78469497547,-88.4962733842527,306.441478387013,-38.8561478703825,2270.47258053754,-470.440407548528,1082.93839410729,-205.201414272205,697.410503768669,-11.306091999855,1637.95862380575,-346.009914383703,621.224432103543,-113.453055144124,493.808628518365,-39.5119204415137,489.525314411588,-14.8168176720413,1766.35711626878,-452.963371940864
819.387228898691,111.136174095337,382.62880491242,-32.6364229739935,1146.4054034253,-45.0014321707336,236.827663764486,-39.8260953744053,1222.21607797022,-40.4067758582691,1388.16472841094,-87.0950999736126,308.662932064977,-39.2100717704249,2265.26532605288,-472.744573813843,1084.39596714362,-206.706860405557,693.564673695318,-8.38814707752921,1636.67386905881,-337.695026640167,622.169295874961,-115.018176075463,488.04955208825,-39.8526463888343,491.742292337752,-15.3387215249669,1744.17381203653,-446.54048802323
845.083123568246,109.298888968186,395.075149969133,-39.8282617946571,1155.26803162174,-57.3407877438635,236.046156223371,-36.7389698883306,1240.83328108363,-43.7814881316818,1376.5139513225,-80.5903538579706,308.306892095238,-38.576662439808,2272.12632577415,-474.920776967754,1086.23954519815,-207.869956060128,688.055198032116,-8.07968625356117,1636.80919778909,-332.474100674288,623.966815257519,-114.853568508992,500.116780566635,-43.7682602684678,489.054925165681,-14.0438373581664,1764.6977708545,-459.40469957212
828.09946924893,112.616143864313,380.707933276364,-30.3948296646584,1142.54348218687,-50.2192407952402,239.754309630874,-42.9745784674964,1217.88259278406,-41.2934693034223,1383.21680809389,-94.8613418711975,303.646136722721,-37.1081214022123,2261.63112246098,-467.051685012019,1074.0551670611,-195.707857079249,688.879429578265,-1.62469209051666,1630.76467437794,-336.495788695429,619.269047088891,-113.199003155118,499.021759247875,-43.5303380955792,488.610350860656,-14.521783839146,1748.05821501206,-444.473266086759
828.147848023855,111.559582108826,371.376463573608,-23.8768449282411,1152.19421404936,-56.09816814092,239.560716302682,-43.9037957912831,1228.29462563714,-38.3620828938367,1383.6886676765,-76.8233735469193,306.338086735312,-37.3853816268407,2266.91339111115,-468.682461858803,1087.02536755229,-211.847076164126,693.323934436289,-5.21249353179734,1633.7262530023,-330.608131596401,620.980603239252,-112.878238390788,496.23952788276,-37.5650748479227,491.685091990035,-14.9416292915077,1775.26536275355,-462.041000400881
823.803624136917,115.237194645756,382.041968144374,-29.3796589356828,1158.55550861471,-58.01357070127,231.030342319738,-35.2117997066482,1210.80376076797,-35.4637667364731,1383.22711616105,-84.69984393289,305.411166316449,-36.7815279173166,2264.3745925706,-467.5865417954,1071.01180066563,-199.387291312335,672.333282521974,0.852169079058613,1625.56109353126,-336.350971069512,616.355998977547,-110.963985648437,487.913040710682,-36.0985535737737,486.913560587374,-14.3247081471741,1744.83144818128,-449.543961668093
822.724246009543,117.963367679313,373.175096507918,-30.9745502012833,1143.27003697418,-55.0843966288033,239.723412866457,-38.0580785826935,1211.26623123383,-34.1131133526027,1372.90652230498,-78.2162637053417,301.621936528102,-35.142600071078,2241.95865199996,-461.103788863019,1079.92419210598,-201.994683875457,658.602385625767,12.5457225762326,1635.24385379826,-334.249654970249,620.264847389698,-113.119933077582,496.857363612541,-42.860372212309,487.856986799461,-14.2831192922845,1736.99953992967,-442.690403696209
826.203486780778,116.552436537657,381.298735216742,-34.9037542796944,1148.09636965107,-50.3620272994368,241.870472933929,-45.1204472208618,1240.47302097714,-40.8730771575379,1380.41133014683,-75.9928183339191,306.951041583508,-38.2346841956542,2258.97214117713,-459.538693355527,1073.77666540501,-199.63646001429,696.55723604155,-8.21371994273642,1647.75778731387,-341.224984468645,625.11059424549,-115.038716148096,498.572475081915,-38.9336707289104,492.447310165442,-14.6804400764443,1775.98536328125,-457.256349830676
830.983061814874,115.433845755315,390.184437986827,-40.0225540201505,1136.73567451673,-39.5403268223956,243.89271539143,-45.9678155403244,1209.6771961695,-35.5276514966712,1368.88010928157,-75.2711356548999,303.954695329235,-36.264887775189,2234.88914552451,-453.031245299688,1082.66253344073,-206.75317046046,671.49503337263,2.50396036616485,1629.73721922655,-337.68595070942,618.814297952433,-113.841848829986,485.661886250567,-38.2766990980687,487.475044845153,-14.2107795823309,1751.43117645423,-452.960581488502
832.592637360603,114.979044104463,372.651851714716,-26.8261258739582,1148.47734000871,-53.1785317661256,230.214776398476,-39.9198797237972,1222.47830540041,-38.1056833273778,1395.50498157303,-89.7774893015794,305.849785786537,-36.9289469250927,2251.82443313384,-456.759552095765,1077.16458639577,-202.041139104287,688.220064263223,-5.70765788714198,1641.19696849525,-338.119446723975,620.350883490521,-113.331244174177,493.589993223436,-40.3344042907165,489.86572404522,-14.5160435848735,1753.03250062648,-448.654263111864
833.133074198098,117.843541174469,384.227288451162,-28.318463045305,1163.16342825511,-60.0575413718552,239.429717611366,-37.7406354105558,1249.5054376391,-43.0508421273603,1396.78632521348,-88.6786845296499,306.974983261667,-36.9293627367663,2265.86921962033,-472.748031458324,1095.81860654969,-214.058533248029,693.649384703566,0.794473232543409,1656.64194641145,-350.384231492876,625.088034511003,-114.379971044747,494.696825247775,-40.9581761248754,490.344228408357,-14.6528687247933,1756.63710451192,-447.666434066387
816.197920177318,121.047965342811,386.061191118974,-30.3961847207367,1146.1974326132,-49.4627682118938,246.771878089465,-44.292794828216,1218.70839322446,-37.2453665208245,1369.87549387162,-79.5708779776845,303.501343627012,-35.9482745884487,2250.45134295561,-459.513841723281,1093.85436181332,-211.174299352441,679.144560595789,-1.80899563871243,1639.72980252225,-345.079650203858,620.48911983408,-111.849152681375,483.168158782974,-34.8129897192113,489.375805292137,-14.6661877421395,1752.63146456187,-449.774284669426
839.553966914711,109.727946902754,386.313208405074,-34.8442681525924,1160.01447136436,-56.0711091614424,240.154884625292,-43.2029477100267,1238.68648652525,-40.0195984762051,1376.99433638184,-72.0188095273833,305.869530095339,-37.3762468578653,2255.80884088634,-466.187410768987,1090.68820753754,-207.031719029749,679.929017298665,4.24771392631122,1644.11531443766,-340.69225162638,623.263494428338,-114.13911820002,494.099674347739,-39.757974695841,493.78891967981,-15.2587058428005,1742.38152549222,-438.837910419524
840.480060611971,117.251381312759,392.037954331762,-33.5994869274592,1162.11424836218,-53.1257127542111,240.543453750511,-40.4795014676577,1227.50030679752,-37.6450070738964,1381.37600019734,-81.5335422296804,308.185751305483,-38.1655809307872,2262.03666512948,-465.540949859762,1087.68327306767,-203.121186506946,703.607804392046,-10.6948750154166,1629.84496544711,-333.248166697827,626.864155567994,-115.685564600406,492.35727251444,-38.4309394634166,490.690613700752,-14.3203233596606,1741.65390933458,-448.035492008393
817.116314236824,125.910099288937,378.881899282859,-30.2562377566156,1169.96087243028,-60.6052476490787,238.111619098788,-36.9891082319698,1232.64104617642,-39.9021080930425,1390.92615787768,-86.1822255854133,306.159382264442,-37.787006624083,2254.24564546641,-463.091518354808,1084.89551501157,-206.236779962557,683.044712153481,1.39218274518104,1629.65136570257,-335.91138592553,625.595979442849,-114.917192163557,493.784084381493,-41.7530935924502,490.628860011429,-14.2737945875394,1750.48762918524,-439.99329088065
836.676900207032,114.679791361758,377.341321525243,-26.3945816933585,1173.37304753697,-59.4017516874257,252.604041159033,-48.6829514213194,1253.54639012416,-41.744665868737,1393.47281963334,-79.6523699394507,308.389815424125,-36.8489472130715,2283.08845843398,-475.550940240683,1093.85634539373,-209.457603134244,680.621642225201,3.29302123036748,1659.59787311364,-344.576711857734,627.344090379994,-115.071277659905,493.049920977897,-38.2139438498077,496.208905502039,-15.6935763875106,1768.36505591176,-457.105040149908
831.040830299967,120.316665410406,378.289273948972,-30.0409474485744,1164.57100606482,-55.4680560017109,241.840306692208,-39.9975901030475,1230.68692105717,-37.638906775816,1387.77970947647,-85.6576315847395,307.178809257916,-37.9582444151738,2273.89178814466,-467.430500625826,1086.93801362132,-205.7240767541,694.883924430822,-7.16021048872858,1637.08815409605,-336.262915682545,625.205646777942,-115.664222825435,495.556267135394,-38.0790902953758,491.656086568752,-15.1381105332107,1751.84989996163,-447.707519622413
828.261669019734,116.872640126807,389.680745768013,-35.0411447232308,1165.60896706637,-56.8241152421919,243.125827425133,-44.9768235193651,1241.25773823715,-41.2337666543383,1401.01379437112,-86.7151043349433,307.29840942861,-36.967611684802,2258.33459966552,-460.160801606515,1093.28116858086,-211.028987521523,688.962660525992,-4.20981971334963,1639.35942728181,-335.526991308198,625.134973762367,-114.786445325421,514.332235801965,-47.7187849285085,493.422682926847,-15.3652994865958,1749.78604268248,-441.876298642954
829.842207111978,122.618556836468,379.990141991273,-28.151481460316,1164.78246293624,-50.951822225467,244.802208524505,-45.6641697328184,1265.20227969442,-45.9380846063645,1402.12606587413,-82.6122345331556,311.306492810685,-38.2237994730258,2277.58267479671,-464.160771120436,1088.79465767986,-209.189083966594,681.618146178231,1.59578240900029,1650.31264781897,-343.063120266055,627.549436499909,-115.230642486292,499.633744947588,-40.2204119978133,492.490036749541,-14.9319015511186,1753.82807407429,-453.527419794892
833.015269717794,117.14782631775,380.816099384059,-31.4957434451482,1169.17689687322,-56.0633340614818,245.519148272324,-40.9421448808691,1228.98783480498,-37.3025380356359,1384.13178515217,-73.8187261109115,305.91770992947,-36.7109053720267,2271.35878586069,-464.970603209215,1081.17474290277,-199.773968800117,676.099069115376,2.61739951664162,1628.09217328043,-340.404567772717,621.899627718351,-112.744019056526,486.443997564333,-35.6109962726939,489.952198499188,-14.1985470682551,1763.32247362512,-452.410988474687
833.814481248339,115.668617969231,377.360200928919,-31.9049406085251,1178.07634631145,-59.7699515057047,245.119041676552,-38.0575190307893,1247.53630299995,-39.6034037105847,1385.55468952598,-74.3254342134835,307.963286236042,-36.5393357495871,2271.84405049537,-471.38023518164,1093.45214406606,-208.283692984282,689.64378854605,-5.58272679266177,1654.12066934786,-347.615945444214,623.89029837802,-113.44199651232,504.065072609814,-44.2495339167497,493.689726638766,-15.0479610713582,1764.29966973354,-458.875723695077
830.243588727304,123.353050655752,380.426193756178,-29.4799586840747,1168.98017825105,-56.9309531830796,248.71742132336,-41.1601692301886,1224.89149413822,-35.5985292548965,1393.40793254555,-84.5989863252393,304.295784717995,-35.2817456535357,2263.27845461097,-458.893497604442,1087.42702363253,-211.154524910463,682.767467776049,0.452629411442089,1633.10346647924,-334.132252582215,623.801419936583,-114.16838825407,487.845155145988,-31.2761103291385,490.115102770401,-14.5494171752761,1742.12920744405,-441.25688583824
836.19647861151,107.874811992991,375.948740638544,-29.5425703440161,1158.89621310067,-53.7557752651226,244.107166399439,-44.2525304637431,1227.34938485587,-37.4427325541645,1391.4575214262,-87.6956774514586,305.560443056264,-37.0912097279563,2259.22742651009,-458.245243115421,1080.61954443817,-207.997601571181,669.880788396357,3.69786801825546,1628.70312370029,-333.733194966786,622.860666036496,-113.9975505648,486.829584838235,-33.6916410322308,490.546103828875,-14.3885024638512,1752.32534507985,-450.19886518898
834.71511380695,116.567004595834,389.287342259029,-33.9119517292984,1152.32452921617,-47.9618256149884,244.177146058552,-42.8809944549375,1255.43112116667,-42.4130562766305,1396.99270618622,-84.53310644021,309.499969007411,-36.5573637077721,2289.09807608636,-474.305206639591,1092.03118374003,-205.433588217333,682.719506868809,4.70804744190844,1648.09745274352,-339.977008373963,626.274950584161,-114.401711486412,497.932809117644,-41.6544604264644,495.604313447423,-15.5605746250203,1773.37091646213,-459.588568566302
830.945286767051,115.370989136941,375.726360682666,-29.753686133301,1180.87620705607,-66.8979440144613,240.532345262331,-40.5612750674238,1229.79815352157,-36.77436777663,1401.36522663568,-88.590316797194,305.782052229863,-36.700283769572,2284.15500558803,-474.674368060659,1090.20928771715,-204.808838960036,682.785440339939,2.74279304823545,1628.50372415472,-331.450277602979,623.002421476497,-114.187216244394,497.75836314868,-41.8291832807232,491.32088020174,-14.3839939804389,1759.75081757362,-459.306647210971
838.859007101552,110.476406668861,394.879342490438,-40.6548201255985,1161.68880331782,-53.9701214688357,246.221910627668,-41.1996678627668,1239.35679176635,-39.4023973482915,1398.9135388001,-91.0325548834694,307.923541854724,-37.6833094639567,2272.30112261869,-464.18458826777,1097.8740072174,-215.781699220294,686.069964037493,-0.32417768723841,1632.65809309147,-335.487868822858,622.097747917061,-112.721352943565,497.705527724687,-44.7717720862257,492.620239735311,-14.7551231819914,1750.84814360051,-443.692460507838
844.246976356221,112.705075280903,390.182506305694,-33.0992069012335,1182.16072977051,-63.7896750126782,237.134020151602,-39.2406927843563,1260.9278356814,-41.2469387501664,1404.26090004852,-80.6597491328342,315.418553721746,-40.6605431323366,2292.16664067024,-475.708222301356,1099.69649841917,-207.28427505205,698.599665605348,-4.80451465951977,1648.68928743858,-343.759582880733,627.069422396925,-114.746395979313,497.679338303673,-38.8705147899052,494.21326389467,-15.0505838066968,1756.87037262269,-445.801049901129
825.621706584603,125.910964724866,373.709626447433,-26.2614968222566,1158.17721177198,-50.5343270044043,247.019114470606,-45.056336095375,1240.58630554383,-40.1930696531438,1389.69066797564,-86.2405688269894,307.512943919683,-36.2740219988375,2270.23583178361,-464.986996550362,1099.99685083365,-209.063960932689,691.43293701097,-2.67210915368257,1628.84687390889,-330.631002247809,626.278666321583,-115.906206955171,503.77305081651,-43.6704595346491,491.641788513385,-14.3595177568527,1765.514270936,-460.383278890529
836.155096415854,118.790965771225,383.251587979278,-27.6782268728534,1162.95148446438,-60.5626964826672,242.694966565646,-40.3538109734104,1246.57200954784,-38.6874834763902,1405.77334992797,-90.4967600408881,311.754481207617,-39.1453046714888,2277.07656195913,-462.81859102415,1101.0209943101,-210.607669054764,697.551937820433,-3.68819010380266,1664.91905664806,-353.969614554606,626.003579629262,-115.049257605436,503.990335589565,-43.6386807631468,495.596980972987,-15.5206140232098,1781.27176040069,-461.338778894878
828.681137851685,118.083953565094,380.742549082619,-28.9212746278906,1163.75556519716,-55.9807990299546,242.837771796577,-43.535831843563,1232.68541810267,-39.5840612421846,1419.03966978857,-95.9507607960076,310.334719094705,-38.9083421876273,2277.66565389072,-471.349721966713,1083.58672806838,-202.359987656211,693.487470844405,-6.90590252315363,1638.31221941465,-342.459109677467,624.592324026493,-113.96132923813,488.777220306298,-37.942010909568,492.203298280371,-14.56711469977,1758.02843613975,-449.705063860605
823.042263179852,124.661154230872,385.191046977992,-37.3111552558266,1159.66670625823,-52.6551907169012,242.080294513884,-44.0798170193672,1233.12668138245,-37.7773028066077,1391.76513193406,-78.6306873727224,307.640956890315,-36.8568604500485,2234.19105606368,-444.484815759499,1092.32519858354,-208.227824327424,682.968723052753,3.79477340593814,1637.11172004979,-336.488570325876,624.200261929084,-114.691830796598,501.251303211848,-43.646932709338,491.033491277822,-14.8808670261788,1763.83731479069,-446.504056343219
847.435265200215,109.098270087562,382.862810325675,-33.3472044232163,1177.22238662415,-64.8430768732701,241.919413858812,-43.9636486460876,1247.06311386893,-38.8940674410403,1407.18455340732,-93.5449446884251,311.964960463306,-38.5053353323119,2245.13085340356,-455.942954955554,1093.29600881551,-209.777060818003,698.751511019731,-2.07621748788268,1633.42360851152,-340.255299397304,620.058628386326,-113.837474964847,487.83120310341,-34.0493147139889,487.669849403966,-14.1435840380247,1755.30420821417,-451.929788842886
835.355925897771,115.092514334786,378.331449704908,-26.7300501720396,1139.28812056721,-50.7917745914542,244.694117131319,-42.4039899515062,1219.58122010013,-34.5503959049985,1386.87506669791,-77.0311409541703,309.24238156107,-38.4599044305178,2256.39963973438,-470.841186471264,1082.03821483473,-201.582860082811,688.340063853068,-1.78419226788738,1624.30437905411,-340.568055989114,615.146778185517,-111.481914575978,491.628920163179,-37.4759189883696,485.245768799667,-13.7779474258876,1760.95444221246,-449.594225676431
827.226108817669,120.619582942285,389.129470140087,-35.1095166236103,1152.29071518634,-49.1228177723955,242.802731253977,-41.9497181137011,1235.91457227415,-39.0832243976225,1386.25952080902,-72.9641064488163,308.977806330025,-37.6933628359014,2257.53983037506,-464.836906259329,1093.6748834549,-213.573618980269,702.75116006146,-6.37989039489918,1627.6801924684,-338.157572847829,617.673123372055,-112.348681229579,497.605125035315,-41.1548036347944,488.768096221016,-14.6005065851511,1753.39188867217,-449.655798384177
828.582455412792,115.999491189142,380.652709020443,-31.6819835211857,1148.22159506204,-58.4031412803119,231.638531866695,-38.3719424034161,1205.19150827084,-33.3352766769522,1375.31442999468,-89.2055275502524,303.954789103629,-36.0592864894054,2253.8385916974,-460.97654640096,1075.88067604182,-202.38236966992,676.108369483737,2.97379865496104,1599.41070755408,-330.426797687334,611.989363375745,-112.797000221781,487.115044467851,-37.356820685323,481.490544375284,-13.5921597355984,1763.77945701457,-456.869473656716
803.931691846344,133.724425546482,381.658637704908,-34.2950722714126,1146.84882526672,-54.57894125546,249.470943155624,-46.7353652136158,1213.1670566039,-35.5563978528152,1365.08580001095,-75.3010560225069,306.731954355426,-37.160072503711,2236.73054698384,-455.387504996792,1062.92537199902,-204.482176886553,694.715530306237,-5.36160196195343,1604.53671254481,-328.382073961541,608.771316413438,-110.418402086135,492.019602036101,-41.9714972173521,481.176048459035,-13.709743746353,1736.53074227892,-446.729052013477
829.317500890262,115.69741847139,386.194709624715,-35.0684367212799,1146.83928571082,-55.6845106149266,245.828832560304,-46.7086911990472,1230.55322512704,-38.6125880230765,1382.57000666489,-80.1395533248548,309.368841582803,-38.1398071509483,2243.63132401871,-462.584832880477,1076.28860684276,-202.930579983387,672.877314264914,3.98588235974719,1603.397809005,-326.693665221998,612.136331710438,-111.849469976373,501.378155919622,-40.2431509121512,480.63041756462,-13.1323834448985,1736.47085944537,-437.626248030571
808.793050630187,120.3405252909,373.208839819441,-31.5900472790777,1143.12178042542,-49.8072447974577,227.992935900195,-34.0571592047577,1199.28702789393,-31.8578378148693,1363.48030619507,-79.7099593028757,304.920783075519,-36.9909418553174,2237.04966665063,-457.005051943108,1071.05383931021,-204.422983768162,682.021244326703,-1.01582437386799,1604.57281722838,-334.752012714342,609.322967191313,-112.19277033128,491.829980344707,-36.5566894434842,478.698012189707,-12.8460361769788,1753.55083349663,-446.805607725649
813.415084721591,117.858983506492,375.154884930492,-32.086276327594,1127.18375865444,-42.7598293819112,248.193159798471,-48.3332239685541,1223.8407973707,-37.1204845057552,1376.45089822397,-86.4562808185651,307.631137261791,-37.2606179476835,2230.51145966107,-446.272999819452,1081.67513078255,-207.065707260571,683.806008729641,-2.13800219463174,1621.09372189411,-340.830578975497,610.106833377784,-111.767435566216,497.031833449431,-38.0278199169168,482.786389241438,-13.9703311385443,1750.8848281003,-450.681642688523
812.187441910045,124.130324067585,379.184899482661,-30.5261254165439,1140.58183452394,-52.3235737523648,238.231603204251,-38.6481395605995,1213.64701554706,-37.5056995293834,1379.57309841027,-80.8385071976627,309.354395401835,-38.679484077781,2251.93202926596,-462.122070752043,1078.57192156512,-209.302258053189,683.410869691034,-0.305376728335733,1606.094979917,-326.17700498732,606.77154576597,-109.648045872896,491.081890227668,-39.0078932668098,479.932349294737,-13.3865342814,1757.45353335521,-458.512250769801
807.766065540772,118.179006938123,379.570991337208,-33.5938001438598,1134.91061354178,-52.4433501756846,234.531232626721,-37.6497898912049,1208.54069663315,-34.0604838645835,1376.3983399688,-83.906662774421,307.396113725486,-38.1371077833626,2246.61891743453,-464.223861612171,1070.64353049194,-203.953135090311,682.415808841729,-2.40981569533163,1601.16728975747,-327.348189557064,609.832814566084,-110.701693000422,498.149698350714,-45.0957735900194,480.818204442772,-13.8272332785622,1740.97930681456,-442.014287026254
819.622349326497,114.186775241899,372.315933596708,-25.8576244449519,1148.41934090387,-60.399365902775,241.857350776768,-42.5099027484131,1233.34334741414,-38.2569967863891,1385.63897256017,-83.1932453879582,311.049411547572,-37.9830886855078,2238.37273699672,-454.900641605768,1078.11776437564,-208.209222608548,694.01729481234,0.761104959233364,1623.17406568,-333.567394616391,612.612128067253,-112.298522679128,495.629245212318,-39.2688484222291,484.514852491308,-14.2599619455006,1763.3418231358,-452.446510030898
819.24123877231,114.078968529448,376.205999938215,-32.0547127030737,1145.76469243118,-56.9331436265719,238.229331557078,-40.2339828357368,1219.31824690285,-37.6144725912244,1376.1934023627,-84.3655505001218,310.664453285607,-38.634008731854,2244.04774363893,-466.604023527588,1077.42831389166,-210.592212628422,679.245369759794,3.48920581322781,1619.73758332625,-337.606808922077,610.330328482187,-111.246818369086,497.219512770182,-39.7203675292865,481.148437612075,-13.6122020209828,1759.08527082652,-453.46006560795
