335.401507159608,71.3157655563647,429.327155903913,10.6254936045623,685.401853833849,24.5747858652321,1294.13865404811,28.2014952724124,939.698669985573,60.3063713697096,1242.11840668059,73.5038671693945,2155.60597509385,-188.214375866814,1590.27839715172,-90.3848896841792,965.567462732886,-73.9118486636156,1176.59023097935,611.311530742392,240.715144441499,-30.4135642549358,1379.06874355107,-70.4832051741253,259.212221751819,41.8419206801105,770.043606298852,-23.4227370175405,681.904626925745,22.6954494713124
340.119644817738,71.3885276656858,434.077520309646,9.3680719600075,695.735874434075,22.5089977792055,1315.13698760118,24.5293425496047,950.927315591573,59.2741719231421,1255.61140042566,71.6458750287614,2183.60885022589,-195.924981407671,1611.03610127796,-93.9672613066618,981.930919722233,-74.9639525442092,1222.92695549686,614.562224798362,245.814877178965,-31.612130500432,1412.76628614019,-76.2863739660268,264.619245531489,41.5706582975435,789.789207577753,-26.3007965287826,692.386663733563,20.7518410335831
346.040403787498,71.1227715311293,442.093449639799,7.89685418629065,706.965357470963,21.666236316158,1334.00644342401,22.6323839637945,958.487326621345,58.3225199693513,1262.10700140923,71.9926596195571,2194.02260088561,-199.877974018362,1615.93297597733,-95.0478702299229,986.638947480844,-75.1342244554121,1184.58826918889,610.964115862855,240.777661051595,-30.5175892799607,1375.68282121148,-70.546227551937,259.907779321404,41.3584214287665,759.849223956021,-21.8494540682935,677.417406362049,22.398208840915
334.266283138327,71.3417386052388,429.170776823042,9.96815673570033,685.798918353816,25.5946149756303,1290.78307620978,26.7607197934425,934.376937137533,60.5514941235815,1236.58179340059,73.8163186611157,2154.49089759143,-191.7703983897,1585.19711091309,-90.2764672674611,955.563015269453,-69.7672294917896,1165.06651972749,604.521003279802,237.381731345484,-30.0736090950523,1360.77614424686,-67.5467611986294,255.866353100687,42.1518605643936,756.936549695735,-21.4491864273119,675.097826956982,22.7118316997021
337.196254472398,70.7241155744244,430.792474670545,9.92760967369653,687.572315418873,25.2027957134957,1291.80091982721,31.1986928931295,942.181837624926,59.5497301828744,1244.03486108832,72.0330109155093,2159.66795110438,-192.167167524585,1592.3290037216,-91.3730433589865,963.74643176273,-70.6556201583316,1191.68315382595,609.305240508148,241.613591378964,-30.8147442755829,1387.37492665895,-72.003895521614,260.459270399257,41.4751916158486,774.384296055105,-24.2417332980222,683.542637786285,21.8969282321199
342.271421330579,70.296764490713,434.351757899922,9.21144389384287,698.90823056861,23.1869364142337,1318.78498174426,23.8722313379255,954.669373936813,58.3424233063499,1260.20002351926,69.9117200958278,2188.28454124289,-194.996568282159,1612.46861749917,-94.6065350815245,984.696966070479,-74.3136817534169,1223.69621772681,620.169655985037,246.798536937048,-31.9563715672381,1418.28932569044,-76.8505121862147,265.351697453636,41.4257580220258,793.102924366928,-26.8357583542877,691.054563318976,21.3904797466706
344.061261157091,70.2082319134104,437.531994987609,9.42281900802818,694.431167705176,23.66731975291,1309.81683814702,26.7205622752804,941.494195251065,59.6473098671268,1246.78273845144,71.4419796388986,2161.53375724067,-190.077922997799,1595.57706173879,-91.6951757981176,965.440530374316,-70.0986782425393,1169.93765228689,600.416722022468,239.047834053681,-30.1990835179917,1368.20194444774,-70.1789929963121,257.195771468139,41.7912350133301,758.115689163376,-21.6796821297809,674.574326922932,22.389889797672
335.860048218839,71.8277637069176,428.1601685651,10.2347048919218,688.018719413364,22.6410802074292,1287.10874314331,31.0710880691451,936.254577530352,59.8633124433437,1240.00661523019,70.3961364106058,2153.15858162234,-189.757923059061,1585.89934780771,-89.715430435787,958.820124781631,-71.3311529227577,1165.25052805758,606.764512028832,238.219947404641,-30.0797982259311,1368.04508938656,-69.5185732197897,256.743919511505,41.7133984960637,760.337231539202,-22.0234731723924,675.188614391969,23.1509490711272
338.022620690254,71.5372702454365,432.827860209276,8.43919047866155,691.281852430127,24.0670115586944,1305.84940115858,26.7398310614161,944.367900810622,59.7096107256778,1245.61246633014,71.7634370453869,2171.16693641636,-193.071496292638,1598.79325528126,-93.0247479391339,972.57068094562,-74.0640745364059,1202.2224327457,610.636209231061,242.880006485425,-31.1988934555642,1396.95590049331,-73.3904981494606,261.143057282109,41.5798992991783,779.249681357844,-25.2110116307567,684.423824957947,21.9098595744368
342.162184258075,71.8121056390987,440.501553298553,7.06834451894725,703.188857020392,20.9166165169213,1325.53265147988,21.0595879031477,956.938322583905,58.7762443969779,1262.83188498304,71.5719111582294,2193.19362015393,-197.782913308751,1618.41390923289,-95.4936906911278,987.543381880299,-74.8056999223221,1230.05954079405,621.19728586581,247.834568952589,-32.307249259999,1425.53549667851,-78.7502073138749,266.345870268337,41.1674515351665,796.429354145462,-27.2615816225821,694.266947173685,20.4564588010542
335.779741661036,71.7188295936418,431.202049168347,9.63434326185574,686.003666893463,25.2634797908235,1294.4366184978,25.8806935095096,934.040567835667,60.8352382836833,1239.45420701274,72.2169751439715,2147.89141590109,-188.17433633828,1585.00691341847,-89.6398047899082,957.992703905772,-71.7599949908355,1154.85777948653,603.208266194628,236.550771103911,-29.8494289023342,1355.05257065845,-67.3026231765092,255.161986293721,41.6689241066019,752.381175467314,-20.3732396325123,672.655476507075,23.0921085623373
335.739179841536,70.0533555933323,428.546063232553,10.1988031402317,683.975615802366,25.7181892100908,1291.25733755104,25.0089475364258,933.799008759615,60.6241668249197,1235.12764775604,71.8190829169259,2143.06763022188,-187.616586463803,1581.66878466509,-89.5930195690438,956.427442950432,-71.9082571236829,1169.98661263088,604.36403069208,238.483080135029,-30.3855652186297,1370.20398722776,-69.8220221966377,255.519016322307,42.1604782693153,763.318158678863,-22.5615618008503,676.285841113124,23.1490758243513
337.623668101362,71.6734455352279,432.860711888334,9.64617426482307,692.389912772086,23.3996344599169,1304.45919480871,25.2251780363539,945.322542044077,60.1428851262039,1245.70803244439,72.3643444251011,2168.44145118957,-194.864079231102,1600.65222956903,-93.0843955102127,973.025081787833,-75.5045567274385,1206.05861521931,611.219260359718,242.693361353193,-30.9786192555816,1399.44730086754,-74.7795381053273,260.865678235468,41.4419470696583,780.50209450774,-24.6469078160507,684.022467019279,22.3068949139301
344.785775754549,69.4687104529798,437.377612435791,7.83648156870294,696.158994916164,23.7977954933249,1324.45760005484,21.9749666819537,956.35044564585,58.8473618263253,1267.21267075927,67.9366566221641,2197.39226981877,-199.643982747489,1620.061076716,-96.8967908785445,987.150288303627,-74.5792140583987,1231.28454056907,622.672823446057,248.104597417713,-32.2311545488221,1428.36062443186,-79.6575178241205,265.723524390937,41.3782349582014,797.354507961143,-27.407814204239,691.764952423072,21.1323840343273
334.813965612096,72.1444013102622,427.115411424847,10.450025250488,683.051503171568,25.8962686855187,1285.63988851505,26.9423944156539,928.084099994863,61.4693058237297,1226.41180102583,76.6351026345107,2138.09074712889,-190.498028574458,1576.05338768284,-88.5395125690064,947.974175666164,-68.1386561987647,1144.09879925166,600.739754796121,234.583601854764,-29.5592936432473,1348.01238620192,-65.8608914983295,252.908368163164,42.0107292933229,750.34330140956,-20.7389406866629,669.244209676653,23.7457181722803
334.02360327384,70.6802858561629,427.902401355908,8.83562451630679,681.961885298732,25.1593641546814,1279.57307564324,29.3399435497808,929.624387169056,61.9781202538294,1228.7170230282,74.1388645513436,2136.27071619192,-189.571398940197,1578.5506000554,-89.2152618892,949.776717032766,-68.2711469697871,1163.45959220778,604.242826906175,236.367165750935,-29.4721163512092,1366.06718421465,-69.6092641583916,254.091957570394,42.1483993269684,760.192406567724,-21.6408454403758,674.817966803612,23.8269965223303
339.464874743284,69.2089645545397,431.220784885995,8.85146281242398,688.027054678571,24.2586524763267,1293.10996367143,28.8970171763688,942.621516583159,60.308058338119,1237.10488289053,75.7433605669439,2159.26966150571,-191.480529391812,1594.29145367958,-92.0421814099023,964.657613106516,-71.1017464758678,1199.74342820737,610.4207432564,241.358340790317,-30.6603301634224,1395.07674981269,-73.8451865247452,259.143479494333,41.6746534134587,778.149444456731,-23.9979857508144,684.653496188193,21.7549950652442
342.123868538276,70.9237953698182,435.049543888336,9.99196398583879,693.77861318296,25.1126859081044,1313.67587443334,25.5607914809933,952.658406200243,60.1087004986968,1256.97568760465,71.061059077688,2181.88194172833,-194.815469074152,1614.58273536221,-95.0899738203383,987.288563479501,-76.8349436309042,1230.91384090657,619.41076178059,245.350359102515,-31.306066471461,1420.12110234363,-77.9726453366738,263.88128018233,41.0426157059658,785.466555332227,-26.535482600487,682.889683141086,21.8067243180722
335.763144779923,69.4699352974942,426.729663504123,8.96686461907204,682.644423883223,24.632441709952,1277.0000674707,30.203284001495,924.60456582483,62.0129050134634,1227.06115893561,72.8290698958473,2120.20769288824,-182.192468511882,1572.94252199118,-89.1564451234783,942.624115542519,-67.9080391852015,1146.19797595696,600.685078151351,233.674487091312,-29.2395348950653,1348.34567562109,-66.6590795618678,251.252045395927,42.2595082447104,749.58644118345,-20.3061740644706,670.214342109579,23.7765675768984
335.120468400969,70.3400995122909,426.409885194731,10.0449288707831,683.083917687941,23.2115765240821,1278.10248773965,30.3491626053446,928.093957785356,62.764322515025,1231.20723940808,71.17605671129,2131.5644146846,-188.516872997062,1576.87999736093,-88.4499524604541,949.930159078209,-69.2027930522251,1160.516939734,606.941998992216,236.653374318356,-29.9630780395744,1367.76520109797,-69.9716393493016,253.733339185434,42.1429218502489,762.52651475641,-23.1408512668198,676.633846831665,23.9464086940647
335.994495102323,71.6543452124279,434.119050546917,7.60599654662034,690.050395423304,23.255918388246,1299.79607938647,22.8150455231536,941.552070619158,60.5186362761422,1238.76059038343,72.6074168911755,2159.72755825039,-192.644101332844,1594.3285631673,-92.3708684043255,966.705602856954,-73.5386118440342,1193.88242917263,612.07726716201,241.218457564748,-30.5527560001538,1397.02863732444,-74.3893124960804,258.330445371254,41.7722265184045,781.458492744236,-25.8894413117029,685.258374845822,22.5031501813053
341.831445270244,69.7310889173261,436.225643664859,8.57300463148443,696.601676774737,23.0566437773095,1315.04706876211,22.6036186552863,952.595773788461,59.213768256476,1256.68111097867,69.4193305467897,2171.19716160059,-193.189009852189,1607.24031631265,-94.548662549131,978.269226213323,-74.0242149930764,1186.59575209643,606.529462278669,238.825686337936,-30.3020251939676,1374.38576547989,-71.3150300573081,255.273659142018,42.1405046918966,757.782043876835,-22.2976818586629,673.821058478249,23.5653130855215
334.625796690165,70.2453992026764,427.006590443869,10.2882284940336,681.692502418831,24.0039589198749,1277.77169781051,29.0739972387949,926.538901831228,62.1861817814034,1224.81239662971,72.6598759919153,2127.724622693,-184.992879970229,1574.81721061191,-88.9312816026004,939.746088291966,-65.0157405466045,1145.03478253816,603.964546375132,233.649454883432,-29.0910560288219,1351.17349498628,-67.7405074775891,250.695807477524,42.4112732316833,752.470677357926,-21.685344289071,671.483003829618,24.2511525915786
335.092121714467,70.6977835701923,427.29844941155,9.09951932247428,686.123346734224,22.6853590731149,1283.72839050585,28.1399595882114,931.656623353711,61.3546655910091,1229.47220142427,72.5208786922807,2131.26143425304,-183.089535981129,1579.98897571475,-90.0913787213582,950.845136846315,-67.8264892821482,1170.23328650136,609.368716000594,236.741029156135,-29.38713155673,1373.30925550558,-70.6078810830801,253.350964643069,42.4020817741462,766.311682834103,-22.6759108771377,680.662929062466,22.9858657723271
340.485235198257,68.6929843562892,431.145581839072,10.2357266097698,693.881236144942,21.7766318581615,1298.34997757994,28.4934508692254,943.711033212228,60.6424118231649,1245.6737803947,69.6466568800865,2163.25036287382,-193.202120871417,1601.01133622212,-94.1709536760345,970.602527806441,-73.8791282993372,1198.54336655342,617.867396454826,242.08821383487,-31.1167226288466,1402.59398348254,-75.526486576332,259.432916807222,41.5147570299885,785.64587342118,-26.4609043497415,689.486403747295,21.6444298725209
337.707620444553,69.8659240164685,428.848470930607,11.0508337429898,689.027736765715,23.5460055322037,1290.13630323568,30.5641173491905,928.664124085429,61.4119088162928,1227.28827620562,74.8499813907549,2136.47625217482,-188.150983809367,1580.72321365573,-90.2091971185817,950.315110116608,-70.2148967054781,1140.38955908679,602.499220038933,233.455144918548,-29.3072639597714,1343.98263889276,-66.344616734954,250.345494249573,42.7123935816328,746.298262873459,-20.2482000084642,669.626656010344,24.8165580926294
333.679845645945,69.8345618783447,424.313378802601,9.83083724479233,679.401666704493,25.1330958287672,1270.17233806144,30.9391145109749,920.778035880708,62.9895400232549,1217.74680434758,75.0128866338673,2117.32800274894,-185.819879218863,1567.94410341994,-88.6424852624988,936.734042591693,-67.0321484427122,1137.88400139848,604.035526382129,232.019552312246,-28.7920907329659,1341.72415811995,-66.3293480736392,248.486346590276,42.5077218910936,749.043946244939,-20.7626132964956,672.350447702433,24.762315947785
334.569858872867,70.0268107992761,426.448881415921,10.0912200349802,688.980407006098,21.4415685596059,1280.93171411699,30.2603802771273,930.32840705868,62.3630288038047,1232.16968594993,71.2504623039607,2131.8490616332,-186.779288446171,1582.17186412243,-90.817227485952,951.166604600989,-70.3301588164688,1173.04816816232,607.026567997368,236.506893659182,-29.7016370323582,1373.78084537719,-71.0185910608465,253.803303474346,41.9845307397566,768.716368713335,-23.7269295350784,682.820433246682,22.7483127237739
339.090587622261,69.8876884044138,433.620862632673,8.8950558290253,693.631222355666,22.5966497374919,1302.1409970184,26.294674271264,942.095759346097,61.0920083996926,1248.87812524816,70.3204916013267,2157.08361015361,-192.762296550876,1603.27811203645,-94.9480906974199,969.616438700759,-73.3832006970831,1203.83490483733,615.524457455099,241.992833081362,-31.0043520489667,1403.35025548413,-75.2622860624331,259.57466083604,41.179923405588,787.014663812288,-26.6077930930871,691.760798630844,20.9989636318246
336.1660188292,71.2164010932268,427.907965321899,10.0836250430471,687.063209741474,24.1755556705994,1286.59349578535,27.0385563737088,924.36712686169,61.4516473244417,1225.90445500465,73.5880143815165,2120.01098780187,-184.072665287603,1575.76876945115,-90.0244592176017,944.217909840848,-69.40322628982,1134.84132880493,598.456853821451,230.999657928066,-28.6326916169834,1332.76788458036,-64.0234525438625,247.915949918534,42.7147561729834,741.581545383302,-19.8240333914244,670.32499266296,23.6269917916216
331.863365616674,69.5737663074179,423.444195599498,9.29599661067472,679.967132239141,23.8422341213385,1268.89440802434,27.87327036147,916.743319071103,63.1274100863624,1213.10683138466,74.4557997579542,2100.66099865278,-178.77783368253,1563.99438847407,-87.5736333120588,933.590605837477,-67.7688759725083,1130.41534742172,602.299631526281,230.346658688184,-28.4678561207679,1336.00282733206,-64.8170660436187,247.609481175929,42.4765346806842,746.405202210429,-19.8789723924294,673.33678058114,24.6080152401831
337.311767974518,68.2617198886893,427.427417572202,9.24338788010012,684.295841640403,23.768377470111,1275.66945835697,32.265714133416,928.106755339841,62.2661250521024,1228.34657805075,72.9704263252366,2121.52897351544,-181.778944211528,1580.28109384207,-90.8815891344235,948.009270280522,-68.7209853782066,1169.16687460471,608.148785626987,234.847555624459,-29.1148842283679,1370.00314882123,-69.845399356222,252.627856988895,41.7547753520064,767.338987464564,-23.4816506708712,683.647667109878,22.7782047165338
339.303378456997,68.9728419523799,432.415814267265,8.25353666610609,695.095950540216,20.4166692047741,1299.24474973994,27.0436774840007,940.514537843914,61.3854026625815,1247.10410071449,69.0366820096249,2160.08987225386,-191.317215471571,1601.72619625936,-93.6941690146512,967.049472026048,-72.9061784174978,1205.07230075179,614.579451944163,240.390303181231,-30.3086367054029,1400.4893667713,-75.3933007718199,257.624863637987,41.7295870870685,787.436699222717,-27.3963989568855,694.153131550569,20.3135967779113
334.814703777503,70.0789837368686,427.980613044693,8.55684802239932,685.919387583638,23.6319651428799,1275.61490331511,29.867692538258,920.82167534584,62.8133152187152,1224.04012366386,73.2570809019929,2113.5248797628,-181.373865659756,1573.92966259061,-89.9842729961623,940.112673216584,-67.170824820309,1134.60094212693,598.064022218616,230.439958274514,-28.382157845619,1335.56579674021,-65.6923412274801,247.63824415939,42.347190338592,743.712998474101,-20.2121269530374,673.760049654334,23.098552988136
332.593174066905,70.8651655414308,422.21169715915,10.9715176083744,681.471286126822,24.0282074420599,1270.36599056691,28.4401846442949,919.159313280735,63.0414368647385,1220.81603511365,71.7295679042213,2110.63215079464,-181.761634448718,1568.71038852555,-88.5680972357585,933.785852748311,-65.6993806013316,1139.96216904039,601.228881020639,230.890035826413,-28.2867400230804,1345.40405768917,-67.2525279758343,248.493136177354,41.9143087165118,753.205022489296,-21.6101917944507,678.552285768308,22.9805466652625
336.312659181457,68.6485613645886,430.483124728044,8.251339082347,685.513080194345,23.9833389287469,1282.46625737305,28.0062136055608,929.649100271938,62.4371509837373,1232.79692681942,70.5847793445629,2136.92180043616,-187.559473026294,1585.84294914092,-91.0829502317905,954.746567382993,-71.3458129236561,1172.04569474601,609.90831440037,236.325266869155,-29.4452602538576,1375.19742789333,-70.8231242347376,252.596619503784,42.0216984022184,771.11705960824,-24.1946199057698,687.886542535091,21.5966378645934
340.22479042008,70.0047647310845,433.677161011219,7.90528725397484,699.872339220057,19.4472710560605,1305.00025201162,24.9572745458085,941.090282406189,60.9996725778047,1252.4551094546,67.8165969298272,2159.55581604838,-190.640217625703,1605.40288873686,-94.5913013777857,970.020292945152,-72.9215185336536,1206.05258439587,615.195522064325,240.143861460096,-30.2410142632481,1394.97459576489,-74.4930526693616,256.571304824814,41.9773653390078,774.79111256656,-25.1828914297532,686.131329093335,21.0797643039466
332.491778628005,69.6772306571336,422.729811587612,9.17223825388288,679.500335251995,25.6127184268265,1270.51315350237,28.8480629235216,913.691348192336,63.4874937251047,1215.54010379864,75.2793363781983,2104.02398432808,-180.585955162406,1565.97703614735,-88.008840350711,932.091070091724,-67.4881506495464,1124.27663326711,602.993002808868,229.048733462519,-27.9135031018549,1330.21668397268,-63.7645425554385,245.936060041931,42.5115927235017,744.560803540346,-20.5307836989585,675.954593199814,22.5547122125918
332.200335584569,69.4176433879554,425.587097080557,9.31847134262858,682.803476263651,23.5041301264475,1268.44611797168,29.8066691042089,919.229598186947,63.2184131295878,1224.57919350194,70.1759146198711,2116.0015760092,-184.20918021365,1572.71777550351,-89.1425103881414,938.546701571801,-66.5428041252403,1150.53908976314,602.55939385036,232.236516217632,-28.8141928800756,1350.47394682194,-66.8978781808845,248.354782850691,42.5333261438012,758.047526988867,-22.4616460972362,683.487970099168,21.9412668410826
335.275611866321,69.7586527910828,431.264827458449,8.56988382882023,691.44894511598,21.6920264881545,1290.94592085586,27.1063795737624,932.504576489582,61.5093268111533,1240.35467765942,69.3767935173333,2139.01340387756,-187.630283981988,1592.16959879101,-92.5909472982605,957.644299250928,-71.0601228234563,1183.70794239032,610.362877267929,236.940063783164,-29.894561063895,1383.52482984485,-73.8858131183821,253.764493025496,42.1052222165997,777.016756632858,-25.7923408502898,693.691182106247,19.9182407356192
342.405466950015,69.0708963644286,435.440672761789,7.9812560940066,694.695628382536,21.0271011179247,1302.50128787621,22.0633277463306,925.706115454779,62.179520069398,1234.05544459024,68.2018196850682,2130.02947478855,-187.461114888056,1584.93778389066,-92.2801909211909,944.798253673841,-67.9661835876736,1133.58089291014,599.88970976489,230.152274891178,-28.6244880733208,1331.64760995396,-65.2678712414697,246.050435678295,42.7967788240355,741.531210775085,-20.2669810325754,676.08717079661,22.2057208555619
329.987513600684,69.8654841601869,421.855682657985,10.2414835112607,676.832266752823,24.2555877589888,1266.2579149236,30.6747388964083,910.284562469532,63.7534114252686,1214.98763137967,73.7639782224218,2090.55428150052,-176.073444182474,1560.71774000967,-86.8847800618853,926.923742304909,-66.6895270723794,1121.196495082,596.365363911628,227.515539161815,-27.9633300803797,1319.70330285521,-61.8124162041131,243.409806869626,42.5843720897807,740.024589222309,-20.3804246439609,674.784249778003,23.5389341158007
332.436460316894,68.7407619036505,423.048852368083,11.0247735382176,680.65096832488,23.2969539653676,1269.71971161787,29.5548306799456,919.677932757322,62.3284801706684,1219.42467097907,71.9978788253258,2108.65720457523,-180.762809274056,1571.64581992383,-89.8986915918333,936.359168573691,-67.8726697709262,1147.46162886533,603.755687852461,231.224468924456,-28.3312036817929,1350.20719800323,-67.418545347881,246.792238818287,43.0529937280418,759.160694660578,-23.3249954127047,683.394994789618,22.5281548275378
337.820191024881,68.5102119474577,428.478486424545,9.27452578885043,692.416104910632,20.1049563601686,1290.56189220914,27.6911210522628,930.724033641245,61.3842520230652,1242.52434665739,67.8643458956655,2136.00431715907,-186.102334499109,1590.87280346187,-92.6499102115604,951.602060814533,-69.373536404529,1183.35738539784,609.272139444963,236.389481928547,-29.5573828849352,1379.37634024528,-71.7457350811861,252.295959726726,42.2079335239369,776.999929157465,-25.7475910600249,692.682871889733,20.8727099973528
334.503110054409,68.8248623793785,421.472105837603,11.3020316458787,682.642014100785,21.1581896205166,1262.75873953887,31.1023598140297,909.835063768255,63.510611218174,1215.42574366886,71.3506821298403,2096.54869732896,-181.316779215923,1564.34711730683,-88.5132676268254,923.464134630285,-65.4745675515467,1109.89590597473,593.742001246592,225.936982842334,-27.360508778451,1310.82481145944,-61.4931030234443,241.675291054835,42.8070116208798,731.365038289574,-19.2790136967405,670.752625135557,23.1139481068527
326.806983613014,70.5290172187246,422.436104657335,9.86916056795059,673.835815232149,24.6222468339094,1250.06241629668,33.4089805116164,905.053852361921,64.5421300969137,1211.55386960285,70.3446591046673,2077.0179129861,-172.66030163987,1555.99132091192,-87.5726165502682,921.079941988749,-65.1611274232489,1114.80014579222,597.285215406615,226.660198260627,-27.6525566223605,1318.64201855175,-62.1960498868834,241.827851354715,42.7026404721124,739.812275249609,-20.2873580887589,675.308516573078,23.7439685141026
330.642717965799,69.9776692668767,424.037859613085,9.45435898167232,674.364605010694,25.568224958411,1261.38189830465,32.5428843154671,916.765715107742,63.5194596905871,1215.71359552642,74.984837278086,2103.64710648938,-179.30755539624,1570.3931167574,-89.9665228819744,937.676305006043,-67.669247746414,1149.76620764309,602.658287226837,231.240717863368,-28.4096285637587,1351.44898456133,-68.3623166578722,246.56797957876,42.47737601709,759.192755840225,-23.202846122187,685.569399835722,22.1424823288537
335.095370885911,69.3260515320323,427.771938843865,9.70709780870135,686.193218863137,23.4528128804159,1281.76161830121,28.6063618212506,929.019882001248,62.0245870038515,1236.73238573959,69.3050194426097,2135.29710626795,-186.038281505598,1588.80276275415,-91.9960805741529,954.456426399874,-70.9128401335495,1183.21461773306,610.199308407415,235.737706153901,-29.3286439502864,1376.93081665928,-71.9666305619963,250.536639862617,42.3834116402934,766.051319121233,-24.7119781392074,683.983473925591,22.2410557724294
327.504554871726,70.1618083801052,418.131308244234,9.67384745934592,671.07787677503,25.484728406944,1251.42107185472,32.1958210643343,901.248587583018,64.9932601323606,1202.72317545023,71.353101980354,2081.21364168981,-178.756556940024,1552.11665631944,-86.710550608052,914.886169900488,-62.7700786469198,1107.27419361033,592.466691847316,225.412667103907,-27.3081004839414,1310.58695736374,-61.7584238999764,240.209523339563,42.433655748157,733.024974268161,-20.0383052708697,671.820304705839,24.3213584540696
329.291701753502,68.1750101882179,418.602836851972,11.158006714225,672.543318632629,24.5529813667449,1251.92010509579,31.51548497056,908.387556366486,64.6278494689193,1209.31537188463,71.840585334858,2085.45562431341,-175.803949138601,1556.34308260217,-86.9501745592876,925.278288623888,-64.3753644599929,1123.06844342473,600.043743313905,227.668803745884,-27.7785915557141,1328.60177265685,-63.7531753665358,242.450772893434,42.8952021696259,746.176316520672,-21.8906357916485,678.904335657589,24.1726843401373
335.347490455976,68.3392929969075,425.581015917207,9.2716901879276,679.612062559168,23.5197374329027,1269.64156258999,30.7123028873206,919.797951122768,64.245297275982,1223.84237417262,69.5527310601638,2112.5327009601,-184.301073775515,1575.35300051486,-89.9531111150243,938.195209535777,-66.2123602602842,1158.88118229226,604.93333440515,232.656122921112,-28.5839660242989,1359.53430182627,-69.568373516335,247.868327652357,42.3001225325133,765.045959574057,-24.6000882356904,687.385617130435,22.4484273887515
332.473445096395,67.9270053478965,421.313412604761,10.1868769772688,678.572977954826,20.109421547275,1256.93839422221,31.5894816057697,904.066932199942,64.3695938827478,1211.54421699918,70.9685270557419,2083.40930644421,-179.866268045156,1554.57399823113,-86.8043536316549,923.917701105134,-67.7381685868998,1095.74857587422,596.407238464793,224.337610659243,-27.3281989490166,1300.75948996053,-60.7442341258246,238.033773676508,43.3867485696695,724.961099302276,-18.5786486097331,668.182622695305,24.3803209523447
326.139921221095,69.7641316191721,415.218131579615,10.9183087020377,669.178061289106,23.5547935933073,1240.10669454611,34.9407397980012,900.128279175193,65.0134317701374,1198.98736806485,73.4085826155952,2078.80386355659,-179.017654496735,1546.56578614879,-85.9527855027133,909.441129558052,-61.7361886420468,1102.61209976594,592.847514809018,224.224136264263,-26.7725077828378,1306.42067766708,-60.6756495284556,238.397857725231,43.0140504690459,732.592879694253,-20.0803987394924,672.861038923385,24.6323158197614
329.251662245774,68.8325513663111,420.22938332385,9.37181380685382,674.697910203011,23.2369995826442,1255.79277929532,32.3949525373254,912.408487838479,63.7131466767722,1213.31510441196,73.1477063527264,2094.99178686567,-180.079533353576,1562.7928475994,-88.8287427165653,931.21674865586,-67.5063420756907,1137.55283188022,602.982726670932,229.344322019893,-28.0209067147042,1342.05036577689,-66.6132795852299,243.727052389568,42.8252429355814,754.241152770258,-22.7324150545052,683.327261032621,23.7724473477703
335.049960431587,68.5003427146283,429.072379567819,8.76891457690388,687.206810195074,19.5175596819637,1277.68310551291,29.0460313298995,925.035724919117,63.138610280536,1229.75514306775,69.8589625226267,2132.0007991874,-188.873425917534,1584.74622247922,-92.2287622427522,950.531506311402,-71.0880398336406,1167.45056943571,613.154869698706,235.125247652809,-29.3058828895085,1372.55364160986,-71.2963792825207,248.65555225491,42.5416034328258,769.030823162787,-25.0764294005787,685.483479187237,23.8669489925005
327.919224611038,68.5962143880346,416.08995973532,10.0481473376533,668.278089244611,25.1146334222128,1251.16264148052,30.122468401334,896.391567170126,64.6312727578121,1198.48723913772,72.7328634127835,2069.07589489385,-177.082840789527,1544.84705868729,-85.9637997404529,905.320483976541,-61.2727844892166,1090.48320383638,589.072958575643,222.908242476568,-26.9414775856031,1292.93342270848,-59.5160283288659,236.958178580194,42.8524679880569,722.814051304276,-18.233908412719,670.523183971998,25.7428870757834
326.828877886599,69.0175826558306,416.571036541203,9.67176006084496,669.523122890322,24.82783239672,1247.36999601373,31.3278027475712,902.376510972241,65.159883368197,1204.7354572254,70.5721915464544,2080.74614742276,-177.98151779078,1553.30636404459,-88.7623232774707,916.597283332408,-64.4913423917577,1114.31198086976,596.63003090481,226.369824363376,-27.6914053594372,1317.25706809698,-61.9647598546799,239.932667647546,43.092358226025,738.746393953267,-20.1865978124844,678.729862540275,25.0583056148477
331.012011967935,68.0297724087001,422.879095439039,9.33489896292933,683.232287470797,21.7101215546612,1270.37368791983,29.2114002033834,916.51942567084,63.4532771959806,1221.8015161779,69.4700244694203,2112.83994131,-183.69804705406,1572.26325883604,-90.4664247637635,941.228218761526,-69.167735152546,1152.37292642204,602.7006727512,231.963627943899,-28.8962965825318,1354.85575626246,-68.4013447619024,245.720945702189,42.8511905722658,760.783993382988,-23.4548995895957,689.062389862046,22.8192402431631
335.16191398941,69.716586576986,426.804424680336,10.7269238648323,691.039548272248,20.6848050048707,1296.39279316223,26.2991262008848,929.407238146886,62.4797115579985,1243.96141853115,66.8294567777467,2139.84376586201,-189.797742548238,1594.73096570783,-94.8875365205611,957.967571378533,-72.4742246243472,1156.991781382,603.910625825949,231.247557583593,-28.3728515462332,1345.28841586241,-67.7852548103195,244.548021075239,42.9425857337097,743.234480649137,-21.2528471764862,678.834795862256,23.8565161501821
328.759238719514,69.413949818901,419.023397114948,10.1820711192431,677.985068686556,21.6009789572126,1257.45392816757,31.2402736375421,902.474068919768,64.5059460287492,1209.70666393626,71.6761642108355,2088.47685219291,-179.087880044126,1559.37020309203,-89.1550594481176,922.13272540305,-65.060971952821,1101.35231475684,592.515708818048,224.214676222921,-26.9480265390532,1309.9367894487,-62.1584597135449,238.733593837609,43.0028224522849,733.133463812378,-20.1480781450187,676.879384950975,24.1586788507056
329.844106779025,69.6934414346234,422.175952638484,8.82663634864798,679.395583915885,22.0090855921092,1268.34146259447,28.9334289522461,912.386612512574,62.9326438984698,1220.7160004647,70.3618296096062,2101.99859559918,-182.407869865318,1567.50187170522,-89.920996547993,932.301365073246,-67.5067743903875,1129.38355370374,604.744719503393,229.199471544185,-27.9778193316645,1339.60715660943,-67.2076700540552,243.438337680769,42.6922168049193,752.376155871356,-23.3773013021147,685.026986186381,23.998308595105
329.751822936939,72.586585363018,428.441909849363,9.04783019361195,689.830786095572,21.3221621956926,1289.75708405305,25.3339292166396,925.075970815666,62.266198398555,1239.50376725742,67.4016626949411,2132.33378269159,-188.58533904758,1590.0833340552,-94.1949368753749,953.696879410339,-73.473459752886,1169.19864730638,606.295151173636,233.993653104868,-29.0590297651449,1370.53340403144,-71.5765510395174,248.247126302666,42.7768931474353,772.003886820359,-26.3701544303139,696.432473715406,21.4511768257713
334.044264399801,69.1052504770432,423.935005798234,10.0167904496148,691.725536558231,18.6338467153034,1281.72674207933,28.9404237684171,911.884820506335,63.6974276321949,1226.23007429746,71.3117894149276,2105.91820442202,-182.186450558146,1575.50604442664,-91.9612104708769,934.91392019651,-68.8428724660497,1114.73385517022,594.268636138035,226.106455821348,-27.4310965604263,1316.29586034003,-62.5631694845096,240.896060833093,43.0941648732378,736.578053707807,-20.9639440727757,679.661695122457,23.1114205943735
330.053097541021,70.428281518925,421.550420761072,9.93509308914347,690.058488321127,20.5229499037265,1271.64905764665,30.6980472521836,912.184981369383,63.7395323132639,1225.85227877713,70.3719984124228,2108.46635634761,-182.389316484776,1573.04820497516,-91.1402160881356,931.672254030054,-66.7470747437345,1131.06303483088,597.012086032383,228.307222418089,-28.0982799832413,1323.19860463954,-63.0882659476985,241.713531929213,43.3651105845444,743.264884134443,-21.1145221213956,685.816358058844,23.1788143022534
334.456437794953,70.0841700072764,423.779329554622,9.78896350776142,695.525873983231,18.3204007327061,1288.68108387172,25.4327715145719,922.195540689739,62.7124998379843,1234.75029182407,71.0645515903353,2129.61723629786,-188.029184799276,1584.32952587117,-93.6052063115918,947.252023915008,-70.0308924953896,1162.14905462185,604.242590779677,233.057891434314,-28.8170091309753,1359.15420897547,-69.6403664408767,247.284059468885,42.7161422661502,765.68074510401,-24.479974875905,696.021457608769,20.6025514895513
337.376612235672,69.9001380821062,431.88514933723,7.51680213666755,702.023606786774,19.0297624648172,1307.04730620814,26.0474160478438,936.472528777303,60.8600471077762,1258.10273845907,64.1775905350579,2165.04511383527,-194.520034471097,1609.26131288691,-97.6464709689691,967.061733043848,-73.0132368119124,1194.22831703901,614.730396489604,239.211636804322,-30.3805304423962,1395.10884932987,-75.3984787968305,253.443749623761,42.1851434673047,786.826701537174,-27.842080741602,705.314823070649,19.151429680783
335.195714200368,68.3579276295174,421.984270440205,10.9217464264418,692.206928502544,18.6490214171002,1274.87461565612,29.2671227804822,911.542295801116,62.8490245799133,1231.4102958808,68.6777791375723,2107.47315413013,-185.778005756351,1572.23286459505,-91.2910414796741,932.88775333705,-70.3334973891645,1114.14811451167,596.957176805739,226.088940713383,-27.1827306287289,1318.70820194139,-63.7678943593199,241.401848480824,42.9693100939905,739.843966745084,-20.9116119696652,685.037743420214,21.8794796237362
334.895109202126,69.1923080288244,422.670612187037,10.5531049506825,690.545805267789,20.3754430459251,1280.42004949948,27.2900191664102,917.198747464975,63.1998957406133,1237.34703966618,68.7831266604717,2121.03631545474,-185.930750698173,1580.2493233817,-92.6087931172991,939.373641800095,-69.8974757327986,1141.60554880362,604.34774887026,230.948885716651,-28.7606663045035,1340.5039338705,-66.3742674337787,245.562120891341,42.4259092887507,752.735185664357,-22.3607337268876,693.960402980935,21.1751982316148
350.466980155408,73.6304343428511,445.542613304848,8.42803756022462,771.523388664829,21.9450077550318,1356.28401205841,23.2875427260894,949.923589112472,62.7758000078687,1268.65591999099,65.7952169870951,2191.65340647343,-196.006516487255,1619.08183886146,-96.1258056886205,986.043947127706,-75.5516668424785,1236.225806472,632.48882200312,238.692407125977,-30.2082233766069,1377.70553000458,-72.9330608854041,255.135711807547,43.2775727849935,784.192156243901,-27.1704221140854,712.841798738534,20.3275992975613
348.817007492675,67.9289308805215,437.514012107955,8.77083391506164,726.907765288968,16.9194426127392,1350.82320403257,17.8432240131634,944.495899842702,60.5334459883055,1275.73839643266,63.198968821232,2186.62139560863,-199.912326606519,1618.24907296749,-100.232073298768,986.789526431341,-78.4233073810156,1197.31944426232,615.146013208833,236.011059868176,-29.4679987115678,1372.57211976197,-71.7491666184064,250.393736935708,42.8908731113924,759.650206790018,-23.0456343690054,697.984790352737,21.0468529572065
335.990544780478,70.5632641432809,429.836362599954,8.73164190913611,701.88419377404,19.3595440887946,1305.60850110313,23.3863605384087,915.982871808692,62.0355491628833,1243.81373321986,67.4128468600202,2125.24953721105,-188.421627856776,1581.23495399307,-93.3370312312014,944.126547198086,-70.2880350730209,1133.28838734995,605.206898677493,229.505774540093,-28.2741037667127,1339.24110369642,-65.6113974164833,244.697746744957,42.8358325869175,752.810353887198,-22.4489810571036,696.011817880861,20.9127520178568
338.789679737306,69.609033671354,426.410629930212,12.17314015829,699.615167353325,22.9448597760389,1308.65317805241,25.0448373235551,923.646562428161,61.3712489785405,1254.69387584079,64.3306872376011,2140.68533079452,-193.013258936625,1588.4124446988,-93.4221360199204,953.439567302061,-70.8326506748167,1160.16001060894,609.377400874972,233.236769851138,-28.8195167015981,1367.07299185773,-70.0306616802654,248.754271417577,42.4939723765672,769.526431807071,-24.5845241241272,704.43741598762,19.6268243035818
342.988649963671,69.4731933159183,435.548309017516,7.94905500881374,709.01704024303,17.9496710043145,1327.05354184198,23.4600118708273,935.76649264005,60.4453926176602,1263.65245704053,65.9633773552982,2170.91117582566,-198.372838008869,1611.01987505766,-99.0427594795145,974.339949222272,-75.0756875060638,1200.0836892611,613.546990468076,237.931602285678,-29.766399387361,1398.4154655594,-75.0569959251526,254.008636201872,42.3677566186727,790.747444066374,-29.1747645182849,714.947561050635,18.0919283861017
339.992320224947,69.7078814563249,431.402553354882,8.43356017891928,701.03556501797,20.5952277405726,1308.58801087357,25.9176381257135,918.096691301632,62.6754083460497,1249.74150286197,66.4920417848532,2136.57066369586,-192.709743408607,1586.75574431454,-95.3574058929841,947.472135531775,-70.1703781267587,1134.33615756129,600.571932659348,229.888731360311,-28.4506622640386,1343.01282074348,-67.178757434733,245.487834051139,42.6369383774498,752.045551658045,-22.4426941379536,697.105995166434,20.2186962686846
336.713413069069,69.891952358971,429.409154086833,9.1777208052109,697.46449824949,19.5637529762259,1298.50472682607,26.8499595574282,919.971720609818,61.7361088619292,1243.72813604733,67.6191717216436,2128.31447731863,-187.733680939719,1582.26960261675,-93.0962413712994,947.818473901965,-71.1571426225967,1151.41995405215,601.77601801789,231.451566017935,-28.8276154492199,1354.67699749742,-68.6869629612793,246.591541842942,43.0426661809645,762.278197817164,-23.884323418866,701.215201064265,21.112994559528
340.162082541566,69.9056839877119,433.164330054922,8.69831643346839,702.608489055212,19.531127016112,1319.55039071276,20.5414648212476,930.987358165309,60.9406447706172,1261.80794507935,63.8204028106305,2152.70667155691,-192.075395843256,1601.70498624304,-96.9385476411246,967.399376924069,-75.112587553828,1181.41107522041,613.176391838265,236.524264532178,-29.5380214168526,1387.96614666263,-73.9715556749112,252.260006438045,42.3099975616105,782.943196557893,-27.5057592383123,712.343151000927,18.2503582321763
343.447797616667,69.2857241212581,437.017838319015,6.97247805772088,703.128625321992,18.9467309237006,1316.75607790342,22.588530787556,921.572356743494,61.4434019834525,1250.12520472898,66.5659789296994,2139.17812211244,-192.338228084471,1587.90972684765,-94.5591963539731,953.060166320595,-70.324097858494,1137.25258962714,599.39347275176,229.644420345884,-28.3812096583481,1340.8941660987,-67.1638858017558,246.203345362239,42.4350824811828,750.836881255422,-22.0065044433819,696.936530302305,20.0847949900279
336.762080635363,70.4798301370657,427.919901880117,9.18631748130866,693.909813940683,19.3286365368124,1296.34179791112,24.9568577338977,916.141915771128,62.294349530513,1239.14963917505,67.2651119715062,2122.99164817288,-189.533870914171,1577.3476663016,-92.9410683619676,943.748888551751,-68.8351329211882,1136.03502628262,602.922495872857,229.466429777555,-27.9597471516915,1344.16319933636,-67.747611390402,245.360077462673,42.6518287761064,754.570730640741,-22.7781975553426,699.666445724913,19.9036131911912
339.48269822743,68.4972970328018,431.931045826736,8.74377842577362,701.570246056152,16.938932030457,1303.43074932156,23.7467987773505,926.527400049529,61.2733118325807,1250.85537818837,65.5001970568139,2144.83388489223,-194.228580480909,1589.91834071387,-94.9738293036811,960.790846609876,-74.9488149018507,1178.68690870831,607.946874022231,235.066202216356,-29.1460780598779,1377.37933801579,-71.9445621760171,250.834382309683,42.3781974094018,776.527791408589,-26.4127787263699,709.794589679307,18.8347472617434
342.746665824465,69.4111849108678,433.26441874846,10.3310154331279,707.92838988632,16.0280544825534,1327.58617427449,20.5721013314242,940.095095673649,60.2461432982681,1268.20863356916,63.4069987816222,2173.48322627225,-196.092026181112,1612.14083763404,-99.1592655478301,981.943560347402,-79.1430352364578,1204.07646038512,616.637552585595,238.477100121339,-30.0163772145875,1392.48414550076,-73.5915932754964,253.808009442157,42.1671215163708,771.450715839001,-24.8392019652308,704.733112103206,19.4593455333559
335.384924047515,69.1588164061675,424.836735216809,9.78235962666022,690.474137437502,20.539090884341,1291.14834976739,24.1681480391186,912.104451741512,62.5670208302457,1235.08272428532,67.6693610633222,2116.51805963708,-187.194950427522,1568.60003918028,-91.0038595795197,940.119648774571,-70.1432607490997,1128.18674485317,601.8021189938,229.029758333375,-28.5035301542564,1339.08180727141,-67.391269173419,244.702058410244,42.8518380702432,749.342480333178,-21.5687427459633,697.529497239544,20.2755659847994
334.683939558445,69.8896139370388,425.496485348725,9.65146593966855,691.02370934441,20.8790308996307,1291.95728928635,26.1683443686249,919.14948479065,62.5190127140659,1240.79936909839,67.0146433321841,2128.4600010268,-189.771614851315,1575.97847467546,-92.4322681103643,950.031197112035,-70.9062869953411,1156.5191571768,603.367361739524,232.930257308812,-29.0768133564566,1360.3300272055,-69.1889528667286,248.223119575416,42.6403352303794,764.214944361085,-23.7834935124499,704.442432839464,20.1809048856486
340.963847994162,69.6217661623589,433.690549293602,9.73743242240068,700.476202599138,20.5314148143625,1312.58173941688,23.6089125001527,933.798488621475,60.6193693125287,1262.61709714003,62.5452668799674,2157.172766993,-192.226788919978,1600.20933328638,-97.0518935407211,968.457796896727,-75.4102768456274,1192.7776126426,612.566690589626,238.663234310086,-30.1047250715516,1394.51352229468,-74.187332930715,255.056492293049,41.9010359212297,784.884589949874,-27.0118876612701,716.341926081793,17.8288822764858
338.616137874574,69.30645379319,430.15108017835,9.23798546350528,696.938865152465,19.4513523603534,1297.77492073454,25.7647922520072,919.139411846928,61.2372147440385,1245.23527118845,67.08348314039,2127.66021964332,-189.234656923832,1574.9154831393,-92.0618164461226,945.536895622253,-72.7265783866575,1129.88378766227,604.581801217733,229.408091474647,-28.261048097868,1334.79509956318,-65.787117407456,246.707347043422,42.1231681390334,745.922845831395,-21.697076012245,696.489820012914,20.4770702267077
335.973414642174,70.0152471793174,427.519175820598,9.651181572664,695.295307846853,17.7630980649835,1287.82719528396,27.0031304219968,916.484159682131,62.6830532822484,1237.30876322849,68.1288688249383,2119.91675436274,-189.97408814266,1566.94113461787,-91.7168519924942,939.232635652512,-68.2359830225858,1144.86453565492,600.732052327947,230.801684741092,-28.4702241916501,1343.00806627726,-66.3811602716914,246.903718280217,42.7997069487042,752.442857298331,-22.0607007228751,700.708631768106,20.1133227108675
339.633239033024,67.7672591094812,429.507782491807,9.42857646601028,702.642455940202,16.3199527194542,1302.8174879416,23.2483977436706,928.73315371482,61.7678536974003,1248.40569474931,64.1954676671348,2141.05113329707,-190.657880760269,1584.55825749792,-95.1016898936503,960.574491931831,-73.3655687999009,1178.73604748868,612.19887885235,236.025042920337,-29.4221971339034,1378.29729352749,-72.5154900176724,253.127349449414,41.8222201660137,773.171017043657,-25.6862493626931,709.570532551373,19.8353735524807
342.723756450508,68.4906053706993,432.661910848689,9.40741115785615,702.791004656866,17.6875699145631,1309.45414018095,23.6244703247039,927.244037901169,60.7286228072672,1243.47204101824,66.5739863728374,2131.91312781816,-191.243940729462,1577.09690116055,-93.145833116463,952.343552448012,-73.9924069368153,1134.88105977666,601.164605806463,230.156378804593,-28.4839440253806,1336.70476550323,-65.6711466315148,247.214573607004,42.4826080564591,745.836225334349,-22.2554638749633,695.633990914323,20.985051576287
333.69314525469,68.4965646188386,425.457712113559,9.23902192837014,688.101852894177,20.4317775088943,1278.39897533961,29.6871965644139,916.197917352761,62.8088549909408,1228.01456488772,70.0829383101205,2110.87023705522,-184.984056037521,1562.70372417763,-90.6187124490761,942.591646472383,-72.7980484299771,1134.04338773575,600.242244717611,229.123898397652,-27.8448523342803,1337.95308786318,-65.5528117074672,246.581906534217,42.3350997522405,747.817057926718,-21.6911637305635,696.405353794345,21.8209340370912
334.90038522497,69.9611965244918,427.364598318782,9.68275437928916,694.163033201308,19.1034135778441,1291.0296090024,24.8581342468372,926.172359811025,61.1405792931145,1233.87067904019,67.8932254581568,2126.97892202118,-188.229204392752,1573.26833253405,-91.8423826737745,953.829591003946,-72.2772062880072,1161.41259541218,612.076320202048,234.770242936709,-29.2771808749681,1371.4049391046,-71.2693109062465,251.209749060892,42.2725141411435,767.676561469382,-24.0779167845731,705.886810393296,20.006362604409
343.678163059835,66.8137039449831,435.81820454623,7.91993382418161,695.592814629789,20.8550604318802,1308.94855510739,24.5091552747392,928.835379070673,60.7312769127297,1239.46102848538,67.6861845619541,2129.37082048693,-190.010108340125,1578.64096702946,-94.1630270785513,955.934374940991,-73.8190758966897,1136.43625730307,600.545027053767,230.235663941047,-28.2992109802465,1337.53338861774,-66.9239324146239,247.184380785449,41.9936484519317,741.763098758179,-20.4961917176052,692.854656692323,21.8466153366103
330.116384819713,70.5386029584019,421.008696052532,10.671581927716,686.514053474958,19.9384416377656,1271.0549310887,29.0915406239569,911.511382643525,63.4223697097878,1218.37001494085,69.5311426924255,2099.15820252601,-182.030137270507,1556.41462718598,-90.4549423629788,936.028617049119,-71.3983789271397,1126.5212514235,598.309009186119,228.866464133491,-28.1849969946297,1331.02059536627,-65.8197581064847,245.200706424723,42.691683463849,742.031359927185,-20.6325024136544,694.604010056189,21.6521757479394
330.262338397911,71.0382307458933,425.043779499424,10.0650913817901,685.826511519598,20.1488150849238,1282.91798024185,26.3837376275386,921.40476651239,61.5527487290715,1225.46157625992,68.4683301501579,2118.98875319344,-186.32132001284,1564.83050456134,-91.450575739969,948.831871600106,-72.5345152063083,1155.31956964086,605.557069093275,233.226174784199,-29.0615179290935,1361.22242656015,-69.890036919082,250.111936190221,41.9500138006791,761.753729330475,-23.2112426981018,704.25429661654,20.5863974774457
337.855417217725,68.9547382745705,429.435716691863,9.78679430505369,695.611972095381,19.7235619865062,1296.61586217664,27.048225964845,932.390788602626,60.9229909066067,1240.24019211562,66.7988680541838,2136.28042742584,-188.299018491083,1581.96606255448,-94.8965971250939,958.402991582957,-72.49469350655,1159.78914705392,602.547158080621,231.877874590325,-28.6111070572907,1345.32896001942,-67.4732104703285,248.256641801433,42.4063672244411,742.810430612069,-20.53154416933,693.446920120313,21.844078686342
327.089578357017,69.8915793535925,418.803710921515,9.9296063641314,676.45700402105,22.562469890452,1262.62084969456,31.5402201697788,904.206576134735,64.2852629127367,1211.92815485613,68.48710547909,2079.26035183669,-176.231251392841,1546.75968763927,-88.3320307238049,929.647404994928,-70.6455866943889,1116.62013109624,596.19498391957,226.887467950218,-27.7934728218181,1316.91236335946,-63.421670084579,243.738693951141,42.5286429708418,735.989062960902,-19.4507508436063,690.363866346962,22.918001468306
330.571597519773,68.8187934504352,421.413665735885,9.62941831471272,682.217175391854,20.6900155228944,1272.40163280947,29.6133095579709,913.48838950562,61.945913253908,1211.90605746028,71.8215577154499,2100.70087363441,-181.223649943563,1553.49024441375,-88.904869245096,939.393314752883,-69.7700651939774,1145.75104187848,602.580190432632,231.378925064623,-28.5250233884233,1346.98940075919,-67.8116888696555,248.734736563418,41.9522501344904,754.941366473146,-22.5295270205845,699.550050193236,21.7240280115907
333.297893912508,69.6473952123481,425.285230475594,9.27714853188831,691.715415898022,18.0552942982833,1292.16438097645,26.2043165164523,927.658263322717,61.2856264020394,1233.39779687297,66.8973857745735,2128.60521035954,-187.900159663957,1576.0421449859,-93.057204153396,958.263743177329,-73.501685070584,1173.39487703453,615.932742255703,236.121512904257,-29.3904281798951,1379.0536145214,-72.0640742590491,254.452135119525,41.7057219006846,769.164872140764,-24.2998272270962,702.774702882273,21.1842464704321
327.395415347153,70.2898262734152,416.282931557442,11.2674409874619,678.067168498308,21.9606316042529,1257.77446538628,28.8060063791307,898.674736549188,65.2033540928623,1202.30102609258,72.1818522474242,2064.33633475663,-172.865707971328,1538.54402314301,-87.1904575379428,917.77423722585,-66.1539203786276,1107.46298443996,595.144527477567,225.22515001382,-27.3589626373003,1307.84933005767,-61.2224861602495,243.511599601994,42.2799304587743,728.342820890917,-18.2062207377723,686.576475742522,24.0655264005437
327.083689395238,69.5222165562111,419.606391561661,8.93570584190162,677.880944139982,21.0272296076267,1259.26953615928,32.4359492442211,908.109904978954,64.0473916417881,1206.56858002052,71.2550531353997,2085.86133922337,-179.90160413017,1546.19035809952,-87.7036795717822,931.442224267472,-70.880298083048,1124.711394632,604.748912521042,229.450035964395,-28.2034632442462,1334.60346688942,-66.0676463261208,246.835150897414,41.9593443013291,744.500608834398,-20.6566389513726,695.905663974125,22.6425103752008
