325.651428124571,73.9197294735659,417.973001355409,14.2601958606629,674.338949342714,28.9807285681721,1247.78439983122,44.9572706444701,913.620776198839,69.734766644489,1210.50878084281,81.5644984848765,2106.34346923178,-168.900864864272,1555.6310545778,-80.7073782274812,956.695350313678,-66.4155293529041,1168.87097015355,625.271832089539,228.393416645638,-26.6489247115362,1329.62638049281,-58.4601838925139,257.010476784721,43.7238906750468,753.021750096402,-18.1321380898004,677.50834753577,29.4708117263165
328.648022846678,74.812889492606,423.606921061861,13.554335184899,679.030490765585,29.9142089729763,1263.3482250047,41.9240474527704,910.665854804904,69.7838695041899,1211.6901051941,81.9839681755805,2098.11545826445,-167.746476498963,1550.40261299144,-80.056862540946,951.876432783411,-65.2986396299634,1129.62786500045,613.715918254905,221.908876093375,-25.5700665952848,1285.13382826835,-52.2651505889708,249.899745029869,44.4264163913781,718.484049610944,-12.6645016595822,661.057759441357,31.0943937710664
317.63546710648,74.2507923687521,409.470916179815,15.9689018200016,663.461389669569,32.6070073163039,1227.99471006644,42.0723036652831,892.611972008193,71.4389600183453,1184.18514446997,87.8601755454563,2060.48696987506,-156.304586132457,1526.66511723247,-75.8459696244837,922.931847010168,-57.8563504627176,1115.95016247446,611.057739746609,219.658255284838,-25.3083991007648,1274.76855744174,-51.2834958398676,247.604617877069,44.2589068837692,715.914611421925,-12.4509894313301,660.689801268827,32.3073004984576
321.846757487479,73.4771948501416,413.622301708128,14.2837908094076,664.444241496831,32.9344890425984,1232.92079506145,45.6367948175796,901.042312884094,71.0571521964695,1194.86301021714,83.5894429927051,2080.44356885341,-162.612652627158,1535.1041371532,-76.6362552926455,940.248268639994,-62.7593979937648,1142.49886602785,617.57900720117,224.454873227897,-26.0565170309928,1305.56214963547,-55.7289563282664,252.57154044591,43.6761694348315,737.41791724067,-16.0584694589577,671.128592123388,30.2204135828448
324.09264358816,74.2432375368523,417.635933465362,14.2727452937728,672.75444024337,33.3226099768007,1251.72589548142,43.3044992853783,913.638522855655,71.0974788395559,1210.24026786697,83.2182236417088,2117.31495428415,-171.879304250174,1558.35431793059,-81.9516026366959,963.215345609726,-67.112973545161,1173.54282753961,626.186170058066,229.504669670183,-26.894989468299,1339.15587685076,-61.0727043527799,257.959885470598,43.9030877951248,757.232162895099,-18.8362697578867,681.886497383021,28.6635303171098
324.341699347341,74.1480860402945,414.944766589804,15.5832094537946,672.199664358497,31.607098415376,1244.0610906418,45.5278772464244,900.107842099603,70.1693593725179,1200.47206726624,82.5877302861708,2079.33280777064,-164.156501385117,1537.57067206386,-77.9304430872275,935.440870782654,-61.9233039357917,1114.50590368251,610.029871285368,220.146556911784,-25.2177185615597,1274.06006779511,-50.5487140756282,248.68971743546,44.1925648254851,713.48150547334,-12.8862163185302,660.845818665463,30.6943925336596
319.415470468436,74.6915158992332,408.463793009243,16.0638383844284,664.564764171118,34.4563675294761,1223.71341536198,45.4055768965832,892.371752243818,71.1784154229937,1187.33337144634,85.5200661404579,2066.84863175149,-161.736405734562,1526.07677632493,-76.1267780178387,926.423285348846,-62.2110788533053,1115.6893577037,610.149205691054,219.609133754903,-25.1181664324713,1273.43953933432,-50.5586422416018,247.63727985773,44.2571835710986,717.108355781758,-13.3273254508802,663.783660249404,31.3822921542807
320.708079295893,74.6363036249846,413.283499691326,14.6268348028297,672.14944707496,31.7209398381722,1235.53072933016,45.0271626005694,903.786877377311,69.9191939818651,1197.72058040466,83.9020800675898,2092.56031504944,-168.72784112796,1540.61547245163,-78.2776073891066,945.502832931532,-65.2783428611784,1148.49990072197,619.692227838048,225.290715476363,-26.0625351548246,1310.77184709826,-57.6231331989296,253.045333620379,44.0947179722759,739.225453315053,-16.4815348275206,674.400147448473,29.7107305484808
328.957583114862,71.208849207299,417.422765870754,14.8675047269023,678.904275190754,30.9730651874284,1262.54707147102,39.3823275862945,916.749131098538,69.3920293054505,1213.15250018132,84.1749163956541,2119.5904922293,-172.523932588738,1563.26914739438,-83.1686419603523,961.843131062032,-68.0000523012283,1176.66727799768,629.627476002481,230.765855673391,-27.5038969315763,1341.70751162831,-61.6980914301106,258.804119461804,43.8318913285205,758.461692456623,-19.8494481200973,684.942367937845,27.9655743310833
326.16335409881,73.25370888159,411.159535633716,15.9788140413023,672.618493239215,31.6416172758095,1240.01252541088,43.2401719630595,897.396281824988,70.0610073029548,1199.94099412971,81.7736265502534,2079.81961667261,-167.027789238372,1538.13644627474,-78.7233479599376,931.867534435656,-59.9961382365858,1112.56748758473,613.383604019372,219.65995819082,-25.2264944879548,1273.82674146628,-51.4198545943675,248.195099502275,44.552839458216,714.185254830989,-12.7786093513782,663.80598502423,30.1225270725685
319.518991240314,74.4611311440859,409.881339348961,15.3762770871252,670.014827445317,31.760466851014,1234.30469438488,44.6264775266277,897.329255775284,70.3489005819004,1195.14901435056,85.0829587798237,2079.77113724685,-163.769415617953,1537.84051480809,-79.1136173448727,934.882667846369,-64.6478924805435,1125.02137029743,615.114307909553,222.359287138696,-25.8797925495239,1291.59788339149,-54.5212553792807,250.200100692927,44.4453052498649,728.518675445552,-15.4930754386842,671.185858323605,29.4544655921939
327.788321750006,71.634363590772,416.684761267008,14.5538070188037,676.483154399309,29.9494792828843,1249.80076717181,40.7883702233453,910.274472686118,68.9530867783212,1213.50465997464,80.8504153081242,2109.28562845203,-173.456335597672,1553.79535540434,-81.0209086819059,955.878549857692,-65.9492700415867,1163.50262690005,620.9568409251,227.935071855088,-26.7467596924271,1326.43995671744,-59.9829486721075,256.151805771298,43.5677221995369,749.224164130081,-18.3705691708924,682.196546169199,27.2425780614467
330.66942619785,72.3450970127712,424.136027632886,13.1875818837902,682.690887400167,31.0620315024555,1267.06173574745,40.6124920135003,922.664832381139,67.8234859693602,1231.0834556603,78.6956196718284,2137.65355676944,-176.29575755291,1575.95761192323,-84.18489632439,973.462827481857,-70.3209510693209,1196.95906832297,630.796673534627,231.983482218217,-28.0775013713133,1347.1595641447,-62.9991975279288,259.612485887034,43.3797964140233,749.845186080174,-18.8575083164119,679.236774928436,26.2683410204429
323.343604458135,74.5948213931845,413.952210639358,13.5091289003014,669.548828440406,30.5403225217218,1235.58600398749,43.6845652472816,894.060455981169,70.1300470372514,1199.14723159991,84.7563841527848,2080.355939398,-165.187517199898,1539.07136113519,-78.7122309280988,932.123351432089,-63.2420384401593,1116.42996881883,611.754413528206,220.816495854024,-25.7406161013314,1283.3883563955,-53.3981272004431,249.319389008172,43.8728227442115,723.092888336104,-15.1352507823308,669.888815197007,28.1856700903532
323.681025431683,74.598696479437,416.069737824442,12.9427992114848,673.555520204538,29.9686759163076,1241.83587570886,43.2143883344149,901.520968588943,69.601589663693,1210.60373202682,78.7295529546406,2094.51002478859,-168.206000749611,1547.94069793662,-80.312344595089,945.873967991853,-64.8903513248673,1141.26263582028,615.011677681282,224.542795813851,-26.2181584169458,1305.84237141694,-56.2523068497838,253.434747200929,43.238504866655,738.021891045162,-16.6011509461761,678.145054986259,27.8783957105787
329.736339936906,73.2970964774375,422.702589713019,12.3622609110377,679.112294969442,30.7824526406392,1264.93440284791,36.6874465938462,916.549875453356,68.1643427489807,1223.03660104256,81.7114707292147,2123.56843328956,-172.928035005564,1569.26709207607,-83.6745465267271,965.210520132175,-69.5895325435982,1178.22740059388,621.434496200695,229.922471237888,-26.9937301700913,1341.39999574876,-62.340005426376,258.474471077007,43.6081691333139,758.668226406682,-19.758312640826,688.507438704531,25.5155989626729
332.122495539562,73.6780797746986,426.945195462904,11.8039886583434,682.90982079955,30.6772522069595,1268.94645641279,39.1451905466215,906.619000804284,67.8303358191064,1215.70628118936,82.7727740185421,2107.1820680392,-175.075928882749,1557.87982535948,-82.9317078334835,948.767197556649,-66.6005014604369,1129.77352698714,607.898732028325,222.262763099197,-25.892540223033,1283.38541933058,-53.2211986486572,251.094747575267,43.4048081923828,721.511438399269,-15.1634026582223,671.226884904339,27.4042312626441
325.411232521227,72.0589139615597,413.114543235921,15.3470142754821,670.235662116112,30.0353262667847,1233.28665143786,46.1214594224148,894.995126595207,69.9199852510301,1202.08724111704,84.326513466504,2084.11995047283,-165.618801430322,1542.07927734791,-79.2364167569504,936.924735218998,-65.4417772728736,1120.34504652141,607.944721617411,220.68182182731,-25.5145534612142,1282.33843012252,-53.8739132356133,249.504210954139,43.5865083168073,722.090305939346,-15.1347732014763,671.589256981881,28.5811830741739
325.674466010891,74.0783086538408,417.260867198501,13.9813587092144,676.281941406778,29.1515987968776,1249.91238714215,39.3511036996535,904.815749610659,69.8431830626126,1210.0206750706,81.4216924542782,2104.16415460138,-172.194211382067,1556.18307540176,-82.3639861134159,955.796599967332,-70.1607511070487,1149.39347982848,617.67000260982,225.998161327995,-26.7139039646626,1312.89599342043,-58.6683466144653,254.873756002908,42.9958689267558,742.856944922966,-18.0907515719109,682.258871926718,26.644729296905
329.804757430956,73.0428185296516,419.987889837316,12.96644535742,682.331029427943,29.2616589512991,1263.88206215719,38.447356699964,917.597569444369,68.3207206578441,1222.43330287705,81.5870562466976,2132.62063734114,-178.920716934772,1573.87532843287,-85.4379653887305,967.890093522133,-70.2709263578681,1183.29485554566,623.324920580269,231.380724341866,-27.7590346510065,1343.72666695773,-62.9433241177276,259.833339748393,43.1584863542651,760.534133887619,-20.7960480521992,692.396105568941,24.9820596737279
324.32703407662,74.7077742655014,415.06700716136,14.0080828079913,673.41484970592,28.9845576519387,1238.71098169353,43.9385678658316,893.729320529467,69.6187952690863,1205.26620896096,81.0913155104401,2083.66595575398,-166.66018990588,1546.55536770783,-81.0855440844234,932.668254230245,-61.7686823725079,1114.03174271917,602.112059562,219.821493958802,-25.536634603453,1269.93671599285,-52.1556483166668,249.11447993976,43.3042466879213,714.69306016942,-14.4184128421456,669.427046466172,28.6759734730412
323.966622075836,73.3369536657571,413.9974413094,12.6986055851173,671.823739485523,29.2053380851237,1232.5152637004,44.4417658536781,897.711337852906,68.7972081161296,1205.43528708067,79.6601342857481,2086.53940873998,-168.425615570452,1548.44385595373,-81.6898869520737,939.701013866015,-65.7168046795794,1127.31772288062,606.361733392776,222.767005596659,-25.9425343272698,1290.35435419027,-54.7506782314481,250.227542858141,44.0746320644605,728.413023485255,-14.9470626270378,677.354769846597,27.3426727184713
332.143045566121,70.6539885237551,417.540599822203,14.4980607908288,677.444565573756,29.0877348826906,1257.89316963432,37.3457456359974,909.931184234377,68.7615121154378,1219.26530345991,79.0215394126574,2115.81386097298,-174.162154782117,1567.71765288967,-85.152600790087,956.08104692973,-66.2639401928572,1156.40055479053,621.441616259863,228.13418943766,-27.1439430797544,1323.2927734863,-59.8577487622038,256.502091172362,43.2383384258844,750.043680752516,-19.0526622164719,686.540337367268,25.7099346089921
334.454984134527,72.0528547769854,424.378801839403,13.7119546401411,682.371806298867,27.4888842658838,1267.62108566205,37.7258828287743,906.463062706926,67.2292245579842,1216.97763795836,79.777851525158,2102.78078624569,-171.581027949242,1561.62530436514,-84.4805755065081,949.403176694914,-68.8490178771924,1124.57341055742,600.757880367801,221.169699096502,-25.6637227484321,1275.55399809406,-53.245172169926,250.099606381221,43.7814862594178,716.445962200974,-14.9495400947865,670.304538772791,27.5908070984166
325.271608554236,73.0463242363373,417.204852129626,12.7996490840014,673.794096887491,28.2917749438179,1240.57483086139,40.6766320765297,895.553328169314,69.0805454624498,1206.15313390536,80.4492760171315,2087.21099168174,-169.25714975663,1550.53176322472,-82.5904235176637,931.864499056247,-65.035887223937,1119.58673752894,601.698429195586,220.909401662953,-25.8469589681994,1277.03665219294,-52.6788210765281,250.059636395002,43.3406830612358,721.161341377962,-15.100830555327,671.011789265621,29.1260947986066
328.584612956632,73.5078012331395,416.101321632898,15.7484884539492,676.979737134959,27.9272446735905,1250.94452975095,41.1955926776898,905.4408069889,69.1105763358359,1217.19181261151,81.1286181539381,2106.55415183437,-171.173979131796,1566.550796669,-85.9651559681672,952.918862936347,-67.5805002954115,1147.41868808378,613.373459577854,226.989009162956,-27.0758658364815,1312.36434570569,-58.612638678248,254.643267494934,43.395650753604,745.535304734441,-19.2281561142786,682.856454767889,26.7685314909923
335.113966337093,70.6819371867782,426.986002194833,11.9197282551515,682.61916943397,28.7958266748075,1275.06502180894,36.9995059918444,920.414599512905,66.9115937914631,1233.22277520871,77.4460634297541,2141.18522125171,-179.631272009681,1589.17031869499,-88.9322773693096,972.859405865058,-71.1959622160324,1179.22129903551,619.581464333442,232.305920311203,-27.8303224431366,1347.76743872804,-63.7677747593118,260.560239795481,43.4393417983688,765.0215135563,-21.9946809722563,691.744279230533,25.9280677995972
329.204493775858,71.6675651484929,415.959339569319,12.7809345631036,678.078728084552,28.7270157937846,1248.25696809252,40.4272761595211,892.260302145524,69.8372657216686,1214.87506403885,78.2214698689749,2088.94413356438,-171.552789564998,1557.93293307728,-85.407503434521,935.434883638886,-64.7355465302803,1106.15929980669,603.214515639584,219.835884825098,-25.5201704376743,1266.50546821013,-51.7140798984407,248.581926200549,43.6201473892688,715.132626062998,-14.9245385049545,668.95262186538,29.1607871004522
328.382568366058,71.406687996803,418.818833920535,13.6405198121826,677.613660174489,26.4170111608216,1248.98256780618,40.2842047755431,901.260613630981,69.0002548185888,1213.85705433397,79.3385394023312,2107.46680484129,-175.683875269794,1563.52081917939,-85.2481564939768,945.955907367259,-66.044387185689,1125.25542991411,612.096983997248,223.995655557105,-26.2277521634238,1296.8549583878,-55.9236329205313,252.686027905813,43.2842838412518,734.129481424762,-17.0605195592227,678.153947508011,27.5027101301023
331.063963508933,73.152925819625,421.408811986227,13.3019113318907,683.830228240566,27.7011873247052,1273.61219879071,34.4956559081967,915.504676506888,67.8536073669925,1228.19172510289,75.9498697288978,2131.64774164802,-177.664531600519,1582.75237496078,-89.4339398386242,963.484194747661,-68.5831877411656,1164.58646867864,615.686645548193,230.192420587709,-27.5200862075225,1330.18819138421,-61.1863087961399,259.139965603176,42.4654719631249,754.751453052238,-20.6860053953835,685.66789457552,27.7562383185386
336.245504553089,71.778539687302,428.291960946429,11.0996700197019,692.938138745964,27.7764247303499,1288.69171001559,34.7236097300442,925.535939971172,66.6334062386368,1242.78125321941,72.7024549272471,2149.95808728545,-185.400009496039,1593.03672727989,-90.7046414992304,977.06351417325,-74.1504423323266,1149.5520959057,606.324818859383,225.824795908953,-26.7827583881596,1295.46394057,-56.4029922107396,254.293517750043,43.3132685082944,729.186243283128,-17.2660778408138,673.194773370759,28.0960532792584
329.507455515446,71.4108853270701,413.761762783085,13.9524751463258,680.26339714078,27.4458526794224,1253.32811606448,40.8316051378578,901.008239208775,68.9570038606177,1219.34575396659,79.2525472626528,2109.79818383478,-175.52459104183,1570.07871078083,-86.7720034834524,945.352758647509,-65.8185239233466,1120.82779234619,608.323902054837,223.677202334711,-26.5315323693102,1286.74840014407,-54.6720466872759,251.892694200939,43.2427597228988,727.376242170659,-16.8545836365098,671.337909211572,29.3470766949795
328.72244518345,73.2594691633123,422.218995507882,11.8766143774756,683.452735380792,28.101844276241,1269.80487865647,35.8055947405232,912.667312413165,67.4129666922547,1229.88872653448,76.2220402666724,2127.35138601215,-178.207745789543,1580.63527148267,-88.7722891244662,965.054150901451,-71.6342371684368,1146.47234403553,617.154010588577,228.383685312689,-27.139263559816,1321.32426985258,-60.5468616183074,256.629268131415,43.1654830311051,747.566349937556,-19.2614122891482,682.415482164839,27.6807754859491
336.228039131445,71.8398319945421,427.48611510675,12.4232771107012,695.670287366475,25.5910992979624,1290.69766689717,31.5084990582481,925.625577756071,66.1496681154181,1247.98589418179,74.974015085698,2163.30798341071,-185.642725722809,1601.88811090925,-93.3419967042422,985.968969562594,-76.5603340001221,1192.18384577173,619.28707730314,234.146063918561,-28.4968608794261,1354.15282036508,-65.6665027106504,263.668228945575,42.0598258959557,769.086012127809,-23.3189195684549,691.094980276675,25.4665251513722
330.852598275372,71.9404634522553,418.147176579746,14.3649085842914,681.833455694504,27.8353632059581,1261.08613927968,37.6083649643285,900.545248364833,68.5269185311303,1224.86476848926,79.002689893221,2106.43375156567,-172.121314278757,1571.21596443322,-88.2464051480063,946.190472004107,-66.6529924181944,1118.0411007208,604.125166108392,222.793792619949,-26.2301378144697,1280.31150374709,-54.5710357424911,252.01639757079,43.2312214276642,724.224268096326,-16.3645198725127,670.554314980433,28.9027887055633
329.093843715471,71.2054706306359,417.110914778543,13.2198795202066,679.902880943232,27.9365473733421,1259.09480475537,40.0843648892509,909.0659005642,66.991549604678,1227.7013963095,76.0965157060613,2123.98626915615,-178.715977265309,1576.48119179587,-89.4323164007852,957.263877108795,-71.0608923094078,1140.76902574443,609.678417170335,226.99179576959,-27.0408278852796,1309.18568308614,-59.1777072117413,255.115270762159,42.7470121203576,743.503026029269,-19.4275511726186,679.023067187392,27.9257308290487
330.359293219111,73.6391351578608,424.689564395867,11.8081083627163,688.375951686063,27.0294186881213,1280.09253853892,33.7837041579747,923.016518832648,67.15904372739,1243.11684492187,73.2148290890577,2150.99404554412,-185.96304495038,1593.85553394245,-91.9205386359357,979.575902926282,-74.6246043220929,1173.57308077544,621.053888097746,232.399937414792,-28.0970018825087,1344.11572754275,-64.0360744406132,261.884755868073,42.3138108589374,764.566532346676,-22.0022357061046,687.371212497805,27.2925884961353
338.166667576452,70.1467268163463,431.807289890681,10.4879985406798,694.254334040519,25.4360867833325,1293.90647069278,32.8976783423865,921.977532663363,65.5646903472296,1243.81839857534,75.261208879895,2145.36097766731,-183.183275746825,1591.48312040627,-90.6227740429707,973.973070451943,-73.0059684943466,1136.81704136662,608.188416978423,226.573740773552,-27.3577365921174,1298.39121203313,-57.2593626745907,255.912051325254,42.9518753661871,733.209283713272,-17.969869003854,672.369109302068,27.6051015704301
326.983165528954,73.6231276524394,418.416292336292,12.4141122570855,677.983619055313,27.3232941254639,1259.50701426684,38.3084325666735,905.488786709915,68.1463166994395,1228.44435806523,75.8735076022063,2113.80497176036,-178.308992796424,1571.20927962118,-88.0202155947824,952.724274088873,-68.5916647011554,1131.09437109661,607.36056429337,225.041829254013,-26.8525703597938,1290.86126464758,-55.4689789507286,254.472036577176,42.5325905166915,731.286231774413,-17.5972499903278,672.518698286882,28.6400752114725
328.526648768353,72.9478954592308,421.372256813696,12.2241870963045,680.547594760957,28.3900040746677,1265.8923735546,39.909161424989,916.492485638779,67.5123666773153,1235.81456926319,75.5663965439655,2133.65952766379,-178.710738310886,1583.88427069571,-90.1296931086082,969.531928006479,-73.1112215152203,1166.836443351,616.870827297073,230.203972636567,-27.9151111160492,1327.24570681644,-61.4954253934655,259.329177736117,42.3673225941116,754.983843830489,-20.9481342077712,681.87499046669,27.6216035038577
335.979816792277,72.0867155525958,426.787565873957,12.4631544355427,690.693965859439,25.6733404121289,1294.07656215095,31.7980378137684,931.329428155241,65.0089445486872,1251.60698503218,74.5165279997494,2170.30849809153,-191.153878920268,1603.64465551813,-93.4250944177289,986.031243981537,-74.073752869433,1204.93485578182,622.466073702064,235.949280538182,-29.1441522328541,1360.02761269226,-66.5814315775798,265.965744950381,41.6510427969777,774.062539763018,-23.605133856457,692.936267845222,24.9337445273715
333.456458811617,70.8866965177481,423.760461414328,10.4640900091425,687.228036662128,25.0143665851885,1271.73282699081,35.1434837336342,912.279906484645,66.0816789531728,1233.04932200868,77.0192764600274,2126.99973232932,-180.59377569383,1583.64480870108,-91.3055755291479,959.921087073292,-71.2746000883386,1140.77148365222,606.207393642772,225.209053812283,-26.7274806456316,1292.75841123014,-56.7961248101389,255.689379693233,42.5385730235683,732.687984588571,-18.3028742009814,671.193827691071,27.4372990940235
331.007198018534,71.89648688862,420.446233454472,12.4610528465161,681.159920875187,26.8869508021276,1270.97024716794,33.3619597874527,912.072485585165,67.5851896161827,1231.97159023919,75.5882673487534,2125.32534869884,-178.924795979124,1580.93307267309,-89.8384706096403,961.508641873235,-70.513793143063,1154.30880919879,612.13885336981,228.456862492958,-27.5752461401223,1313.17700171122,-58.8860273672023,258.07355642094,41.9293516287963,745.812140879977,-19.0590261383668,678.272865229405,27.7418837655615
333.663560652622,71.3000191093856,426.856183459637,11.4215250540939,689.612867823754,26.4158774148262,1283.30435604604,33.9812449008634,926.280621798057,65.3490386887988,1249.98730272492,71.3667906629202,2157.58906322758,-187.523524539301,1599.82776444306,-93.5160112993221,983.201994537382,-76.0413372133196,1198.14008369731,616.275136584193,233.717529455434,-28.5387012124119,1351.26239206675,-65.9045288446829,264.074160724652,41.9975784176177,768.29248442331,-22.9878574618708,689.941372519231,25.1241454416824
339.040748578868,71.5625575626731,434.406932505699,9.54865558121614,697.6595640454,23.2456423846667,1306.25746204483,29.7009808515021,929.230529795633,64.3627873864809,1255.7993555944,68.3709131004209,2152.93630344729,-187.871499742109,1602.19075422525,-94.8540730877272,984.384989205561,-76.631700775391,1156.51205541335,610.099713468029,228.714017054431,-27.9072975323815,1310.96452571505,-60.8286799233614,259.332733500027,42.1480584544436,741.523936347612,-19.5636780997055,676.047919606068,26.8427874500797
329.475369669839,73.5030545924001,423.701484771617,11.6763523926063,682.930648449979,26.9531864503917,1279.20619220666,32.0210961825066,912.414584810066,66.9468499861028,1236.85078069108,74.6768181879375,2128.08537263927,-181.859077528611,1586.34454550027,-91.5008785912602,964.178196226845,-72.4399988556274,1153.70729150561,610.089495680058,227.591275721678,-27.6017010901022,1307.91399731787,-58.6599350202846,257.980490545762,41.9909349422485,744.02977701931,-19.8420648675393,677.051508486839,26.6260130487215
336.80433651567,70.5216806153664,431.063691726742,10.1744232606458,686.058876933305,27.4995665869866,1286.50874775123,31.0601530170141,922.494254828093,66.0008255320698,1247.82947941477,71.8408649924363,2150.25822633543,-187.589934980503,1598.9802825786,-93.4899686733783,981.366935203329,-76.5656239755071,1187.32615538126,617.229328670149,233.170521415217,-28.6837145032676,1344.02749258212,-64.8438225860818,264.633265734874,41.0396935174562,765.573714903802,-22.4576425006163,687.004073349886,25.395723048139
340.832114568443,70.5471761901625,433.501503272058,11.225936482344,696.899548051459,24.2751714478107,1312.07204492847,26.7704497638744,937.554509879086,64.2831066906289,1264.24949326663,71.2945201318533,2183.79848154588,-192.690051385738,1622.08779218133,-97.2559531876835,1001.26050443345,-79.9507254491506,1216.03252903234,628.598752196178,239.294786366698,-29.9225206019113,1379.22898358738,-70.3399746072848,270.195621859204,40.9459323399544,787.12753994621,-26.3360599631497,697.024683737587,23.8844346089302
334.132385297911,72.8461089538783,428.886038967211,10.5833524735086,688.698276991445,25.5226827239618,1288.56931455027,29.0748150026173,914.094700588515,66.2773931916812,1243.01805628854,73.4934033150044,2133.78701065313,-181.745165852475,1591.36701386617,-91.7474047436133,964.061155934095,-71.1145825021477,1145.7421478331,611.583585004867,227.403647894824,-27.4872414388211,1304.28146094109,-58.3798784943462,259.454527846751,41.793864046902,741.304805294594,-18.9762440916284,677.167515543687,26.1827759050576
333.625137812749,73.7818788321568,430.164327829842,12.1062329427558,689.872247365648,23.735531695163,1285.82424873598,31.4282079510458,919.164753046294,66.3359724675881,1248.29961956081,73.2079984313257,2150.35717622412,-188.651655419913,1600.4778584284,-94.1210737256652,976.548858617084,-74.3712317766322,1179.48727538558,607.180171828876,231.766478586227,-28.4249456809343,1332.03603970082,-62.1338139200842,263.099017496506,41.2771869170016,759.742729449164,-22.3698765740861,685.564254602509,25.208954861905
341.34330907143,71.773949409692,434.521229922166,10.1664086743459,698.876136519604,23.0947689607035,1313.00343359746,27.9007649223167,935.188443723099,63.8028706560234,1264.65351027687,71.7473717010158,2174.95324950259,-189.100995420188,1620.36116821893,-97.695555832886,993.95441060216,-77.7941216598425,1212.55940993937,621.341469449771,237.814824367891,-29.4363770199698,1367.97362938655,-68.7404211612701,269.114509084674,41.0159477391972,780.684101838374,-25.3635999425272,695.376054542178,23.4369308030671
346.632462076626,70.9625181323027,441.36003673957,8.59464407014317,708.387832104791,22.3691296001995,1327.21398544556,26.8140143994244,937.717930241663,63.8292080310946,1273.95333152237,68.1944502375065,2175.36246650661,-190.818975473159,1622.70974218939,-97.5732875690969,995.989256416483,-79.0233830573811,1183.13432135236,610.877656755066,232.776514507759,-28.8798089004302,1329.15423537679,-63.5265587456098,264.144916002207,41.1386757752641,752.637497404402,-20.9759436672009,683.604162566327,24.7588787683958
340.995164995462,70.1709114336002,431.256969162704,10.9383423853313,695.882601837538,23.4672723908554,1299.68871749203,30.6204470581915,921.384525879868,65.7749849879881,1254.36702224891,73.7070336963486,2156.76361438117,-187.416898701676,1605.5767846252,-95.0043237048344,980.613405264674,-77.0472879722377,1176.60029305471,608.368767452755,231.942349379513,-28.6130504644783,1328.01534459953,-62.3868681501183,263.569948880602,41.1737048222271,756.525909954302,-22.0282637261436,685.485082668201,24.9882155738341
339.992064156528,72.7043508205247,436.697908443679,9.24375683376743,698.219846024466,25.8164013449485,1311.70693844621,29.2828531173061,931.74275187895,63.772776252067,1266.44634645647,71.0620201333569,2174.68657326923,-189.920775087516,1620.98414309234,-97.9872205918763,995.920937169051,-79.2331003706832,1208.71184234036,619.307417719557,237.601537324062,-29.8420484299723,1363.90534825999,-68.5290205011985,268.944586382241,41.0051567150769,776.709420601133,-24.3548536071026,694.828629203844,23.8759609086057
346.675409340304,71.3586437256687,437.933918516028,12.4504419505105,707.913140642367,23.1772579897448,1338.53183937174,22.4431850240328,946.578749867607,62.831639016681,1286.52226053091,67.9703382559169,2206.37408408689,-198.353893901686,1643.88924390498,-101.991360765049,1015.96194492763,-81.2694240341961,1248.54051014644,624.011527902078,243.049810866507,-30.8081320792062,1398.44439226313,-74.1558030372416,274.982347677027,40.4630237364481,796.949197410393,-27.5459404721015,704.428128617429,21.2293245549818
345.257481410894,70.1754187707676,434.842842142751,10.4477764695383,699.457433884564,24.6876297365848,1312.42819067252,27.4789398605704,924.483652207308,64.2038420791138,1265.25600559422,71.8135164910448,2160.07204607204,-187.180145350636,1615.30055523147,-97.3792226714497,984.011774647407,-76.2361657538509,1178.7461063248,607.037432815569,232.903056626553,-28.9356051436305,1333.25265067565,-64.0872971034654,264.715526969296,41.4080356188164,758.455473835085,-21.8292504048159,687.395172333795,23.1734424244563
345.287476527362,69.1910544044297,437.855419260413,8.02051682659567,701.907879810459,24.2464183078171,1320.53838183265,26.2689830201592,930.880906194223,64.0180342469817,1270.97571457347,70.6474196488375,2171.41499590221,-188.533438116146,1623.32445405868,-98.2533386996338,996.298621484873,-78.6344920413819,1202.03604783786,616.693008775004,236.671919244913,-29.7886334998554,1356.98123896454,-67.4295709395,268.53848434042,40.7518185651311,772.834995905685,-23.8677885812093,695.26893092869,22.2603552400056
347.48880670049,70.6900701090306,442.040343205752,8.93881829719777,710.556794258048,22.9319249194185,1341.14830702525,23.2694281027079,945.026239188075,62.58813342939,1287.0204380468,69.3822851112937,2207.30055908284,-199.477751056284,1643.72955750396,-101.44322254782,1013.85861872923,-80.6066236003881,1246.71195703879,623.407141135622,242.461365987743,-30.5239921125697,1395.43398972877,-74.2742736718009,274.942835756814,40.0052282826348,795.261529996363,-27.6149010722357,705.546543162271,20.5753999197578
352.300609254252,71.8508236427053,449.281518494116,7.1014432244499,716.366302429341,20.6452061556347,1350.17090906304,21.7208391311288,939.010028851159,62.5850125241993,1284.83541029739,68.9847313383356,2192.77847274839,-196.408493220274,1637.24499373765,-101.054240952088,1007.80621180217,-81.2312050203764,1186.88584284601,613.193429210345,235.301661170863,-29.3302768506864,1346.22822816091,-66.4168745270939,267.497794987911,40.7049868355365,762.353288813351,-22.6080834734277,691.607034297759,21.4879630520007
343.772490636007,70.1030194692296,437.216809383417,9.59893150066947,701.487325881842,25.0594159358599,1320.35374717252,24.6435709945522,930.353831273144,64.168526716518,1275.05133560985,68.4979099256225,2177.09060029347,-191.567512831306,1623.40771718614,-98.5607309557665,991.07125742062,-76.9026205510605,1187.26388604259,612.805536359539,234.944823980692,-29.2234234741297,1346.01036274358,-64.7753431165739,266.789438524896,40.8166768119359,764.81015484361,-22.6388419741544,692.06541898088,22.2869160517306
346.02915940213,71.2515522045753,441.197918581621,7.34550412766555,704.908480261347,24.6079266906071,1328.95983094884,26.1809294171717,940.622736371268,62.8222411275319,1280.58867257867,68.2120023852415,2199.0640145366,-196.742897148048,1634.52367162824,-100.347534793627,1008.19434684045,-81.6854260136897,1222.45838072477,624.222180277208,240.259848553626,-30.1845387864501,1379.95113882924,-70.8421343556682,272.380313072061,40.0540949732566,785.781863769427,-26.4581101331127,700.716256325667,21.9499349478711
349.570728887153,71.3092649292162,444.671068837228,8.78677015363051,715.857779714479,20.9753442422246,1345.40086713951,22.0479338084388,954.479235081181,61.6189012307047,1301.00867772664,63.7369068500252,2226.7897444098,-203.253559087294,1654.68313519172,-103.293546049596,1024.92470472472,-84.5900755539142,1257.24670292419,630.668114108383,246.227033614549,-31.661096507563,1410.61751230861,-75.5505297277425,278.260539629508,39.5942145576908,804.500144148988,-29.0228637700314,710.271785739566,19.6560542635177
344.61387639358,71.7125970499457,438.71752608243,9.94430913994973,706.562838610733,23.2057559632403,1326.72807243618,22.3663104945689,932.520788967647,63.4133118318891,1275.03351827489,68.9820946890571,2178.36854415554,-191.031730355708,1624.38191844066,-99.1440422053004,996.628474310214,-78.9260981394357,1190.75769118555,609.599218816024,235.609461526392,-29.5270326729691,1346.33616022164,-65.8557871993514,266.96658235948,40.4315362933729,765.724201357383,-22.9514692959203,691.624620429869,22.72352829826
344.473545452227,69.9119863282833,435.581073683609,10.9497407163886,704.256389398866,23.7772783846038,1326.86146899801,22.113517131402,937.266056036925,63.0627918616386,1272.54144197969,72.4014240694751,2184.57316709979,-192.311147156328,1627.27127139431,-98.6586918234417,999.274331070737,-78.6174575167335,1210.79671943218,615.445729172477,238.946784880045,-30.1322062921268,1367.93329507021,-68.6100120975867,269.731455093786,40.4421919274013,777.350637657022,-24.1571485132614,697.261822378264,22.3132365396008
345.035612132859,74.5149939365429,445.166102815322,7.28141275761646,710.202609244404,22.0995314649222,1343.80111194603,19.8850959688325,949.872576240253,62.0194609320725,1288.67244055571,67.7293638630965,2212.88632582148,-197.821686861154,1645.99067706345,-101.781973820724,1019.33165774272,-85.3083777543622,1248.34057489321,621.737674444097,243.980071370501,-31.0932547084996,1400.03190501382,-73.3794881222261,275.212923026443,39.9851147488479,797.369719312755,-27.8044564358411,707.98334037668,20.073420955427
350.112483997265,71.9334282444945,447.88313432795,8.52530192735191,716.44672189492,21.659885253742,1343.37982002511,24.2529815057622,942.657488873666,63.2061492755201,1285.34922471284,68.1375536038625,2203.38149975854,-200.20391583775,1635.70634735904,-100.511063572622,1007.1761945829,-80.5362914298759,1197.60499852016,611.46037168976,237.14974358745,-29.6817148255477,1355.49757697072,-67.2693301386234,268.872662096859,40.2314308791203,765.766296699193,-23.3488255777993,693.203176310988,21.9234915567368
345.620240141251,70.4829141165283,435.631483583884,9.52400413392339,704.646267890902,22.4505358712224,1319.89474415224,22.0544720235782,933.347327191564,63.8599947274045,1267.57720851344,70.7299357388911,2175.16881213642,-193.474776084009,1618.8707620694,-98.1355197570835,992.813696054763,-78.6123261850205,1188.67302387004,612.977353560339,235.959756936733,-29.423492358172,1351.4752777548,-66.2602869876534,267.289251469516,40.4975290315211,766.181073475904,-22.7356502620316,694.035649910411,22.2675046462373
342.509391270203,72.5161172594358,439.794646858956,10.5374041078923,702.083915483817,24.7093059719831,1322.43782158457,25.1546458371257,943.746307364479,61.9306331973926,1280.77071280575,67.9391279998001,2200.64178759942,-202.199683173687,1630.73287963134,-99.7325081562688,1007.2492803543,-80.2484352662768,1222.350717921,620.572643753915,241.866042817417,-30.7021784873917,1384.94423119665,-70.8811665555889,272.096999491842,40.2229471944075,786.028366349243,-25.0584156733235,702.764754735704,20.9812472862188
350.493173513133,69.3653591832664,444.78183277385,10.9895718524603,711.199155934676,21.9771483096046,1344.12739281617,23.602017852398,956.996405410666,60.5555947083412,1294.82745671754,67.2928032030951,2227.75389064549,-202.698154390655,1652.30516744224,-102.66628773245,1025.91898252073,-84.3881779625317,1259.18498901061,629.779140379279,246.224720521634,-31.6968591268115,1415.42578662505,-75.8793022314308,277.636351629495,39.7387830932362,805.396049864593,-28.5821918057479,709.357646082836,19.9582340973959
344.34280853553,71.1329929209199,438.797144402898,9.172735757018,702.975912147577,23.2233193951066,1319.67965237243,24.5470008502001,931.486726624797,63.6259170222356,1270.03926584677,68.8918726216035,2172.28807657296,-191.01433470393,1618.14513356775,-96.6966976659527,992.054197906954,-78.5251521286044,1179.073704318,609.441794697724,234.998245869814,-29.3086425185823,1344.42789280435,-65.5031154465454,265.891118543609,40.5723262352911,760.808170000362,-21.2363797844961,690.43897613193,22.8499171720111
342.438013921821,70.9008353704654,438.422814802395,8.78988566962828,701.381218410576,21.8863604774257,1311.65709644521,26.3035873126104,935.632930255002,62.8662961698474,1269.82747785725,69.779703117767,2177.95395793488,-193.104272886386,1617.61480939337,-97.8420941379044,994.676698325054,-78.1943065231364,1199.36916810083,615.831190956475,238.226465859932,-29.9246217739445,1364.02863472814,-67.7958607096724,268.137320379367,40.7528046524952,772.996106537214,-22.9197387038031,696.594417224165,22.5542473275687
347.498404151539,70.6598186023527,445.414332728031,7.58822360883725,707.326728947635,22.8496348567941,1336.33615467785,21.7807865894376,950.518070732257,61.4287335109267,1281.44216632824,71.3458770653021,2204.60493146821,-198.371883414333,1637.36387266459,-100.736160563632,1014.41466339746,-82.4511440710255,1240.52600654719,621.740101966281,244.01499721962,-31.2743879297232,1394.7573811682,-72.9226597805856,274.313036415125,39.7857225869512,792.739345623113,-26.7686280711731,706.67807805546,20.6836194420061
348.213027861006,72.3283749958321,445.65949947387,9.43270618722472,708.164916467354,21.691173969179,1337.20351429267,21.0152452928964,940.26623183764,61.6705646723244,1279.40699892053,67.816332666244,2189.18375341149,-195.419151551066,1626.47019797898,-98.7194807634814,999.530341402921,-81.4912166538516,1188.13537881991,610.728588406428,236.744906792294,-29.9072578234235,1344.7046598331,-64.7286570622501,267.237456425911,40.6792275577489,760.011646708864,-21.1856871298993,691.069026735004,22.4240105308061
342.509140450146,71.3092171138244,438.527295079649,6.96199682416552,697.268101354653,23.6042120470753,1311.03759161238,27.6579452727286,934.573772224356,63.2569031120625,1265.92870199366,71.1434875074916,2171.06821691188,-192.395839132671,1619.11838261081,-98.0864526162872,990.676136022901,-78.1110994137454,1190.89510739499,614.619844026464,235.566156710974,-29.4410056259276,1345.55956494017,-65.1665596583085,267.439215704339,40.4557793391195,764.778475810565,-22.435705729258,692.788477940319,22.1219042561306
346.29151777948,70.2800490455576,441.318168261381,9.0369402172683,707.452675799965,20.2366576249376,1324.50063812172,23.9523349075925,944.214484053468,62.4308483694198,1279.31094957167,69.2892636885853,2202.31955930159,-201.078539837834,1634.6116884838,-100.836088152357,1008.88574790183,-82.2910191544796,1227.09941219461,621.115249085584,240.937613399347,-30.5809376875114,1376.94321750354,-70.268822432572,272.247534360513,40.2161649042391,785.409429666251,-25.9154125353909,701.548068011057,22.0746995796007
350.99555710787,70.4645344238034,448.290713142565,7.06866199717834,711.441319782707,21.6811229925381,1341.6351045273,22.1380202737893,955.33940759972,60.9771173166508,1289.3559446387,67.4745393645665,2207.86615357582,-196.492799377916,1642.51150853503,-101.967796104016,1015.80105925267,-84.4811653901676,1207.72450515063,615.045429864649,238.088601800641,-30.0700044765517,1350.31493953404,-66.7719238079157,269.306483896961,40.1234457509859,760.340450767294,-21.237591895081,690.988402591261,21.8637930095457
342.7367319978,71.1668736384946,436.780151449339,8.60913064912926,695.673488804107,23.7994275618156,1312.43157215792,23.3781144517686,932.963714430736,62.3113203727253,1265.26529712318,71.354012364122,2169.11159244,-193.424377527867,1612.859449585,-95.9863023717918,988.842701824362,-79.0312872324685,1188.30198432717,611.206124255458,235.006583999903,-29.2232485857479,1338.9060180435,-63.937575915178,266.139685779597,40.4521699260288,758.882074388747,-21.1922796024948,687.89833336253,24.1866843468954
345.122644838765,70.8616147387121,440.248778110388,9.28052838120727,699.387293481843,23.2555999966563,1318.98955323039,24.1145721268337,941.122540094235,62.3168300818974,1274.30276737391,69.5235726953158,2193.33383736351,-199.890062822532,1624.34486527429,-98.9871386014162,998.7916754356,-79.0056444712605,1220.02861543237,614.982189135384,240.13937076938,-30.4538696341479,1369.01301626105,-67.9598984012189,270.085579952374,40.3722756163539,779.420285526732,-24.7458380483647,699.079303196203,21.8470459549241
350.066256846986,70.4490358916991,449.67542167655,6.5529621562198,708.242194919453,22.0240463710158,1341.81213142959,18.6489976759334,953.816471126018,60.9232796571395,1291.37421207811,67.5714137759748,2220.33129580879,-204.4004500273,1644.79222858974,-102.178465929602,1016.7413799882,-83.564139968418,1252.5611336724,625.232567470366,244.850041598064,-31.3174693766037,1396.68692330799,-72.5847894844963,275.030829782161,40.0530234965259,786.28299656879,-24.7276812379947,696.642127585946,22.4720620519456
341.195449268053,71.7916433707795,436.101950022429,10.4677723114301,695.501142774863,24.0023476998015,1306.49112109796,27.6910311789335,927.539838467576,62.7130067192309,1264.33104824543,68.7127301345076,2165.82121335608,-193.423673783651,1608.61742884306,-96.1773480676938,978.520426105899,-75.8503441294382,1177.81822783767,608.215238876343,234.279464392553,-29.1131858019032,1332.55873321962,-61.8640738505567,264.65997068848,40.9049459006342,757.691469125,-21.5019668939232,685.031569084618,24.7657757432023
342.43163204907,72.4028804407403,442.743490179991,7.19338725743474,695.992397411948,24.0394170921517,1309.39670003827,27.1863462465938,934.538340210907,63.2250366687183,1269.41016132037,68.189275289474,2178.47645798959,-194.982489307888,1614.8047695526,-96.2965308725334,991.117507323488,-77.8708354965619,1199.4166639643,615.844594816187,238.242672912392,-29.9618471998014,1356.1109780629,-65.4493877369472,267.895733504914,40.5189405293424,771.574231109064,-22.9356457779467,691.788697744893,24.3498416281872
347.408308690765,71.0527811282383,441.851997450478,10.0490229765606,704.460423857561,22.9770966412349,1330.99786458435,22.7621145841726,949.437803990647,60.9739467867229,1284.78931501438,65.180253393181,2213.23157817493,-207.124130189712,1633.59192073743,-100.776442762586,1006.96705115774,-81.1706702725478,1238.65067835084,620.355623597918,244.122558501423,-31.1844498670422,1389.16389523074,-71.3030555843457,273.391334765885,40.4739875941259,790.3553221635,-26.2740823105234,703.433753648162,21.2610457046849
347.322436978829,69.7620583347204,440.607767218414,9.40914657567149,704.956956661251,19.8820666110281,1316.30633970484,23.2974112628307,931.842963397519,62.7723562692216,1270.43703131282,69.8918746704281,2175.10230991127,-195.553749653463,1611.68806161695,-96.5963916204389,982.492532706388,-77.7672525103552,1177.98507685516,608.218653985334,234.585456927337,-29.2027074201868,1326.68398528098,-61.0877930679635,264.994456664002,40.7455481545344,751.193191819362,-20.2090932633328,682.765176743278,24.3887670108568
342.405951680248,72.1525387647793,438.835718926185,9.3340814773527,699.965793678111,22.5347886310417,1303.60364209522,27.0894424857657,933.968843762991,62.0761152044285,1268.92565938933,66.5943043083657,2184.13057053419,-200.208440414085,1609.20623022454,-96.1061507479725,985.148312816752,-77.4505332472874,1191.57593941167,610.783316311916,236.956994056161,-29.6425021562509,1345.12041171031,-64.1673889691986,265.914196723143,41.1917110195078,764.093531282344,-22.1780272386348,689.154833055289,24.2951887397204
345.014743216161,72.6453534254764,442.756189075508,8.87644092005269,701.985883039655,22.8591206600365,1324.43349820383,25.3468428732416,946.658280233225,62.0063559114391,1275.42367490393,70.6947542596399,2202.26993182661,-199.549729829288,1626.56151150946,-99.297225589857,1001.31289214454,-79.5350800972111,1230.92697077774,620.895085393333,242.877899975415,-30.6904379061176,1379.68792521201,-69.4229751310819,272.454444206808,40.6580692599476,784.479462092233,-24.6595040452197,699.28404031938,22.8200338601509
352.827191779135,70.5921820310936,450.493039976322,7.065213977687,711.652756884388,23.2067668848644,1347.43213381974,19.1914188332127,947.253239739231,61.9813074162242,1282.73837435908,67.6534817297256,2201.88965329191,-200.997716137041,1627.24558542844,-99.4713015342003,1002.14948355684,-80.4355300346949,1196.06258024707,609.179479426302,237.472100487477,-29.7832475769754,1341.26928746115,-64.0094612543244,266.925016560157,40.8382828331271,757.793664115326,-21.1917241997171,686.164268365159,23.70183234077
345.798612686506,70.6641034053271,442.883298683536,7.54998042041218,696.86744000682,26.0765188890876,1316.6243955571,23.849025654777,935.488311183977,62.7172327291511,1267.27329811481,70.5924301601467,2187.13249885159,-200.299326484715,1611.42309833136,-97.1206330726225,986.42710971313,-77.8518812124362,1188.26226950256,613.380773773358,236.905423262385,-29.6199863045097,1341.0874024775,-62.4522205436139,265.735146513872,41.2588318562126,762.180634039519,-21.7624969436449,686.481728547122,24.9579091823363
345.287553358312,71.0862494097324,446.016481713236,6.88880904891874,706.486362256166,22.1128841963408,1323.30750808945,25.5348470263911,946.002795256361,61.886672496611,1279.15988597117,69.8486468354398,2200.44086165646,-199.028781605559,1625.78599190006,-99.4486800158422,999.196515507166,-78.4712887534193,1226.86353059752,619.619676471919,242.219110834189,-30.8030598595072,1376.2738183987,-69.216118452142,271.021732655998,41.0674204036957,783.141119897173,-24.8945822301928,697.481657952695,22.4735588218084
350.645089086024,72.0098934406256,451.417016616552,6.64708568699963,715.972023969487,22.7813150466432,1346.70541774577,19.3697024762809,958.151163480269,60.1254444849665,1294.53003744496,64.8817554890257,2222.8324333672,-207.855626903818,1638.01742720099,-101.333629587158,1012.91853928601,-81.7566722026634,1218.93064397503,613.141765496063,239.669239063551,-30.2479584279108,1353.91633179019,-65.3274730044364,269.207519132558,40.4471817258134,760.946458257971,-21.17280500756,686.774134647414,23.5117955673567
345.051728417164,70.4442201339241,441.065968902488,8.13809980051232,699.586431834776,23.9256794582153,1310.43954326616,26.8789034996124,936.333326235462,62.3907256785508,1268.34353075943,71.7166378035267,2189.05906275704,-200.006175710235,1611.7523302054,-96.8012689849153,989.885020687267,-78.9275122489337,1196.29945216306,607.80672831045,237.4341021326,-30.0089693445678,1341.35062880291,-62.6573006982318,266.387934339729,40.7839719996027,760.66798339572,-21.3306592694612,686.588812836135,24.3661368191352
344.445518625768,72.534379566507,443.685894163834,6.95453288591065,702.210529372192,23.934632267138,1323.44881061049,22.6544263020839,944.475045319459,62.1685175561841,1278.68203575976,68.6559799576229,2203.79056813375,-203.123305603392,1621.95520456791,-98.5944239711772,1001.77739586479,-81.5022902814936,1222.21110839632,618.440666329604,241.880968591016,-30.4490882862483,1372.21992835338,-67.8874134236755,270.161731267112,41.1332195317293,778.997088854836,-24.2145925610125,696.648426931067,22.4061845317306
349.255066051557,71.5330325780141,449.352431633831,6.3002578316454,712.308761167015,23.4240447839489,1345.40234421741,20.1915495527012,958.673777606434,59.844615641857,1298.76671900643,62.62668507884,2234.43114530409,-211.473687165081,1643.92868684601,-102.499207240105,1018.29959137037,-83.1606118287077,1257.31016354012,626.867830447946,247.476344075621,-31.8015807372839,1404.5326595678,-73.2468855725484,276.636702872343,40.2614459264068,796.9668232568,-27.4940048512098,702.959721689032,20.6260205303171
343.410954207563,71.751826519615,441.208773699356,7.21497855960443,700.173277398668,23.5733013225079,1310.88386796284,25.8335912593847,932.313371978161,62.3515728513691,1266.27516218594,67.9770271606101,2175.75773907394,-196.931588940882,1608.03898375711,-96.8239913887287,983.538051129936,-77.7166212327328,1175.65543903011,606.986880749937,236.202376013374,-29.8004998820411,1332.83867626754,-62.4184157924512,264.970568477285,40.9835070859472,755.471004995128,-20.1707680141452,685.387690772745,24.2478648150421
342.218768607454,72.2809441667145,437.366225529498,9.87555075643006,701.052303251352,22.9785199989396,1308.19518680549,28.2364451459006,939.3476077969,61.9586978950552,1273.6671801069,66.2457684368174,2196.23947927185,-203.949217197754,1613.21573868183,-97.548862927724,991.308826045956,-78.9744868112941,1201.17745240438,615.627323809868,238.775165559392,-29.91761824769,1357.99345982219,-66.7027013438366,268.269091578582,40.7698510185004,770.084637774014,-22.5763583424982,692.953342283985,23.2612561213069
347.7961357348,70.9041223953831,445.781074821407,6.35067955179382,707.081541988456,22.3680685970513,1331.33015797465,24.4452141573148,953.575150515916,60.299867257145,1288.72178976583,65.4060595694578,2215.99915636917,-204.552072413935,1633.56501403575,-101.074281438773,1009.99041623368,-82.6223007093377,1245.09965210618,620.284005285918,245.134132746641,-31.3832477280802,1390.94262245382,-71.3858744941004,274.111474970618,40.059370848878,790.061330073981,-25.6656038891398,701.812416538899,22.2031677572731
349.907385118094,69.8066707750823,445.25631532593,8.21174918521161,707.825690401582,22.3142189481616,1325.38130967946,24.0573731785746,941.69925625979,59.7872892542388,1274.35161947344,69.2302670574377,2197.87469092327,-201.981060847595,1617.61058849861,-98.0888027020671,993.844656629398,-80.1758115285437,1188.88922155873,607.42358116599,236.930495128375,-29.8546657362934,1337.63751449831,-63.0362109998581,265.326279578061,41.1420913499264,754.779286158609,-20.2110568333297,687.030208687872,23.1469981195431
342.355624267213,71.6816031583225,439.919440422942,9.03133412489326,698.836177622735,24.2492085965321,1309.77842039287,25.6732360933906,936.349719500263,61.744268586613,1266.94491189676,71.0080351028489,2183.61727116211,-197.16188016952,1609.83135577953,-96.3060168319585,987.906993313644,-79.5552827915814,1200.08504934428,606.277205014469,237.175305360089,-29.9466718655045,1342.88657258046,-63.2468050425231,265.722096466113,40.8202056302502,761.711758623888,-21.9012504289016,691.806641607742,22.4832684081156
345.26809637348,71.8527668511623,442.865608952318,9.28475270592621,705.336683021032,23.7551280743259,1328.0562779865,20.2641279700812,946.193934317662,61.8414837199095,1286.41706922713,67.8107570467269,2208.99263567726,-202.298108659783,1626.4026980403,-99.2163890738844,1006.28645795095,-82.3076425311746,1233.00200712053,619.846440526911,243.64689696195,-31.0091747216667,1378.79478474144,-69.2149205406447,272.847028965781,40.0161199931472,782.448751900208,-24.7612003690465,702.861357889184,21.3729541524134
