326.859992671849,71.7752372526845,421.509280952463,11.9789954029651,677.594816509302,23.7278941494338,1269.74372737413,29.7970267811415,922.918689661392,63.7826463942119,1212.72364806011,73.8923051315645,2120.12686865848,-184.069071311426,1551.76976092365,-85.843804671367,948.009644799319,-70.3968573627119,1159.96842394886,609.556303506689,235.533764903182,-29.5292975460072,1370.49457854293,-70.285254599902,253.610233509185,41.3367439453515,758.140299508269,-21.0872811715935,701.476174823817,22.9995500684701
331.461254388324,72.6164613715719,429.223074380431,10.653247212064,686.352625113722,21.7254718817123,1286.3948539801,28.591629273153,919.780106841551,63.9600979113543,1217.1796938385,71.9041302501525,2111.57194364135,-184.848532242906,1551.2152645015,-86.6202436744678,945.655878201027,-70.9067022055989,1124.48784534384,600.637607182055,229.448740219571,-28.4360739245584,1328.5850083674,-64.2092618058428,247.542390220936,41.8322582111744,729.054942888096,-17.1352774830397,687.836135812762,24.2346001718659
324.807099640095,70.5216173902749,418.370744571998,11.0662368629865,671.142695419824,23.6565646889601,1251.87582010464,34.9701183598144,908.950276114791,64.0611717769813,1198.4647789439,75.3121270844824,2083.27397963254,-175.610903184051,1534.62322850709,-84.0213528215719,925.856897476659,-67.67837360606,1116.29129055416,600.479715991363,227.977055633078,-27.828602783487,1327.14477357889,-63.8575624174867,246.051250525732,42.469910840303,731.118503647126,-17.6603395407467,687.02178618658,25.235561819465
324.761764706897,71.9583640846096,419.725150100984,12.4192700957968,674.351158674414,23.8428600270829,1260.07570255458,31.4245534733183,916.229193076319,64.5791324279189,1205.28088639984,74.9019989831618,2104.08308444014,-178.778978050789,1542.26265285353,-84.5101365808687,939.496797109399,-69.8805694914429,1141.93048069416,608.619810819531,233.164068426629,-28.9520115460142,1357.47729485824,-68.6702367089976,250.825167427149,41.7950227395097,749.999868653621,-20.168292457812,698.218484416985,23.6991065382663
330.150005616443,71.4981715316015,425.207330950549,10.6479185305535,682.24154567786,22.4799160500267,1282.46641513274,28.5641202435349,929.050548605694,63.5348460858255,1221.3139358284,73.0896865988536,2133.08753750737,-187.628181474569,1566.20633693167,-89.5010878343036,958.317848062917,-72.7848827156346,1173.77998820068,614.288376683428,237.21492830931,-29.8213873996586,1381.06185085611,-72.3554146907796,254.878365042372,41.6032462132037,754.121441534098,-20.3550631618669,694.429010812389,24.3102704322692
325.205260591922,70.1827109579325,413.404324844203,13.4109997458453,667.839912597574,25.26050866475,1249.62610074938,35.5893536672623,903.632922197209,65.2984037334956,1194.04684931323,75.9804888128398,2077.54161878559,-175.605810104543,1530.75750940066,-82.7777817138455,920.950827834971,-64.91986011691,1110.63451410457,600.339707429268,227.657170946996,-27.6007273316841,1322.6190408035,-63.4034627582241,246.469161583609,41.6541885047115,727.765461397718,-17.2191176348732,683.844118190937,25.9615980031076
323.95166181814,72.2487757387142,413.738776535548,13.9690402199537,669.983357140165,24.2140386762855,1256.05045866237,32.644119247325,912.699654986778,64.4324572458774,1201.22971728369,74.3610700293962,2089.99617114322,-176.914636378678,1536.0048338431,-82.6855312355996,931.371712218127,-66.8201301547479,1131.63840345577,605.347495101863,231.076433187928,-28.5848329318519,1344.4522066013,-66.4572925033648,249.893205861949,41.6027683523903,743.572150481414,-18.9909529812155,693.72168620752,24.0709914837901
326.433553112666,73.4243318752603,423.871070395974,11.0405826185467,676.419372958742,24.7846018438416,1274.58360562133,32.754628939811,925.797516024871,63.2303334277808,1217.0858036514,75.3234728865107,2123.04771354684,-185.715629642704,1558.57104931424,-87.2440252606956,951.673768023728,-70.038595693318,1169.30097310597,611.171516454366,236.792546666033,-29.8871025082086,1380.51206497003,-72.5888070071445,255.227522838037,41.3067451083457,767.350462599301,-23.9432045781306,704.674308766942,22.4716232096216
325.834730427653,72.973811854797,415.809122754826,13.0875136357385,677.094742869343,23.4999744930149,1262.32980306491,33.4449150962877,909.076447887693,63.9174468128468,1200.44449607788,76.4235964106904,2079.64083919339,-173.210342229588,1537.64565417505,-84.1492016870151,925.242829988583,-64.7755362811521,1110.23907583971,596.75824922915,227.047307752959,-27.7568652131428,1317.4482896853,-62.6198093723886,246.18413286892,42.0278804553689,723.628719653668,-15.9501754744072,683.606068284236,24.7025778796558
323.528224290543,72.0521325606178,419.367874707617,9.96584534949038,669.056317296406,23.8260031752713,1252.7599884472,32.0986407273785,904.876813613529,65.4461134004481,1194.01300374626,76.6291770154099,2080.67329419099,-177.192961899181,1530.92491868688,-83.0702222001876,922.291033862378,-63.7351226432279,1114.82509929151,599.248539070806,227.687405458653,-27.7555387098816,1327.64613870809,-64.4219769737665,245.469075970805,42.5428507111935,734.370173530355,-18.5757547264308,688.629651645191,24.3313762123158
326.685524305453,70.9730110047443,420.106541791879,11.5464609462705,678.0381800522,21.6848319712923,1265.02446457166,31.1272157718393,918.147366191216,64.0995976835588,1209.03486755102,75.5756538939865,2100.6974386319,-179.363041851286,1546.34730845972,-85.1867510620066,943.505277052109,-70.5996732486655,1150.69442776655,612.514056738992,233.296947372508,-28.7702863070701,1362.58128843577,-69.5144156176799,251.714799277834,41.6290977297722,756.621329407564,-21.7734103078591,700.307816097828,23.3142450183693
332.314072216875,70.9224184678258,426.977751322368,10.0077496935373,686.393143971886,22.5877726173884,1293.15303444887,24.6265017398947,931.154786156241,63.2136625153003,1225.12045002709,74.8717679561807,2135.79704348146,-187.715134375762,1570.30773590245,-89.8864405529452,963.863529859932,-73.6367817028947,1189.09660318923,615.316296132723,238.74463672383,-29.8792460015438,1396.90241471432,-75.5393209132799,257.429282814485,41.4515846523887,771.565085159911,-23.9294601342714,704.454408273089,22.0899162829842
326.299283073616,70.9484483966208,414.144111833621,13.6656337036647,675.943638545179,22.9919855837474,1252.10763566936,33.9298841018106,902.303900470876,65.3293742049321,1198.24983472783,75.8720165227328,2073.5321101647,-175.251648169359,1529.72699546102,-82.2476411891653,920.487445917912,-66.4622918202205,1104.10265415165,599.442085635344,226.422199269273,-27.6734055549434,1318.11655000692,-63.3724213679803,244.876637997584,42.3641179814138,726.754083993183,-16.7404860479109,684.047613639341,25.8820430400914
325.917591396991,69.8497107462333,417.354432624253,12.0093558935054,675.762613732264,22.5858493508958,1257.76417727187,33.1534172134889,909.459875875447,64.1893756501617,1200.57570706912,75.4180367020099,2085.29373500486,-174.826114955209,1536.94742777175,-83.9495755468147,930.939874777923,-68.089889732609,1122.64131380459,606.616600590969,229.510292532574,-28.0075291233813,1340.2338792038,-65.6779687470484,247.36651674268,42.4565647562865,741.284684728546,-18.6989785056062,693.402554161947,23.7836895697627
327.319957555608,71.612995549368,421.09387811083,11.3455576052902,680.512940698537,23.6007648066031,1274.90992085481,33.5003338291899,921.804307417898,64.5345271508774,1217.03237729463,75.389408788578,2112.83567406247,-181.332260770685,1556.64305474397,-86.7141961176097,950.989208528433,-70.7821863792803,1161.67576054814,611.135618682763,235.335065285578,-29.1944568438785,1375.85769330939,-71.2678306513512,253.116648207418,41.8304517922754,763.741802256123,-22.0635167842543,703.591876638138,22.6108040744051
335.158914763296,70.6669127295535,428.770272569786,9.93757003148624,692.17142094218,19.8453604796875,1298.52236513751,26.1159120457616,931.018570276497,63.967132899544,1226.818530907,73.2575991664958,2120.50582328153,-179.297715247068,1566.26601404855,-88.4357723280642,958.586592816737,-72.060934553664,1143.4010587727,606.988653061988,231.078122559467,-28.458921287958,1345.31610988325,-65.8753382509124,249.331524097452,42.2992533418221,738.281935780988,-18.8676431883356,691.128797813396,23.3319652475355
325.656027108661,71.9682625505458,419.528062787127,10.7876017178446,678.401915861762,21.5590960732199,1261.25356452171,31.1119962939395,906.368643289552,66.3228696282617,1205.37804379991,75.3149200255727,2084.85507458619,-175.617617520091,1537.87220133722,-83.5515761547025,929.221948549581,-65.4109931310948,1115.65470964659,603.546654552557,227.652893770793,-27.6053817371029,1329.32018626434,-63.3255788506322,245.804817754498,42.2566995281665,734.577664690069,-18.0352724594536,689.142024090814,24.0556125846491
325.098524853602,73.0124738849356,418.683422949596,12.5187704445762,682.05339204779,22.4216297672976,1273.113140719,27.8012286798549,914.452008012221,65.7884488336461,1212.07401890814,75.0842570438295,2103.17447782341,-179.269085045529,1548.33117045578,-85.0948626807459,942.959480700953,-69.8837616073793,1146.00228843947,609.966316993202,231.948081293713,-28.4320298019652,1360.65339329731,-68.618057792199,249.724396399409,42.4085005887222,753.647147468071,-20.9904037996934,699.942309685505,22.8047081886317
331.050248259797,71.4014942481585,423.940412455292,11.9904504961251,687.617706765169,22.5501894928433,1287.45059666849,28.823089546068,927.269581035044,64.4447388230656,1231.49134659935,72.6282332072964,2125.69605250583,-181.711540457586,1569.32149771525,-88.396551880361,961.588762922764,-72.6542067255948,1181.27652627377,615.725024556667,237.137391312371,-29.5155788538458,1389.9297845202,-73.1283788941512,255.448133627377,42.004021433458,774.022371406709,-24.5653537173411,709.307207716344,21.221087980286
328.152447651583,71.5838270273216,425.387508828457,8.26466175998284,678.619064527853,25.218912899721,1274.16925986256,31.4162422772076,911.303751384238,64.8894795372363,1212.89007364479,75.6594070625941,2099.94392259835,-179.468645201189,1548.3795330071,-85.0633294320674,935.664725628935,-68.1224779650958,1123.47996343647,598.160512612616,228.440962869616,-28.2098934745129,1330.81342644393,-64.7778997715427,245.657767009429,42.6096329585116,733.443916751384,-18.0357180923607,688.911881318666,23.6431238730333
325.969600733427,72.4749327974214,417.449269743702,13.2884993374169,677.832160130745,23.9576926561521,1260.46927476388,33.3067194099811,907.999673080711,66.3348248273691,1207.16287408433,76.6777330969653,2086.35896632355,-173.210641613993,1542.27932916475,-83.1613509412369,933.686755392692,-66.934491289412,1131.00378035316,601.226177290439,229.154205061041,-27.9777809749437,1340.29799603637,-65.1657563176146,247.123252629285,42.5798053568666,742.917356312453,-19.135243837626,693.812598012387,23.0744495563585
330.630256803348,71.3756268010501,423.223641235269,10.8476117814138,686.728772942389,22.2802901885818,1278.08643744265,29.6301904403563,920.142846663451,65.660855726465,1225.2122221373,71.9566355328775,2113.70640355134,-178.023169032628,1561.26600391927,-87.5229653644852,951.173164589525,-71.213031804781,1165.45442506628,612.527045605021,234.321992338254,-28.877086714822,1374.81347385184,-70.7581778805392,252.304004838866,42.4196256359528,764.473558773654,-22.5979060042409,705.932201652724,20.4216337728212
336.240547678722,71.3343795671707,427.814722688868,10.9539764491772,693.690439860145,21.1792839131374,1301.2873934543,27.6618370939541,934.338456796437,63.7379001501965,1239.58632828511,72.2235924238263,2147.98981837439,-186.63933250811,1584.73416991201,-91.1125249393207,968.874984337853,-72.5772414536215,1198.72487399305,618.355687511373,238.725372321083,-30.065418793591,1396.68104197486,-75.5419884303567,255.971575586006,42.2278648633,766.514964510425,-22.6837941014193,702.280723997517,20.6072553949616
326.665958025059,71.1143254293914,417.203092793819,12.6737863557269,679.979002929092,22.8178960874802,1258.7139822882,35.9285030570032,904.539677931212,66.514368490722,1211.33134867618,73.7856057165644,2084.02657716128,-176.483735512983,1543.30022537765,-84.0143301032348,926.290566750971,-66.5069581385321,1119.59465190565,602.539695828896,226.648004394239,-27.2082867072218,1327.46769999049,-63.3851194482978,245.048419051177,42.7255846405693,734.776705999983,-17.8264822470485,690.162842373545,22.1567397928211
325.971871665407,72.2002075377896,419.327735203075,11.8193547716752,675.609543941138,24.5569559362059,1264.05054993013,34.8981904806504,912.093687759687,65.7273037952159,1209.93130071197,77.2967096060846,2098.40640582056,-177.215331749228,1547.56367792031,-84.3857671729771,934.070368953755,-66.4488885679807,1140.81621518332,606.819645112122,229.948767774611,-28.2941010887681,1350.4807530618,-67.9648159275816,248.290163105063,42.3701354203042,750.401865060839,-20.9732357373359,696.49901275216,22.390136517979
331.570689384825,71.0751476275388,424.620428427502,11.3110946616043,685.33457936334,22.5786899590842,1284.72753784417,30.7030348045868,924.534029986499,65.0455425198812,1227.62446391653,74.8433117285556,2122.88796515853,-182.345336697557,1568.38297489644,-88.213912669513,954.790465190306,-70.6397061882458,1176.15689606937,613.505391850263,235.530911172286,-29.217840516428,1383.28308378467,-72.5224016966824,253.865743206615,42.0877256157526,770.904645373597,-23.6335396775712,707.2428764418,20.0201533557956
337.005491617585,71.0882182254846,431.130133209224,10.1883909115854,693.354481874424,21.1846909048324,1304.25582723008,24.9929072340022,922.881844051852,64.6600687386933,1227.00424825067,73.2825008778823,2113.42335743133,-177.319558421662,1566.08661811968,-88.029897326523,947.144050437381,-66.7263471568911,1130.62033967565,603.9451065659,228.448650757396,-27.8198766295035,1335.77270220393,-65.309513889057,247.427719160196,42.55513673417,736.066259971242,-18.6940607061842,689.662601814204,22.2692691533224
327.03655312253,71.403966371897,419.187177350736,11.2365790983481,676.654913318994,25.2487936671528,1259.12893521782,33.3825007124775,905.13121737666,66.8946134060321,1206.5515451324,75.7957533879822,2077.28734010407,-171.970221677093,1541.66584983761,-84.2993825022938,924.799898078978,-63.7355316531265,1116.19834310466,602.04782824663,226.376871543231,-27.6119777231988,1325.10218436454,-63.6841333947066,244.377740705517,42.9785684474752,734.238843104253,-17.9042266212975,687.486926300154,22.9981791716527
327.886790519815,72.3817013947711,419.719052643572,12.0434323540511,679.072377071437,23.8741208690924,1270.46444590868,29.2479641796047,913.430571974886,65.9462238697326,1211.63189128347,77.8324648946506,2097.29297210212,-177.488519473426,1550.23684071624,-84.5596138074072,938.24497960917,-69.0189701491905,1145.58963916502,609.026540893471,230.790755806295,-27.9828856152044,1356.22524802843,-68.1418471496939,248.536212400414,42.657040495546,754.592345840991,-21.2065242911369,697.215674304294,21.9920368544945
333.960782682436,70.2735434329179,425.118601422217,11.1182520956936,685.333756023084,24.5203361445063,1288.50576272627,29.4070978474091,926.428575040671,65.2359400948992,1232.11036304733,72.1370411827969,2126.73345765279,-180.229070137921,1572.58082031879,-88.1860549233652,954.540206713226,-69.5972688813775,1185.3000731821,613.754004968223,236.447434842303,-29.2426627943215,1389.17877530125,-72.8436339386693,254.387663864635,41.9954037285362,775.004166885156,-24.0135517737932,708.342400631593,19.9571007830965
330.997804723345,71.446786754827,420.608470829531,12.5932178376601,683.187895488851,22.6973172267089,1274.28604354817,29.9293795880662,909.412827463516,66.4251039492874,1215.61150672414,75.6080986629909,2084.28659753399,-170.262331805625,1551.19796112992,-85.7146047588141,932.597537487802,-66.4146061408067,1114.36925652562,605.191682969539,226.686596917553,-27.3233500202279,1326.44299487986,-64.3286398167196,244.78109142432,42.86365901798,733.078915761409,-18.0192616227458,685.61018552149,23.0426123567332
327.345376313051,73.6096808765299,419.936698217154,12.3784364408236,679.665645031058,24.7636650474165,1259.36329539979,36.7335710889281,907.807444194737,66.2138754364095,1215.18227378115,76.4780109764238,2087.07263499082,-174.373614513551,1548.04615933796,-84.7124266424138,928.579489368928,-65.5818859334348,1124.03465740325,606.173467227497,227.782226930075,-27.6880534843291,1333.25345259098,-63.9794138002216,245.793455639902,42.9318465368252,741.185629178361,-18.7478252787987,689.891625074683,23.8220659997491
334.638386052254,71.5939024781913,425.298743400877,11.7806675032705,693.88711307356,22.4255499495832,1280.54107629138,31.2185663069567,920.40622703443,65.2512106081959,1237.11570450564,72.6172461708772,2113.55761191242,-179.665157252783,1563.83839891423,-86.7765253331535,943.872903508781,-67.214421042153,1166.82676538202,614.168639826574,232.700989138175,-28.3084773247148,1366.37039282279,-70.2657010908066,251.190327459517,42.8207054268355,760.707567317578,-22.2363584563094,701.247452301686,21.5667134326821
340.623287357748,70.2375558921333,428.480219332585,11.9869203941814,698.893149639368,22.6325493523429,1299.53158803842,29.7865644682869,931.95409483956,64.7582229247136,1247.39419732869,71.3277348144201,2140.29630052837,-183.402079666736,1584.19779678207,-91.2403686241595,959.220703761133,-71.5887365811109,1196.57783766951,621.593370888244,235.510867484262,-28.9647902702021,1381.1574950154,-72.9277586183761,252.992363582561,42.9339846956964,757.886781279353,-21.5173810958871,695.794365377876,21.9004179537966
330.849239187447,71.3501482222464,419.135298141174,13.0231788007883,687.47805122189,22.3344065612446,1267.69341364169,35.2880442880704,906.689869221062,67.6812644711718,1214.93866630532,77.0977856214297,2084.44959487022,-172.687425648828,1547.3367975144,-84.7280120819287,926.41820082343,-66.2190564343641,1122.73173309185,608.452983358814,226.791198960081,-27.1631072847014,1327.94705427279,-63.9109774740955,244.050657453821,43.1205278127504,736.127913273015,-18.266486854209,685.691153246104,24.2488254251266
331.449290700835,71.7698839683254,422.024208834391,11.7307299304683,685.533965486115,22.3252919504749,1273.28870996493,31.0082429611443,911.468166450136,67.2026150648472,1213.99412842331,75.1213922776306,2084.69371489901,-168.698557624933,1551.40600294393,-84.9714375061825,931.760128846785,-65.0186113128923,1144.40901890174,610.425283919876,229.797325792323,-28.0784210193573,1350.17748292793,-66.7050106070076,247.409406474451,42.5992501594913,751.262130738582,-20.1122074265919,693.97137967705,22.8100547090639
333.557998027548,70.8764250464333,425.467236610745,10.9517513191036,688.793505776711,23.0955754771931,1289.06002682325,29.3209978067884,922.192026118595,66.4200689470814,1228.50124897317,72.3664290286095,2115.82321302196,-182.158927642644,1566.7443262357,-88.2241789915671,946.246498877026,-66.6790471825777,1172.2734552112,616.016633146998,234.402546794491,-29.0150298117894,1377.59091555827,-71.6597292954151,251.473356656615,42.5125911398117,767.330006618034,-23.6944081629987,696.837760259195,22.3046993316418
329.492918331055,70.4698122459566,416.896163588049,12.0696544977632,678.351109084694,23.6698097790938,1257.6811606377,35.8577752511174,898.600200498945,68.6217443151185,1208.13950347738,76.1962826919173,2067.72946134135,-169.792296381196,1537.67341618908,-82.1853122462849,919.279026322109,-64.3055114275794,1108.59187914344,604.694399474308,224.539795962115,-26.7805021910464,1318.19825828588,-61.8727437589102,241.488613520306,43.5268652141494,731.849059200356,-17.442512155123,681.100754962738,24.2592500434346
325.775332190057,72.8243903418058,416.793196332467,12.7230920327685,677.921299265554,23.751338874488,1259.50427649707,33.7695105716068,904.632234174186,68.7424330398748,1205.34629523717,77.6273069833809,2081.48350299697,-172.433236019166,1542.4906928914,-83.5480544343249,924.005724114725,-63.449213392403,1128.62915808535,611.276826418459,227.283601783508,-27.4122661502759,1337.05554324518,-64.6921214442348,244.009995932456,43.4558381563953,744.834830243462,-19.5999125332255,687.527042016927,23.6102031600594
330.36207919311,71.3314714395754,423.890492868285,10.9073689197314,684.064719435946,24.0432599993253,1279.02799148635,30.6846416573585,917.666135360582,66.6675938654414,1216.13619153656,75.8617863577411,2105.25739600325,-178.264562023954,1559.62933772862,-86.9625635658524,940.641619989114,-67.6002629780873,1159.54002137786,618.078631784289,232.322094824378,-28.2794625202487,1368.81111015958,-69.4821552903669,248.963075679481,43.2215358990328,764.43450802754,-22.4658080682961,697.298884492624,21.9757391506543
325.511941924828,70.0513147145726,415.600951788992,12.780944023454,673.587522561298,25.6965297440716,1247.78050691928,33.7550988406875,894.125997515033,69.6206842810694,1197.81245465402,77.0387308351895,2052.35700995065,-165.087725397542,1527.31485506487,-79.8365210721643,908.788196854725,-61.6118680201388,1094.24122709768,602.228778853088,221.634188318652,-25.7952228295592,1301.54886793795,-58.8470355800698,238.498515007337,44.0409144520469,723.056112382145,-16.3839114573961,674.816118329383,25.8547637696945
325.915106129685,70.6422003300844,416.623471980417,10.7594293507129,670.177609231415,26.1809422659976,1250.77196515128,34.8120411905583,900.144001437198,69.2997968229884,1196.3021264776,80.177211099268,2062.08853309154,-166.633999496377,1531.07440403601,-80.7001905477917,916.619544503256,-62.4382003609446,1116.60546921672,608.852731068599,224.935863022746,-26.528912239977,1325.4373385499,-62.2747122867658,241.289142658638,43.6050775359541,737.60474991282,-18.2633324722588,682.698628618992,24.9621066257827
327.075262759577,71.2707477049323,418.928268232726,13.1625726126541,679.121173458289,25.0520022840031,1265.69309976455,32.9358703336211,913.372667655394,68.3058160588202,1213.57361429707,75.4947276615419,2083.24814406717,-170.633489122727,1551.66957587525,-83.5680992836241,932.808405600591,-64.2669930860762,1158.38318065619,612.926216904394,230.886919447872,-27.7909937904221,1359.34087696005,-67.3390523013667,246.430180876582,43.6013872997732,759.475585781129,-21.8680021727541,691.350262482015,24.5968068280105
333.053275050038,69.4212522036613,420.332373161845,12.2858733113759,681.35981451189,24.8136640842825,1269.60159895893,33.5510504896756,901.328177416521,68.9605724790988,1200.92283341516,78.363061484401,2064.31843481936,-167.711717642351,1538.46163889692,-83.0701060455824,918.049842193873,-62.6676942542791,1102.30820747164,602.82233188497,223.170815281024,-26.4240878882881,1304.89564421186,-58.9725252059749,239.473891298224,43.4097954793429,721.642416010808,-16.3010332937561,673.156000703391,26.2251999187484
321.967916441864,72.7086460477077,413.948183490602,13.2899481622629,671.929412072402,24.9059448444283,1243.21586936,37.028627454722,894.34527450593,69.3981882261602,1193.43459343327,76.039696897615,2050.89362653198,-165.73758069334,1525.22579882307,-80.072632028251,907.541769446438,-59.0879863840064,1100.6513636828,604.183819003415,222.379590031395,-25.9972077231314,1306.31239311946,-59.5225771119607,238.381658499368,43.7430302221017,726.541303547684,-16.545145102176,673.755955993328,27.2463853212964
325.886570098764,71.5212486899948,413.194265798322,14.1844039848336,678.319398342905,23.2223288686733,1255.94796335585,37.2736085161412,905.501865140414,68.6520936593468,1203.34783563616,76.7077603673165,2070.58392362745,-165.245173510221,1541.46500892746,-83.6058173560347,924.954909490912,-64.3657945263484,1140.20743938695,611.954252345853,227.830225927744,-27.1731944173321,1343.62510038625,-65.8989983000136,243.700439035464,43.5693459673844,747.399902573444,-18.6377015233472,685.463417312792,25.3632768148668
331.686761021735,69.6548553199173,423.203550250077,10.7522856731452,686.961894383158,22.7508115460522,1280.6472119018,30.6419298445766,918.898135397389,67.7931581655399,1224.55475354626,72.7162541472507,2102.75859307606,-173.03543002662,1563.68814053167,-86.3948140341186,946.411952125661,-67.5014970295262,1170.11413616527,623.121222757628,233.253263665749,-28.3737387737157,1376.72764690454,-70.6128158121835,249.728617848776,43.2783045307684,769.54269575344,-22.9333010170563,692.217643852352,24.7694214926287
325.240573414472,72.0474269368732,413.107640368792,13.1733805065454,673.994285293621,23.6241855106549,1243.68686535558,40.08827924837,891.932675735351,69.1759413855917,1196.31807560159,77.6857175736858,2047.07991873659,-165.537641535566,1526.53663717308,-80.3980107977331,910.759047859969,-64.6131948431117,1090.97847506487,603.974214746366,220.984872520331,-25.9180663924161,1297.16365394394,-57.930186013466,236.780064124223,43.9237328434715,721.007401323963,-15.7442130649346,670.830839306202,27.3517986284963
323.021513928593,71.8590288545785,412.201270726233,13.8159653501176,673.642255784241,23.7079533181594,1248.73407283115,36.6021081114363,897.08591228638,69.2862083701602,1195.27350309628,79.7856872824891,2060.46553446973,-169.638870053557,1532.62960924062,-81.5092316400694,912.174920992291,-60.8811343133943,1113.35952356646,608.200058069302,223.62789169701,-26.0493972930068,1319.83605501958,-60.7615400831686,240.034698661909,43.7847787729342,736.563119003574,-18.4220465981455,678.03069735518,27.3687853216383
329.245579402778,71.6346017612779,420.11124227273,12.3200293501635,681.764634298627,22.7604632301797,1265.24519650111,34.9545460664922,910.834490013007,68.1770177794442,1216.78895549177,74.1734125249336,2081.72903006702,-167.573929923588,1553.16593702599,-84.7080593928562,933.815020272586,-66.989670637376,1150.45259851379,616.080007481326,229.60745226166,-27.2879004192189,1357.77899218648,-67.4404987758613,245.794861687696,43.6322539575873,758.84208055561,-21.8281139316791,690.214895314278,24.6927079251492
332.759800958325,71.9328553662462,423.080230886935,11.846857123399,688.287364209439,22.2127642045796,1281.97406507276,31.4377840516602,906.918642172677,67.1054620988043,1207.4936554156,77.3746293057564,2072.18645967965,-166.996079849143,1549.394346825,-85.4707043549306,924.405738818783,-64.2961497404801,1106.14402152248,606.64533304128,223.043516909251,-26.1274495668277,1306.99645087643,-59.6179116983675,239.080793531809,43.8246562920583,723.452171905032,-15.9890512113036,675.103723462667,25.6381328316259
326.072711276438,71.6266777764246,413.748012803679,13.429516155875,674.862990345822,23.7993221866631,1246.596328777,41.8700522243645,895.080939779779,68.9844032596028,1198.24887646446,76.6126359538278,2054.12908787126,-167.258366490909,1532.47821135957,-81.4441215305856,908.30006957368,-59.8522187070058,1098.22668158858,606.386014067878,222.310094333755,-26.2130101687466,1305.19289451689,-58.6719455370851,237.554014557046,44.0325946966529,727.179955265316,-16.9872175880162,675.428087573295,26.6114243398972
328.342322830644,71.2679755452758,417.683435420858,12.6412538800229,681.763305066994,22.6462764488193,1261.13981947841,34.3014120974379,904.223381895623,68.6789221011879,1207.86816663989,76.1700677872235,2072.76564582107,-169.195734236114,1547.47883559192,-82.9993242648712,925.451424108962,-62.0170638426559,1129.09073965219,616.975503046115,227.300727977155,-27.1702818180028,1340.32628403236,-64.4145871677833,242.945186339635,43.2663093795913,748.110581511876,-19.7197268929905,688.021956611292,24.1482709088629
334.508260742007,69.1385583163697,423.091798396883,12.2421191905715,685.82380119816,23.4975014628234,1282.59925176424,30.838120261562,916.799045099112,66.9486026663897,1220.51812902308,77.8712032420009,2107.21198102385,-176.14094718589,1570.02872232679,-87.1155023713462,943.384530283007,-65.8560093705371,1168.1948615339,619.61546900311,232.46021586,-28.0434458544545,1372.05285395209,-68.8945304137835,248.170866310552,43.9177092401081,765.422742317146,-22.1895735544903,691.613671964954,23.7009987459548
327.985466672457,70.3662991743961,416.166247962347,12.1915352532375,677.796666751837,23.0996261886998,1252.44155223877,38.2364509861082,892.793442976376,69.6748147810643,1197.96968341274,77.2538798769151,2059.43054988112,-168.395886262778,1536.98366553279,-81.6764211977719,910.734829842944,-61.224389616999,1102.80533862984,603.218651670585,222.577390585728,-26.0543325244173,1308.31419615335,-59.0734209197014,238.606661717724,44.0607188489293,728.857074226225,-17.0896473493359,676.743133866993,26.2010124193108
329.199029596048,69.5398858164564,416.426374844491,12.4012189124125,676.789735714199,25.2498394872145,1258.02131672003,34.3998373052137,900.300025581669,68.288136019124,1204.88254257712,75.8581283596462,2066.29224251642,-165.054033472785,1546.65899454261,-84.6369787730668,921.532650043116,-63.4993824225603,1123.18558913409,611.465453862733,225.563466670482,-26.5274033139781,1329.17972192554,-61.8521867565957,240.549796001769,44.3907964682635,741.129422351735,-18.7465615599911,684.352636801398,25.4040272424746
332.033150218438,72.0326909582917,422.404395521495,11.2739708552332,688.192055234815,22.7555962578145,1280.31007747766,31.4554454129571,913.24799674723,67.3302395283185,1217.89016463042,76.0204505551928,2096.0675859358,-173.391089156492,1563.82003157737,-85.4631188593513,936.772082641767,-65.8094337692173,1157.00167823425,616.28710459848,230.491062751023,-27.6816476836406,1361.99396328008,-67.6681590297352,246.031822609197,43.9363261768421,761.79169725962,-21.9130171036763,696.029335845064,22.8499573782834
328.071669452727,70.9482743576593,415.614619468914,13.004232223059,679.290370429283,23.0384276993375,1255.20379313008,40.2614028267622,893.619738126332,69.2952425263436,1199.03626275016,77.6426186634069,2054.58178720995,-165.555931250607,1539.50989480901,-81.4622146553212,913.360990628104,-63.939474721613,1098.4889186765,604.015760740144,221.236991702822,-25.6133665384856,1300.14606606789,-58.5307042078231,237.04046460493,44.1613869759421,723.519302035233,-16.0550114349776,675.701586738018,26.7130516326074
329.303277524462,69.4484598414186,416.436427913715,13.1072815944829,678.527564327917,22.6270433306659,1253.79662148368,37.0667509975386,895.736933328402,69.4868302770699,1199.12252520839,78.4311106399122,2066.34285995038,-165.961530589459,1540.27356527992,-82.563331410322,917.106874161547,-61.7867540675789,1111.56146749935,609.833106202145,224.101769183204,-26.351457382616,1320.88813973411,-61.3336448107487,238.94615946458,44.5619987235054,736.402152039507,-18.0989834930199,681.257528118501,27.5029591348567
328.852551295023,71.6333617336771,418.068492663656,13.105467711408,680.393982462288,24.3087446512309,1269.59848450583,34.4045791667509,908.577820979927,68.4128950630035,1207.43718317302,77.6389777697511,2087.10850120982,-169.440287396159,1557.48970288558,-85.9806740598243,931.811234870942,-63.660281742584,1144.11000680774,617.742999235269,229.49510842646,-27.5203985408205,1352.23331063987,-65.5241016982043,243.319977365597,44.4436269150158,755.145466650418,-20.6713623131068,692.308218152976,24.8227452896635
324.06338575784,72.9010420406261,412.577302215956,14.6851177959516,672.844008162138,25.8480453899317,1252.52963149043,35.3481400512848,889.260201103658,70.1639317350268,1189.33023512622,80.8337611434387,2047.6620018284,-166.906833576155,1532.86767137049,-81.3689291468374,907.217564100639,-61.0133283223992,1087.72125439615,601.467151743458,219.25836478518,-25.5248134274024,1289.62058380521,-55.9675001828821,234.104159123453,44.8083589183439,715.208350065438,-15.2350236758895,671.496479660808,27.3789842365545
323.427573688544,71.9686736269472,414.400344095388,11.8938834124746,669.527305599504,26.0448850416997,1242.21590540423,42.1624950292254,889.364256767066,71.0436226389338,1187.90717130483,79.038965201349,2047.72502847328,-162.27942824122,1529.73429475275,-81.0116970218538,904.355278150859,-57.8462934801712,1095.67599991385,609.522061347206,221.863108118938,-25.8963071726555,1306.45331059484,-58.072597129109,236.649093196891,44.4394067624718,727.295839907407,-16.3294339267422,676.893105094664,28.7637832863315
325.953008597595,71.0591845383107,415.864722119207,12.2288591181959,676.377287604891,24.0704295660597,1259.37544581201,36.4722597931687,903.12057868482,69.8882894949695,1201.69185937693,78.5425883937646,2077.78701328671,-170.167978274633,1545.93593096368,-83.2677452876418,923.521713671181,-61.642849931994,1127.31005532972,617.860642582594,226.675030306839,-26.6814907090704,1338.1594230424,-62.9635195894239,240.960019505204,44.6991228588208,747.357267824675,-19.3608255635043,685.854110592569,27.4969256811251
324.0446278431,71.3709723918957,412.752600033301,13.3335523086882,672.815912318354,24.0701123075362,1244.589290761,39.3100221278495,884.434511105147,71.479479979777,1184.5327415601,79.4492530153693,2035.54013981274,-158.956675521872,1524.46762227958,-80.1300025873389,896.660943721242,-57.5698555986609,1073.41323039248,604.178650941474,217.518816029799,-24.6306038801737,1277.08175211087,-53.5975894313904,231.719332610065,45.2410003542913,705.412573720808,-13.5428233669387,663.604291287419,30.4411843962883
320.586981903258,72.116814321956,407.748921911738,14.1896948249422,670.436657251748,24.6869628138455,1237.0391796542,37.8583408125365,885.182496189046,72.7107956860009,1184.72856200843,79.7962317415483,2035.81616775698,-156.614444901638,1523.79921165642,-80.4864775260814,897.800106571033,-57.479657049811,1086.62355495326,608.918388958838,220.007803579318,-25.4069484755807,1291.499685073,-55.1306056792626,233.125751884488,45.619450821467,718.237099470422,-15.2447303907063,671.20596694698,29.8259078118333
324.008663593623,71.619646647702,411.273353543973,14.6652499470364,674.026811702543,24.1726926390373,1251.67177914383,36.4237457248628,897.416136649715,71.9316935795457,1196.0508428588,78.6105353502524,2061.2740019982,-164.532355329154,1537.81899022001,-82.2767730913462,913.25132640661,-61.070951680897,1113.74210310754,620.544619683098,225.11036477334,-26.1508380339673,1326.32745807173,-60.6186366414645,238.677834521885,45.1500154727717,740.693423034163,-18.0045358034772,682.024929479085,28.5307308273798
329.491576264049,71.5853648247081,417.380756967575,14.2845520893727,682.396263667806,23.2347529390706,1275.84908176374,32.7040756094931,909.815270014675,70.3752303223965,1207.36689031706,80.1013169927899,2083.46207548681,-170.310338558488,1554.95067955042,-85.1351462430164,925.936763862471,-60.3396578037738,1114.49944693158,617.109737415547,222.527239597936,-25.9983524885964,1303.88949579068,-57.2215518692738,235.767896290486,45.506360824758,717.195332856125,-15.0474097644712,667.817037062919,30.6201564492635
320.157531859816,71.7686845044929,405.724504948168,14.7098204404351,662.809895602097,28.0585955943041,1228.30214004195,42.8310273881012,880.774952418962,72.9299295286173,1183.99716961829,79.4790162359427,2026.36282600126,-156.971080711782,1520.57358491489,-79.8358238718696,889.174845984817,-53.8309062561188,1073.42896942874,609.113840349836,217.737719365147,-24.7128970830957,1279.09028041705,-52.4865266542885,230.699924968106,46.1356108205779,708.842219414999,-13.5525606644061,665.443644216954,31.2135763558483
320.852591758974,72.5475192814883,409.970581366736,14.11943363693,670.004470164636,25.945255214468,1239.6069499479,40.2667804794986,890.659158797951,72.0571135594887,1193.32425118753,77.527827352101,2047.87381081437,-163.658907326282,1529.15609168282,-81.1462943062615,902.692383577927,-57.1036952792844,1095.8385561407,620.987605263011,222.708584488897,-26.055341214849,1309.52325214313,-57.3379751046067,235.903787750385,45.3305669503964,729.545287504587,-16.2168965994367,676.395555266993,30.421156418472
327.267651523533,72.7386301507729,418.05280864916,13.2793689862558,676.494931978416,26.3003051201705,1263.70902731688,36.0239265512323,906.398527846308,70.2908600888571,1204.8171235712,78.6412031818457,2083.59868681027,-171.044958359092,1551.23584915342,-84.1276032017055,928.202933787868,-64.4375080941189,1129.49754456132,627.655271418934,228.046880700792,-26.5938807623541,1344.15614118283,-62.52142225518,241.891988782844,44.8235532026873,752.144216498487,-19.9248665745531,688.558271727568,28.0878690184053
325.563555712401,73.3215120135739,414.727613967258,14.8493764694864,677.342651670977,24.630840687474,1258.46405844966,39.2250717980533,891.294573502381,70.8818449042455,1193.64585992554,80.3702143823481,2052.42299102335,-163.878113697361,1537.35267807964,-82.5205936048557,903.088169748221,-58.3146902049526,1071.88138136501,610.187739299671,219.817701310177,-25.4638326341063,1282.61805967643,-54.2382932284866,232.549271581114,45.8628796952433,708.80317407,-13.6822876257599,667.410528344399,30.9841193884829
324.571985915508,71.5506678462748,410.530213338905,13.5977593064204,668.423295058067,27.3856036994985,1243.36212953874,40.7306879624766,887.249481948851,71.5757334292882,1186.93674741938,80.4884464653731,2039.64437979974,-161.647994084219,1527.83877623028,-79.6988623231857,900.032397096877,-59.2887480268309,1082.20192895876,611.787792435388,219.17977463141,-24.6634913435584,1288.45074048576,-53.7887025987549,232.931676306565,45.8238088088252,717.008975634966,-14.6611342322059,674.530618309704,29.3635370514665
325.267355164388,73.1292363522812,415.056050111132,12.7392992825531,672.599310778184,27.1500766369102,1254.09376818625,40.073308243792,899.319646549036,71.0169024444597,1200.51020068517,78.8543924824678,2071.21987517883,-167.042875703879,1545.35789877736,-82.9142641929487,915.603861703372,-61.2011183862644,1117.73919651346,618.418797362209,225.500200177362,-26.032259373162,1327.46876992452,-59.6156231877093,239.295755732359,45.5043854536365,742.672990886482,-19.2697987618659,685.723803727239,28.7746307558326
334.146725152033,69.3797756371919,421.273401098761,12.7355799736005,684.390384784677,24.9613418084602,1281.27426639479,33.8615678505514,914.216769088197,68.4087342196341,1222.1797806036,76.4821275872904,2103.95541553799,-173.676603720001,1570.53086257871,-86.6699403950374,941.102196012747,-66.1727245713006,1152.3877899416,631.254564804218,232.345710198919,-27.6873731091624,1363.74699062404,-65.3063433966035,245.830719637094,44.7853713702622,763.291382536197,-21.3834468356163,697.612231623193,27.2478471391157
330.11296521699,71.8186296074099,414.738481539266,15.2340454483718,681.86368976556,23.1653143393976,1253.62215340028,41.6478032720804,896.447439318447,69.7754774702956,1207.9935515898,79.732296631238,2066.2598092386,-167.910360285695,1545.39433607892,-82.821434577657,909.87788207427,-57.4153150676571,1089.33323568822,612.421001903739,222.693391843847,-26.0724110971771,1296.72186572384,-55.4754226059623,235.940836826652,45.3608212705604,719.293868818964,-14.8763500779257,677.976708413904,28.3475341460354
328.516927636334,73.0502922340146,416.037095202434,13.9097663942454,679.225446513578,25.8688811168559,1254.00868188339,42.5899862843965,898.326299214649,70.4597366149689,1207.29269459586,80.455720542152,2074.05541051918,-166.583628479238,1548.19844021759,-82.9916321579056,915.299944608347,-61.7305020574813,1103.76101386286,618.220042381548,225.150842566013,-26.301979952541,1318.74866746276,-57.9967920225722,238.988877029469,45.0934934199556,734.316150616262,-16.8308465846636,687.182483940544,27.0149749230551
333.43148644145,71.8558954734315,419.917241971392,13.4029022423562,687.268808801368,25.2935574851532,1281.48887259706,33.6482870322428,912.221824923042,69.3579092991674,1229.01975230118,75.9328809586237,2108.33609911186,-176.63072616657,1570.91503647535,-86.3728878074112,937.786729468539,-65.2615046099678,1150.6385208591,622.395355451924,231.616507990581,-27.7688032858663,1358.03668306854,-64.8596592109056,245.111399681703,44.9173018229293,759.272809155435,-20.3552635874513,699.706467601161,25.0646586627549
340.345811489378,71.211982588446,427.612136206856,12.0197121947858,698.84158369438,21.9033761851124,1302.34482015742,32.9758486616159,927.659436173393,67.4780631685691,1247.85355834277,75.0512527458629,2138.14120378415,-180.139414324518,1594.99850465907,-90.2022422934295,961.129380207426,-69.1638947783698,1189.78180899939,632.092059684819,237.821234944904,-29.1014246723858,1392.56943123441,-70.1872251904804,252.702192427976,43.9315587560852,775.408933250407,-23.1171510779897,703.455104933189,24.321402772347
334.168803879723,71.8367548134763,419.88066064934,12.4738755168064,686.353980328828,26.3516230460419,1275.87015593533,36.2361288895901,904.90279654255,69.2240580218018,1225.72764427166,77.4330858642411,2087.01276263059,-166.522536882833,1561.48930950634,-84.2075145707876,926.788029656226,-64.7018385984525,1111.22200397513,616.473652439059,227.368960866521,-26.9474557545174,1325.24947874305,-60.2407109919601,241.380697658017,45.0173117212154,737.037384491207,-17.6824226719323,692.394731775444,24.5159282562359
334.529970973922,71.9922636110825,420.79340774786,13.7394355669535,691.309588126568,23.1030834001541,1286.72899060838,31.9279871351892,913.3593400869,67.8159849994327,1235.27483669224,75.5228146470892,2109.13809990992,-176.204615178692,1572.11076050189,-87.3110265634699,938.516946775164,-66.5899473801309,1140.32167059187,621.751731877961,230.910397893486,-27.4471360625103,1351.43645780393,-64.3223728309042,245.452719322568,44.629130747587,752.387528821811,-20.1664465764078,700.087131503993,23.8899702815978
341.52192442823,71.5757854302013,428.661263055155,10.3366916433944,698.913696307519,23.1126793374269,1304.67578197498,31.1780273140752,928.005361770934,66.4746654288141,1253.36484198398,72.2591826991709,2139.96856068477,-180.574810318901,1594.40259246717,-90.7778919742973,960.83095223477,-70.2522297093555,1178.01337325672,632.705430710058,236.945638206496,-28.8119871403154,1386.91893832988,-69.4923289367224,251.330171195928,44.6274110879375,775.734893597466,-23.1252486538841,712.378309978802,21.0593383754128
345.918537759041,71.2344902677894,433.801193823907,10.0825704922182,708.833371252547,22.242305278778,1329.33848878766,27.1063692786752,940.769071422087,64.9473305292217,1263.18434949622,74.1107756415468,2162.73757254793,-185.775386006476,1607.70871213575,-92.7926694019588,974.639903727627,-72.6126446491639,1173.30447429249,620.786931277394,234.14412375343,-28.4010316353941,1362.80577435797,-66.3303867915184,248.554853355761,44.7563504013231,750.450215166327,-19.6787215659945,700.639460540929,22.600288535095
337.604660930196,72.3539784385262,423.735631405703,12.2095416390801,693.36523322645,24.9077248913589,1288.30389217575,35.6757428050628,916.464406637195,67.2087829834489,1241.76868070783,75.7778916499005,2118.47856957321,-177.517457784598,1577.03206743904,-88.0233738548577,942.199649717865,-68.2784881950244,1133.94431924393,621.673124930548,230.743801175374,-27.7090147473086,1346.54610726103,-63.9447087722852,245.646366469617,44.5353942279771,746.310593235633,-18.6109280512027,699.15502767111,22.603237299654
339.660195828064,70.9953528032025,425.408013492515,12.3634281513351,696.540997338449,23.8060052374627,1295.44526431734,32.9095555341237,923.322286080401,66.9873099615882,1250.84697078786,72.2520176496556,2134.83746247076,-182.603249545844,1585.3509039021,-89.6718299233469,953.951893601375,-69.901371910207,1163.94863146358,627.206121737706,235.342607399554,-28.7769290974979,1375.0900857064,-68.6838973236273,250.58777707476,44.098407980143,766.302271165407,-22.1354384402981,710.132677552188,21.0224153107908
345.125930322713,70.7672480037737,432.164396578175,11.6087275816662,706.431413206782,23.7802123461075,1321.15422915488,29.9013652644361,938.555698369157,65.2105783094464,1264.0640355598,74.4462817790432,2162.47965527159,-187.405284331809,1606.33649264808,-92.4334222945049,972.117370075232,-71.7242033107213,1202.55450056987,632.104035879008,241.324924830681,-30.0689323148797,1408.83602682536,-74.2588895063685,256.515351725457,43.5719713479353,786.39532330178,-24.7259352963232,721.561822799049,18.4370400663029
343.850824190245,72.1438381763829,429.918042336349,9.85322739008334,703.066941975493,23.2525778826058,1306.57241885323,32.4105139790694,924.403002416679,66.2978955701529,1251.82474455767,74.7614697672057,2137.1597798345,-181.398454989818,1589.74062163214,-90.6949305925068,953.928144169009,-69.165919730147,1140.15362022493,620.957818968688,233.316404545175,-28.4414529980239,1356.76880304352,-66.3662566907669,248.426832407296,44.1204035047014,749.751064822196,-19.4536141442581,704.319252695804,20.327854013434
338.123703235201,72.0972818477242,425.839749484502,11.9394569812661,694.262027455474,25.8170388079676,1295.85971994974,33.5839029478211,923.418199507755,66.5584148078091,1249.69748725639,73.6458126329035,2130.42477395691,-181.339979053337,1582.54142984877,-88.6896475768351,951.015114727935,-69.0252494025688,1153.83124105005,621.363144008167,234.187897018565,-28.3953228767807,1365.42726727092,-67.4959612316967,248.903718275032,44.1202181138842,756.348010518048,-19.864836927539,708.545449657877,20.2360265426987
343.650863263008,69.4293250734075,429.845232090299,10.8665285868638,701.473003449746,23.5803655367623,1310.55719932406,30.0978620298287,934.120779772513,65.7123719298527,1261.19813152941,73.3073192051284,2153.32355032035,-182.302014847104,1598.84727052644,-91.0660161991362,966.870994734863,-71.3860489784501,1188.96755861301,631.55093709668,239.768282628185,-29.9539701448933,1398.20487607137,-72.5444602525237,255.332083012378,43.0375263803764,778.764592877729,-24.3432010711485,718.888151090034,18.7293830701601
345.132834806365,72.1812481684194,437.688674467996,8.38564600812977,712.107492491081,20.3133496609131,1331.58500049424,28.3151446882633,947.453697486419,63.9630110470397,1280.53750912208,68.3480853022684,2186.54456281647,-194.987706176576,1621.38736986159,-95.5035572886485,985.808856029052,-75.0726946568422,1235.15913772099,634.582846046512,244.868352041768,-30.7938300452492,1428.9957860465,-77.454163190831,260.896677534475,42.9279174843945,793.012307514797,-25.8293079021246,722.097742198796,17.8273471279085
340.124106111629,72.0109107074203,426.843460045118,11.3000330077246,698.581401574534,23.5444181065195,1298.03771829587,31.9008050441526,923.968979598767,66.0204671122115,1250.73873616821,74.8889408129799,2133.02589369671,-181.80533230199,1585.3208181143,-90.0983185500239,951.311153582478,-68.0503479042346,1149.17871126679,619.734140564089,234.602880513426,-28.8400122043963,1363.4036872218,-68.6270971498926,249.761551226069,43.5863101404165,754.286776863889,-20.3282539189437,706.620176536746,20.7066224555251
340.40190233406,70.9990051286488,425.987400663085,12.3632158499413,700.908437673868,23.4778253158032,1298.16933521552,31.9470575322109,929.396979797509,65.7997308268374,1253.05642092668,72.5370594916155,2142.92745409723,-183.663390173557,1586.33514770928,-88.5965842890162,959.454018734837,-71.0874627726283,1165.71998221274,626.112254556985,236.532367211364,-29.2095278387622,1381.35872969662,-70.3357752270899,252.614279645816,43.1588831636744,765.079177121947,-21.4212033021169,714.723316063463,18.5532933043278
347.030222666325,69.9830884956861,429.894181818873,11.4100705174252,707.744272953994,21.6828785652398,1316.33725107715,29.794508380204,942.018168429737,64.5734411249272,1266.85970550081,72.9060330297655,2172.10998765606,-190.371397151063,1608.48457379593,-93.1407790278197,977.380486714575,-74.9812778443216,1208.89600128971,631.793187614375,242.542656628176,-30.6950334065724,1414.4257995867,-76.6943063837866,258.775914317485,42.6271485094053,786.742147160306,-24.9729803085959,723.843352514057,17.7987890239199
346.360049799325,71.9162595728768,435.138055489148,10.947983873662,705.7529066654,22.803632824099,1320.51881152845,29.2792804437854,933.541454638194,64.4160366383913,1256.06109915068,74.1699937751799,2155.72593882846,-191.690129013583,1597.7759554058,-92.3504290110974,967.081183078759,-71.6806430081992,1154.05896563274,619.89081894801,235.410879120534,-29.2123281076949,1362.2810643448,-67.3089384938346,251.010288299827,43.3913132477594,749.599363090541,-19.1608049261262,708.258487834086,19.4302384766842
336.810172581389,73.1514720957472,425.687018030952,10.8772224000585,696.139989476324,22.7236911543889,1291.64629683224,33.0626195523813,925.938112487413,65.2163413229102,1243.34821288445,75.3854185367547,2130.516392625,-181.724362726282,1580.12290978909,-89.1489479708384,951.764963389353,-69.4994605675972,1152.58495956459,617.925716155183,234.460463703159,-28.944215770824,1362.23705338222,-67.3860092305948,249.828005628448,43.4125192631479,752.51896163972,-19.7621259150585,707.254772216748,20.125628571517
339.506411516356,72.3668416853654,429.998975228161,10.2542597145356,697.352115880514,23.3387980984979,1297.56526260718,32.2791372577139,934.233752057822,64.9005995683724,1250.81609721552,75.4244570670102,2146.80050545493,-185.451513974901,1591.09862551392,-90.7099426209073,961.562180952532,-70.0255368817197,1181.24453157502,626.695487552125,238.797337419842,-29.4338963903771,1392.23364323999,-71.9841391293997,254.397295168736,43.5091884737028,772.585679246901,-23.3659190949462,717.320214800231,18.5709945725814
347.711107604214,68.2093710992294,434.648866176773,9.60501367126831,704.34988862663,23.6313569129675,1322.45779270712,28.0766331153201,947.278348198579,63.5598992163181,1267.6304779883,72.2504818848349,2183.81946552971,-194.570220622456,1612.7429698996,-94.1902936904641,986.672578216063,-78.1222812269643,1216.96412135302,633.973317121137,244.229039991306,-31.0841027492523,1425.24205386432,-77.8656527531254,260.817869624122,42.1034306380987,793.357069305346,-26.9550929487232,727.506748816099,17.0692336492307
337.123938179287,73.1612309679332,425.086242198919,13.0797235936389,692.381972235402,24.0626245531528,1291.15642433231,31.6430157812144,925.38501466486,64.6230781322141,1241.32106884411,75.9823555485559,2135.67063571839,-185.817110322112,1578.83388995829,-88.5787428325917,951.185429588384,-69.2202994455858,1147.8743238927,614.904324377726,234.094662223129,-28.8674260723964,1360.1718797652,-67.3711523428241,249.702902416373,43.1879406628237,751.529964897331,-20.2291112464324,706.098023024461,21.1010674602387
336.465576380297,72.1000569533528,427.239461789267,11.0305165274284,689.564955903811,25.4971796709291,1289.59093759997,30.8212421616328,927.664065076196,64.7588443245851,1243.45355258206,73.510195170424,2136.21386670893,-182.791123893828,1578.40468746924,-88.0627000959571,954.855766996609,-71.4671646425572,1159.84243534577,619.643593686719,236.097241428875,-29.2408734989587,1376.33568295559,-69.8787557438838,251.51284793726,42.8997549753973,760.782898256502,-21.427858851429,710.885857890308,20.2902986138027
