726.223276144686,-33.1979620488512,1855.31202472674,-139.528583461681,889.041938080268,-110.558191157367,2429.97648966678,-365.751869034758,654.819236918185,-47.9656652162838,1873.1564882722,-258.119244093939,1336.34976730689,-140.432378893022,1589.68141424885,-283.389141185633,689.062819578032,-112.416659700223,325.899631124362,9.7831813364689,414.808683630388,-47.6619498574529,893.447090674038,-90.4177522497952,318.300444511071,-21.146080500747,2047.01286045212,-175.783914719649,587.154307196607,-60.0513273040196
721.301829738605,-29.3757265340999,1863.76266322,-142.142077059258,891.384746791344,-112.616393138867,2441.35911222393,-366.967487338419,658.50175171343,-48.9449104327315,1878.59931434665,-259.288002814473,1343.09912225366,-142.187956773847,1595.80836083494,-285.634340993024,692.278424394896,-113.047281766665,329.71766440274,9.69408666432766,419.643259128646,-48.6548964534529,905.720797919841,-92.8071539797845,320.875201898421,-21.6295048651599,2066.74829899065,-180.877098815667,596.339723838673,-61.2600196830544
725.25702518693,-29.1916510991893,1882.9093501551,-145.900499552503,900.337366709548,-114.852074070734,2463.67504080973,-373.279265094449,666.676825175811,-50.7578455121386,1890.85791735086,-260.463816260889,1353.85624916819,-143.444091938036,1607.47715800117,-287.802225459492,698.616738007111,-114.65988870726,336.12169501292,9.03461725730974,426.969711327923,-50.157360258136,923.399992876997,-96.4906960628249,325.177032102178,-22.8141366619401,2090.66325192246,-184.050364733333,607.237266870822,-63.3674159095269
736.426165321774,-33.4483007788401,1891.86118046872,-148.467994978501,899.115338154691,-114.639490011506,2465.06621961128,-377.131916017066,661.489171873476,-50.043289919935,1890.52629182574,-264.086855020395,1344.98267211835,-142.248978568424,1599.87798929626,-285.551556842438,693.189947823187,-113.453693928603,325.506883632731,10.4479619537092,416.40682008779,-48.388003997292,894.981852552294,-91.3622490785574,319.765641852772,-21.8914664278728,2049.03159028948,-176.168276378724,586.938646042963,-60.1595598476174
717.358120558078,-29.2634827345832,1838.72441557032,-136.616153085154,884.584858914267,-112.076063802157,2415.21762058703,-360.819317161216,649.120433736541,-46.9790706307548,1864.52350886743,-257.167572775686,1329.70459656796,-139.094277295761,1582.51899730251,-281.571708250903,686.214369823777,-111.916379873455,322.885033736916,10.3572332098567,411.983995274939,-47.0556711994338,887.869984329052,-89.6417882160822,315.590534834362,-20.3586818637056,2034.03981531954,-173.411694704986,585.350588702393,-58.8620776274059
715.183839520349,-30.0362293205108,1839.83553213286,-136.382823836536,883.896322226532,-110.121054461108,2419.96839037991,-361.774088004535,651.683358848304,-48.05719477252,1866.70944901465,-258.153226979624,1333.25912718037,-139.606976361214,1587.40061927169,-283.201460428658,688.507184261786,-112.503602419101,326.693678025878,10.3700584778495,415.552648093971,-47.8169342975216,899.369956961751,-92.2077779928112,317.992634612025,-21.0987820977159,2049.69143028448,-176.121577763669,594.266743559889,-60.2632376602129
721.594193565986,-28.9467540327197,1857.1708953963,-137.919392876384,889.33333770914,-110.624158495565,2445.25280769499,-369.688963323685,658.750916145863,-49.5424353522524,1884.49069412793,-265.191408594287,1346.00006689703,-142.77241729958,1598.32715243731,-285.247512074775,693.519021289039,-113.079327360823,332.667999178511,9.58342159120614,422.069441506805,-49.1109156257908,914.240388990981,-94.7457764525637,321.662400833935,-21.8270333013902,2073.82641950484,-180.939697405323,603.658674140818,-61.8089671120656
725.436222223636,-32.3748574706993,1855.08906483469,-137.362029095578,892.297855781606,-111.426032359931,2433.99524310749,-365.826344252402,651.041515635416,-47.7500296449931,1867.75537215488,-255.940296562104,1333.38504130273,-140.053087481595,1590.19362330001,-284.019328180277,687.590607771696,-111.755160059004,322.45148151966,10.8412644462224,411.807268871068,-47.4720870575386,886.841792566895,-89.3882807074785,316.039424332497,-20.5135526034948,2033.71131275689,-174.249210145634,582.878917243619,-57.6703934153176
713.412174714024,-29.3226528089137,1823.9891659917,-132.746205024733,879.118640695547,-107.536125375483,2407.29126932299,-362.722151181144,644.781713571389,-47.0160470587377,1848.65502669039,-252.491841101467,1320.59484159591,-137.274090188104,1576.82777057492,-280.358132297658,681.143063048041,-110.643788441905,320.354165447531,11.1593944594151,408.717908141892,-46.4460902104043,881.575796447608,-88.1656292113549,313.966622299842,-20.6087343495494,2019.25283533739,-170.817531207615,583.727752534251,-57.9787885449316
714.69596826866,-29.9014164294652,1826.91733166896,-130.498190919902,885.626045687183,-112.606331964631,2410.81438218237,-361.350647448828,647.609765048712,-46.8863089086479,1857.07438412065,-256.22213239077,1326.67676216353,-137.551741684701,1582.41088102134,-281.330368974265,683.919391879481,-111.202082035992,324.673139340705,11.1905975127254,413.660150991985,-47.5942404277348,894.626453324033,-90.6695348422997,315.916135986932,-20.4218042405801,2037.9777417267,-174.862982369205,593.949640427899,-59.9951463487621
720.355564680962,-31.5752810112707,1847.81584282066,-134.53874471427,889.998000153635,-110.772634578156,2430.83341582282,-363.329752205264,654.838743709905,-48.412115257262,1874.57997317495,-259.97089369477,1339.23922086242,-139.706903677276,1594.58301482103,-284.214329676678,690.565961486878,-112.542525280588,331.798728847793,10.1007496630731,420.80366187075,-48.7743726158623,912.392196455727,-94.3150454880445,321.048798334513,-21.7418366316914,2061.68846899952,-178.020831627372,600.346816879955,-60.6927592108059
711.766308790652,-29.9725013742625,1813.55864563544,-131.391420514108,876.633493607938,-108.082137038964,2386.05713473763,-351.111566031843,638.735521304166,-45.718629293608,1845.6335880532,-253.145244142659,1310.88762781976,-134.154567673678,1569.86310291214,-278.30295188116,676.310196497093,-109.415540696185,316.353681625013,11.7052463940976,403.824158200742,-45.6195768506925,870.675113542425,-86.7437847208322,310.514818043458,-19.6234963128625,1996.00038590369,-166.226070511091,577.094622676735,-56.2085513807622
702.131769381708,-25.78142767176,1800.90153580183,-125.953267445461,871.198698848882,-105.875498178961,2368.06065112181,-347.732569257372,636.228462298503,-45.2340418239217,1836.15465017824,-248.461958934353,1308.53918091044,-133.674631023478,1566.58638178294,-277.746529877404,674.868090072805,-108.792677203293,318.379998314683,11.8542468495502,405.928610866055,-46.2322208978551,876.84393493682,-88.0465919785836,310.06856399908,-19.2983427375618,2003.10185632067,-167.551167059859,584.360101350692,-57.7364251357246
705.993877213478,-26.1156323327827,1814.39004955788,-129.100244951604,876.409887520777,-107.792683278987,2389.35476624888,-351.409181700677,643.216058018742,-46.0064260497126,1849.16741919671,-253.337033438178,1319.71701496251,-135.90220532385,1577.20914707603,-280.05242101134,679.799117267596,-109.663125954695,323.745314181079,11.6107628026671,412.212872663651,-47.0901002376929,892.376741700277,-90.6109393031459,313.907336581364,-19.971636066362,2027.13961124229,-172.676405050301,596.577566459196,-60.2109596831465
716.629279592247,-29.1560506138034,1841.13831732087,-135.908253982116,888.819731719584,-111.29362474172,2418.93141432781,-360.370992544893,652.117969048603,-47.5625173939944,1863.81200592096,-254.525243112986,1334.6264143018,-138.069762594248,1592.9761894901,-283.781067546004,687.63135807145,-111.369761128041,331.681160302942,10.5873488432693,420.621028993068,-48.713987264994,914.336566238633,-94.9894125915448,319.261332847496,-20.9127704952216,2060.94743751228,-178.265247897,606.629486307217,-62.1603591947502
708.60220349883,-29.0412277291031,1799.67771555798,-125.364389289607,875.302114261524,-107.068746690302,2366.03028071518,-344.126196855414,636.12995134334,-44.7997122160667,1837.25121391801,-249.555460261151,1305.307867174,-132.009167303218,1567.85583677198,-277.431954849523,674.200434313065,-108.722295002296,314.568553074662,12.5706789112209,402.112926860716,-45.4435685896592,866.22306765913,-85.5775508422528,308.101647840362,-18.7292002346982,1986.99905292996,-163.865828792222,576.39631007478,-55.5724262450252
695.788484223057,-23.4143518562133,1786.55719661822,-123.759896046551,867.879082543177,-106.745858414203,2357.04164405673,-345.3796281798,631.226202123641,-43.982179295093,1826.1849286216,-246.084876787724,1299.803802554,-131.216999712321,1561.18692541688,-276.181064638352,671.141307348664,-107.730061362074,316.036454225808,12.2354812603116,402.889393855158,-45.0628290481811,871.19341042294,-86.3684345673938,308.046251392916,-19.3292637340637,1991.14906671968,-164.491651399262,581.591414485179,-55.5045888974821
705.159658974067,-27.6708932147397,1794.76216513064,-122.471825092522,870.460528515455,-107.038485665868,2368.43127917099,-345.449726037644,635.966105691311,-44.5625809535653,1834.95973814182,-248.517183395275,1308.38075501048,-133.010471260782,1568.66369034975,-277.833645831306,675.313543356321,-108.39237004326,321.023964205473,11.8408451711458,407.816624848212,-46.2696648200322,884.386465548449,-88.5617630063927,310.542934236715,-19.0034724782796,2012.64890132568,-168.565576100693,593.307738724528,-58.931273535751
709.630175198802,-27.4712179516105,1822.91754756646,-131.155829406996,880.337210570496,-108.675205846344,2395.6657196578,-352.567468332927,645.552391306072,-46.4308579764201,1854.14249885715,-250.107916323999,1321.97759732604,-135.41885765461,1584.5336319309,-281.454441724386,681.964561824037,-110.018425135247,327.508337816339,11.3497685853814,415.054637823903,-47.3555534035682,901.016535432542,-91.4804540263405,315.047096873332,-20.498773165352,2034.07320581232,-173.675171611529,598.639658710401,-60.2509432217998
700.882853502363,-24.8742296428902,1776.95074688245,-120.257078588274,866.291123189404,-105.25773442133,2343.81754330033,-340.37096556097,627.948026378873,-43.0864598736583,1825.18275879465,-245.316047860537,1292.72786099345,-128.262420009243,1558.37741539926,-274.917448136,668.167655392608,-107.04065048342,311.96299196449,12.6950573170045,398.440262057944,-44.3720238215083,859.538987486563,-83.502506538257,304.534830061649,-17.864445224342,1974.94917481118,-161.774893797645,577.882046404533,-56.1399432607041
696.058654117114,-24.8697683082088,1771.34201117981,-119.808154630926,862.776360109816,-104.3656621458,2337.9025279674,-341.058016277595,625.892030109879,-41.7892228843578,1820.42377819069,-241.74923737872,1293.06904885732,-128.580776605715,1556.17250095372,-274.062314115211,666.733793491812,-105.990459734333,314.819516300215,12.675916074188,400.699044898126,-44.2749461575395,866.569001939348,-84.9771405063505,305.814554411409,-18.43900264594,1981.83833505098,-163.007903801324,585.27915546577,-57.7266349084283
701.288179774204,-25.8116750993998,1791.1303378027,-123.014321376114,870.320627853708,-106.155554061629,2353.52174981447,-341.651323268685,634.828380238538,-43.4259876919037,1834.55761916415,-244.969194851985,1304.48626367215,-130.446081870255,1570.39703330528,-277.997970242081,672.942914577708,-107.431666298359,320.559760887412,12.2560231749754,407.953571177295,-46.1658457340679,883.232298453286,-88.2684117653927,309.685953667906,-18.9327253332618,2008.85344908358,-168.470686054955,595.623668089977,-59.3006412488085
709.811119314746,-26.0389790476697,1818.3925143564,-128.782987647528,883.396969742391,-109.615358651126,2381.783490741,-349.408109732264,645.219295519097,-45.6618381442292,1856.78711630699,-250.337631933625,1320.6812298603,-134.106600184344,1585.38913224769,-281.663966636388,681.543527333727,-110.070317010027,328.645924581604,11.2710520272853,416.254361364726,-48.157938559382,902.190931962527,-91.6552245898513,314.195267945466,-19.6616694693626,2033.55307799221,-172.590557912029,601.749584418922,-60.8502816744178
699.358505452477,-23.3393426500923,1768.4193317156,-115.733592267939,865.723602055201,-104.562012539602,2332.18956617599,-336.557190000784,625.310492535713,-42.1937730144748,1824.78852204707,-242.693574954928,1286.4936517044,-126.401474359686,1557.61544188169,-274.024673206541,664.115406520257,-105.107121077668,310.077287262816,13.5967047132555,395.453062285656,-43.1378584294546,854.200192890259,-82.3189579644335,302.089666508595,-17.3993339109762,1966.21570224812,-160.804146678509,576.551597247842,-56.2367460291873
693.916204438333,-23.2960656415016,1760.78141331994,-116.47785417563,859.820903607027,-103.28477912528,2318.22771760315,-332.934490703433,623.969570012074,-41.6421441604955,1820.82583423258,-241.52985263647,1285.60963413415,-125.53569283342,1557.4550227687,-273.958646402731,664.775752197667,-105.333941119569,312.595897560396,13.0868999697143,398.19571071583,-44.1291091104417,862.752757071993,-84.4193451824855,303.179048517238,-17.5636643770344,1973.00729713746,-161.120171405073,583.587648236478,-57.0139346427174
701.503984768867,-26.1225404105208,1781.47332493123,-119.422457534543,866.338373861003,-105.39472665182,2343.0794359071,-340.923499554628,632.019419943033,-42.8607019465846,1832.17318830054,-244.428266539636,1297.6375757828,-128.430991152356,1566.60074678111,-276.012630644926,669.771551521322,-106.145808663887,318.289893130196,12.700577660049,404.799452709622,-44.8876057300414,881.288549924157,-88.2450313290959,307.434301917473,-18.1212802286679,2001.52377517201,-166.723036943138,595.559193467117,-59.4146913658692
708.350480288903,-25.3973531434128,1801.51620780908,-121.665638791525,877.272196070078,-108.4439425117,2364.8549392414,-341.236713671872,641.70018595361,-44.9511521908919,1853.82910624498,-248.99689107179,1312.26594440445,-131.286191592791,1582.52430665316,-280.178774863403,677.393685817468,-107.512588468499,325.83408363553,11.8604453064518,413.073813495389,-46.9427001542222,900.15238756038,-91.3693767475364,312.941179830613,-19.4421920845921,2036.3323274828,-173.28055165769,607.304938860933,-61.4643813116301
702.125265872039,-25.9770343209372,1778.6443977347,-122.27452364085,865.030896304934,-105.245005329524,2327.97808335968,-336.400695770754,626.846553536389,-42.5895073917856,1829.38597057367,-244.790598637911,1287.07030631346,-125.764250740871,1563.60924633337,-275.215407874733,665.835709829462,-105.369482861068,310.088622370836,13.4519220878214,395.687974232228,-43.1251144089665,857.362455399649,-83.5758765012489,302.95211761795,-17.7786190934571,1968.29965987653,-160.908638311202,579.432231652545,-57.1846740045572
695.542102749278,-24.0097046983504,1761.30455694304,-116.094924231752,862.753812691576,-106.580992756283,2308.37912418209,-330.310165561088,622.791629266491,-41.1166885382251,1823.03031591671,-242.854723785956,1282.86286546824,-124.820442767556,1556.98354098495,-273.2305217168,664.257129728685,-104.701189122855,311.3739809594,13.2827587198206,396.915347407029,-43.4908525912743,860.837780410999,-83.3094366273801,302.442985013019,-16.9420131215829,1974.44199277993,-161.43465471144,584.192809119294,-56.7794756495707
699.415220829626,-24.3619722468011,1777.46689667994,-118.197935371641,866.610963354383,-105.82624991173,2335.23865106427,-339.338629026113,629.9374027521,-42.5859275941056,1834.94611565771,-245.033034177437,1292.63293819037,-126.147982202981,1569.33237613935,-277.475646431536,669.038197658254,-106.098836667192,316.622722117198,13.0454976695444,402.689398725611,-44.8188656917654,876.224541709469,-86.7204354133046,306.281740736611,-17.8692201794548,1998.76246946178,-166.935337333865,595.011381668835,-59.686589708725
712.005585064908,-26.9846528306019,1801.42607617333,-121.481291898559,873.796685465934,-107.116537607844,2351.58070398109,-339.014532723403,635.346682313122,-43.555028641699,1847.54900204921,-248.746862230356,1295.43045008077,-126.375942977603,1573.12614102884,-278.017642905849,669.582089340324,-106.194919143073,311.891745532639,13.6251268726257,396.461626806848,-43.4204301085006,857.511705374827,-83.0599996149441,302.419035199837,-17.0831382281806,1971.36222632581,-161.728027524131,579.259142430554,-56.9350590743248
694.873009313614,-23.3705636081731,1746.69559063866,-113.029498563632,855.886175675384,-103.55636851102,2294.59191165282,-328.034792679264,617.315665384795,-39.9781678190421,1816.67914210537,-239.315817699798,1272.58916444463,-121.612925505114,1552.00715140179,-271.70963448845,659.233399027117,-103.340266947199,306.758285960939,14.4077695132324,391.442640875442,-42.1967817639901,847.768120163673,-80.5139008487034,299.130254609733,-16.614975957314,1953.48744363185,-157.297754871471,578.514145581144,-56.1979433213369
692.019676648102,-21.7823998447336,1751.1009599316,-109.870018091395,857.794623203734,-103.91555546787,2299.24006799053,-328.143586431127,620.172350853677,-40.4985418136665,1817.98520298583,-241.445440733154,1277.34477043532,-122.975890186482,1555.60421020151,-274.08318677057,660.944651979946,-103.513642245061,309.793929025026,13.8970857029138,394.567825160823,-42.8507729862995,858.577472903709,-83.3191370618312,301.285312945231,-17.2895905381577,1968.88507411899,-160.529329889001,586.785991987811,-57.4541595141876
700.187275239036,-24.0666118129548,1773.86158620788,-116.286595105436,864.587286030082,-104.455135847851,2314.85500645803,-328.470249549509,628.369180509874,-42.3348016103211,1835.20460624473,-245.189682616747,1288.75101155745,-124.124479819423,1570.12440601342,-277.063459545122,668.004295282596,-105.226903891898,316.334319268545,13.1909000588696,401.975484857775,-44.4724261912412,874.866865457676,-86.3725782434752,304.572455347187,-17.3043859582675,1995.45101923475,-164.453980127288,597.795765487947,-59.7441130052087
712.60868972023,-26.4836871185939,1798.90948467268,-122.866402119024,875.499520822548,-107.806232937304,2341.72738754685,-338.682331126326,630.565180858378,-42.3518550695412,1842.00617821581,-246.721765065409,1286.79737114101,-125.621118819616,1567.88284082541,-275.822702868933,665.74957464536,-105.019500381587,308.719943428218,13.9613969086577,392.496926959439,-42.6576626506901,849.256527077564,-81.0089785290242,300.65071306815,-16.9329819403434,1960.16941813978,-159.053204743636,578.324575163938,-56.6990126187578
690.218771483336,-21.4353951619632,1735.26310432727,-111.127799785758,850.319286074231,-101.13018833898,2272.20840592511,-320.579736580472,612.252415851392,-38.678687900675,1801.70337033378,-236.306456708001,1263.2500416567,-119.619732929592,1547.19375654275,-270.659747912938,655.433624298119,-102.238791103307,303.052257018281,14.9207987740532,387.324675311527,-41.4108342895525,841.030244273339,-79.4719879018857,296.221107526797,-15.8957324185563,1942.51680346526,-156.569884513182,575.806185720991,-55.9144564342799
691.185372431631,-22.5112480485907,1738.66845286338,-112.762153790254,851.525013559823,-102.743200469827,2272.2753330519,-317.253609252705,614.287135863221,-39.2782193501012,1806.26475081101,-238.494548486755,1266.50529433921,-119.66468748844,1549.76773062956,-271.718058696625,657.803738609414,-102.62088673948,307.086406720749,14.1310554333792,390.319488915727,-41.5724706526016,851.120157521797,-81.2891972522339,298.220503371294,-15.8928679934418,1959.75245701364,-160.107760066658,585.404594589699,-58.3656507837631
696.95092691816,-25.7686043088493,1759.62548626047,-115.009358200385,859.950953065293,-104.594678610257,2299.02346945514,-327.391196134686,622.254946036469,-40.8318384554033,1816.94842485794,-238.16171106936,1279.78318191661,-122.602723885505,1561.40500265068,-274.164553889504,664.473392731212,-104.563037423926,312.628601636588,13.7807895854105,396.933710413138,-43.06687383807,866.468944130172,-83.8405551421209,302.199572815284,-16.6792558852271,1984.94887911999,-164.241445178555,594.142586645964,-59.3117868386805
703.573731198847,-24.7269505313862,1778.94926372707,-117.508795308796,869.170763208161,-106.460891142976,2323.33357003042,-333.116107728805,630.773168150616,-42.0723813634926,1835.4934907828,-242.177836136152,1291.23657301234,-125.245202708325,1575.50428658756,-278.309804457541,669.877478191975,-105.379401511463,313.411593586267,14.0893439329222,395.366129417255,-42.5987570016524,859.611092889724,-83.357129178576,300.75925767472,-16.7677763474349,1969.85912116618,-160.453988164231,583.661190858625,-58.1265246648076
692.929270355003,-25.761224422364,1728.95264342976,-106.430779196524,850.241479060368,-101.356743330521,2263.98584056542,-321.465386764499,609.331775182451,-38.3427884141934,1799.87623153093,-236.030483425817,1258.02008138432,-117.899743892746,1545.12515247663,-270.570388757306,654.969644063505,-102.147153002107,302.473270640961,14.7465431445342,385.706129695045,-40.9247948187103,839.304395397729,-78.9065187902829,295.84036130029,-15.6113693893231,1944.8719849187,-156.764075332811,574.927691816733,-55.117907358431
689.327864412249,-22.7991991362317,1733.82568136833,-109.924386725398,848.840164364482,-100.476244192705,2262.10691418664,-318.352859124499,611.489097716122,-38.575705118637,1799.41978589579,-234.915638538564,1260.1763237347,-118.035187796987,1546.47778708724,-270.535596908424,655.259477158169,-101.841455198142,303.824039530497,15.1300166670748,388.473881188008,-41.5207093994419,845.719611273193,-79.9748546010022,297.29997427331,-16.0390828999022,1952.84262871281,-157.129742800658,581.205200412576,-56.5906496332199
694.967601469798,-23.0346781568149,1751.42411182979,-113.547182017482,859.696897787668,-103.635882561563,2278.63384318062,-317.662965850811,618.866419975748,-39.5836244354297,1812.71395275811,-239.407840009461,1271.55531960537,-120.065500766762,1558.50952983263,-273.849904424517,661.079360602333,-103.402095004425,309.429343959071,14.2935658146031,394.117224729193,-42.6947093068304,860.130539268308,-82.7032117650541,300.783741591541,-16.810134039524,1975.07618914058,-161.852860169169,592.339861954854,-58.9871732755475
700.066285596461,-24.3671514921988,1749.69036995451,-112.212909772585,857.304648432856,-104.634931465279,2267.11582861774,-316.623574955225,612.765652401831,-39.4108878136702,1805.95780405801,-236.316314851444,1259.30019956244,-118.052375406596,1551.32622631964,-271.768010084803,654.715242899842,-101.76124863497,301.295315335152,15.0640874767598,384.858240650817,-41.0239499100757,835.373373269674,-77.784361337539,294.979030376135,-15.3643320157114,1938.78018401814,-155.664383294383,570.321344920486,-54.1158398098998
687.480476450286,-22.327494177855,1723.60522197784,-105.146847702305,848.228187737709,-101.486121583057,2242.34893139295,-313.02680147002,606.780538097843,-37.8876262324983,1788.53617784281,-232.935188449434,1248.63662423224,-115.121513328714,1537.41658208988,-268.266593859532,650.11605896541,-100.657785469067,297.710733334159,16.2239607388725,381.932323032361,-39.883978350202,832.103351453304,-77.5934308468992,292.902532020453,-15.0064590159933,1930.77791213295,-153.72178999211,572.733807909976,-54.7038506021969
687.66949596498,-19.8941663978916,1729.77253774516,-105.290402398893,850.544405103839,-100.186780461746,2251.2141897781,-310.62038715279,610.704357994097,-38.0398792895599,1799.18922275693,-236.407233069567,1255.82210073068,-115.817104636643,1546.64788079364,-271.025244192685,653.581613528505,-101.264741192232,302.920000189183,15.4563854773351,387.843329196131,-40.7558875739301,845.394535966196,-79.862167091038,296.1498111592,-15.5858306626802,1950.78927768766,-157.399666912207,583.122071455374,-56.4220375486945
695.971326968104,-22.7387373664837,1752.29869910783,-112.7783919253,857.060228147028,-102.640444739685,2283.9615286609,-320.213909837216,620.400380066811,-40.1081996276056,1813.23983701931,-237.543238713582,1270.17666371835,-119.278104239908,1559.79922298931,-273.983141936586,660.315674804647,-103.224794879219,309.293708634222,15.2297615713269,395.183822658459,-42.7390492194554,864.479210981653,-84.1174832267502,300.649856800021,-16.2814478313038,1979.95540729288,-162.644814833196,593.6702482664,-57.9874264970159
707.96329892035,-25.1088024371624,1775.9381625632,-116.696939197181,869.418283291055,-107.44627005675,2304.39976750268,-326.108507841814,624.060347377262,-41.2650059718795,1824.07561833685,-241.074304338687,1268.47431110051,-119.773578068203,1560.31459413965,-274.026712728716,659.501221368473,-102.610521021809,302.618484521723,14.9355534082113,386.424995095897,-40.9039102691724,840.859593941031,-78.9804250418959,296.675327517783,-15.5380525723252,1951.8653032874,-158.417819051012,575.065945415225,-55.4782341429025
687.567031419243,-21.6555066328899,1719.82912080529,-106.096432047616,848.467410146,-100.595424623227,2239.0894269304,-308.965375360116,606.196284539985,-37.1131343186834,1790.12303049697,-231.239068016184,1247.06061601049,-114.625975151858,1540.75412892504,-269.161003406029,651.262978460226,-101.280470648182,297.742894521177,16.0057190508764,382.205036504471,-40.0504556510563,833.346286488234,-77.4770802453611,293.28307802031,-15.0720095102832,1935.98250880285,-155.049943167571,573.056361810866,-54.1701454623789
686.1270845971,-21.2096725208202,1720.71996221194,-104.605755446017,849.710643988638,-102.789943074562,2242.72312822021,-309.93738769212,609.315060087594,-37.9942417089144,1789.70488016573,-231.817510211854,1252.52833614356,-115.807085347622,1542.09082715109,-269.063397273428,652.044013264778,-100.877323937462,301.172575532746,15.8698931452223,385.821588904205,-40.8332998841295,843.999358574805,-79.6490791970616,295.761881791961,-15.5230318064806,1953.25844027534,-157.631663349025,581.942889543558,-56.1502758157865
691.132639433034,-20.8883424372983,1743.06447186314,-108.570841520681,857.900561616998,-102.875251172198,2268.07873288606,-317.027073648687,618.265764798682,-39.950648175501,1809.82530081585,-237.490158080288,1263.01252685496,-117.052872663403,1555.22360465614,-272.471252327525,659.180058273791,-102.551900046904,306.736843166427,14.954947682656,391.639348614836,-41.6121924617044,858.775274720644,-81.9545083414184,299.652730988144,-15.9493843384125,1977.65787708465,-162.194960701163,591.925156959288,-57.0896197520281
706.595045549385,-26.2204994183992,1767.16837085599,-115.147849661765,866.852206400339,-104.316306917123,2299.45639592093,-324.54304995241,627.600043830513,-41.4189042798516,1828.92856869776,-240.023912398636,1276.20747582888,-120.795424485757,1566.68688927217,-274.819768656946,664.749752702003,-104.287827854945,308.011731747929,14.4773826586433,390.465088082662,-41.4898358922134,850.853632955832,-80.6019543067601,298.629769312893,-15.9905605065125,1964.22321760585,-159.468213768271,579.643700904812,-55.8218099891921
693.894018722004,-23.6043076778588,1723.86070069487,-106.754889411514,850.495223927721,-101.089387079939,2247.53881474307,-313.983766836396,608.212427291412,-37.7360360201438,1797.44091276752,-235.671218581073,1246.02436679817,-114.030149197936,1542.51037354966,-268.77354190871,651.086400616997,-100.843563195679,298.661997358835,15.5334824148798,383.169348634856,-40.3720107723294,837.027007119703,-78.854520365734,294.345620945547,-15.02644743381,1943.95325504883,-155.623759431341,574.959621230358,-54.2213392407626
693.47428042426,-22.2328781683624,1726.43756612497,-107.182379553703,853.150418334345,-101.555112168372,2247.72306728295,-309.686154173794,611.402651238101,-38.1902386993607,1801.93724444304,-237.116147071035,1250.25549354148,-114.975429008244,1544.4711042068,-269.978487247592,651.805742852861,-100.753527566611,300.777990218957,15.8964186580343,386.202170279005,-40.624397310297,844.387179164418,-79.5616352075396,295.555601205936,-15.0994094511405,1955.58289230343,-158.085942681359,583.288330061184,-55.9619044044459
700.27486345102,-23.2090391357331,1747.81131132004,-108.097300062004,863.60831064422,-104.818464388114,2275.46858067018,-313.495606632072,618.990181267928,-39.2863918899645,1817.09802636671,-236.484616331269,1264.56716694288,-117.879288685041,1556.57831066328,-271.973421596865,658.755680053797,-102.726825006943,307.266587778408,14.9557724894183,392.994537520512,-41.9523871227791,860.536980940231,-82.4937514649321,299.98222985479,-15.9757073230077,1980.41579891743,-161.375425128407,593.353794639326,-57.664092224364
708.356683173459,-23.8424097465926,1772.26591189794,-114.121530744528,871.839455972398,-105.596684590026,2303.88246139995,-322.839277565828,629.906627802129,-41.2197280342487,1838.99727140246,-241.837732539246,1279.58054865911,-120.914171301832,1573.77357614255,-276.557297039178,666.507958276473,-104.529627109338,313.578565444064,14.3513328262638,397.832994444939,-42.8840725561189,868.413219581985,-84.1514007514365,301.616112780522,-16.1123535975097,1987.64367043799,-163.431725817427,590.345706164221,-58.0751634364377
697.472635500055,-21.3154558037302,1729.77750356658,-103.579382549134,860.367935646437,-102.846964628848,2256.79771863297,-312.688799008648,612.725801725416,-38.3260400653095,1811.30813612086,-236.546013142825,1247.28706739147,-114.136668969502,1543.30086675284,-268.430260060877,650.812730327798,-100.385833868112,297.729003701006,16.1390915313248,383.308695364057,-40.0270895586704,836.057240065292,-78.1392719041961,295.123945313966,-15.1657969438736,1948.51860623894,-156.459490702004,575.787404014254,-54.3129115387357
699.453943605707,-23.0057625351346,1730.27854653112,-104.895891594844,861.813903509614,-103.706462612081,2254.7082156548,-311.687122356598,614.254818238308,-38.4208593053762,1807.00288286327,-234.013416795,1251.0413700299,-114.879465945246,1545.04652173661,-269.130707231162,652.505674821635,-101.057902983632,301.492316577593,15.380073265034,386.890183515404,-40.8057558772553,844.423758788683,-79.7764117007179,296.569400104431,-15.2598656600834,1957.59042887979,-158.129982790297,583.368637461741,-55.6644563462348
704.023162456042,-24.7378508544175,1751.64305619262,-108.104219473617,870.56010056991,-106.767018198048,2280.07451566976,-318.248926323291,621.22566063083,-39.3670258170366,1823.11613073467,-239.138493628378,1263.7163531045,-116.418390675,1557.9039965057,-272.20746358313,658.721789155785,-102.46003937419,307.283929939081,14.9109921624788,393.957762169368,-42.0437934716,860.860499623087,-82.7314335441467,300.596581255487,-15.9453641887698,1986.79801109965,-163.727664296046,595.226571609536,-57.2525634374985
718.176836857122,-28.6615628676209,1777.64074891678,-113.998318862097,878.425311242216,-106.08272827399,2311.16180644772,-324.102218768376,632.04366324689,-41.1917759465672,1850.64907568088,-247.26564261066,1281.33837379344,-121.303711584856,1573.84956768634,-276.154368983583,666.028794482635,-104.093231934784,314.402899495289,14.375307573039,402.725145846917,-44.108089170812,882.867016730963,-87.2709919330233,306.099602592134,-16.6958828387554,2022.17443701194,-170.427988792935,607.363815907172,-60.7005409520469
708.327266682151,-23.1130002217621,1753.25823709408,-110.004551787343,874.304801038401,-106.391574007995,2279.77957323441,-316.77630007034,623.17938808688,-40.4450051745404,1831.37938832484,-240.776667001622,1260.23978004255,-116.875215558063,1559.17081349278,-273.032121198549,656.69620237627,-101.691376573868,302.043769367366,15.30949380056,386.843245044535,-40.703171284085,844.411355355819,-79.3356002030915,298.15324403943,-15.5669477403525,1967.44190712056,-159.687016521998,578.384405112537,-54.9702105310483
702.572446587912,-21.3857752490328,1740.82995325429,-107.636605480984,871.328398135319,-107.828827409515,2266.50849741951,-311.994054244656,618.934553769563,-39.8430565641397,1818.16451292538,-237.760164478913,1252.95752947111,-114.234293643214,1550.30512739787,-271.322319138709,653.547286296253,-100.624469442699,301.936461614957,15.2815924282695,387.64087368386,-40.7527309071333,847.778314753683,-80.2087468890907,297.569755374115,-15.4484177103897,1970.46404542484,-160.036830981459,582.845359188127,-55.2532119730567
706.171034309604,-23.514578809309,1754.88219895926,-110.32726548766,872.043393576598,-104.587510153917,2284.00622925638,-321.436835148612,624.189307373296,-40.2417605184583,1829.5329350697,-238.804798850977,1264.21603649566,-117.30397792477,1558.76100844107,-272.595619826773,659.562115395043,-102.707718279505,307.577986086902,14.8359770099357,393.459844854987,-41.8039119095568,861.95151752074,-83.5930333681717,301.742520303755,-16.3764715841989,1992.6642335292,-164.828214833162,593.124018703723,-57.6392682779119
714.153671929104,-23.8817586414348,1780.10635189987,-116.333262735932,886.799193165292,-110.195127981198,2312.09307965591,-326.885712359224,633.899215276441,-42.0188234566219,1846.00855709919,-243.584542191406,1278.11039191641,-120.153817802908,1572.5946319357,-276.546856485216,665.821464303331,-103.92486930659,314.340272209578,13.9628706542941,401.236622203362,-43.583795035438,880.056928023294,-86.6431557861192,306.116434078309,-17.0108111515677,2023.13308963214,-170.780873258997,604.562370565563,-60.3622101967299
709.042993522166,-24.3429668749449,1758.46145274914,-114.434795224226,874.480632492447,-107.268250860442,2273.48741320676,-313.601555600907,622.053256036159,-39.9129892710467,1828.68685752695,-241.624689267772,1254.45725396843,-114.85774312543,1553.6071520498,-271.166959354953,654.297105315679,-101.238036886776,300.921993845078,15.7266197116657,386.842517180095,-40.920359822867,843.306807360458,-79.6016337646038,297.526555706341,-15.4097961455582,1966.54101108642,-159.426663414754,578.462854837111,-55.4142442614814
706.069239197481,-23.5538402314439,1741.67575531257,-106.217964439597,868.038294373206,-103.301166434477,2270.47956177343,-316.844162503023,621.111545002476,-39.233726137714,1821.50977530833,-236.458143577157,1254.74897780812,-115.540100170277,1551.09030872553,-271.518587974558,653.763440531653,-101.088953740854,303.01363879676,15.288274317366,389.316576608949,-41.3769506929959,849.152623511011,-79.7515518287038,298.230611600122,-15.6163174063072,1977.10358879892,-161.405126889336,583.650023100476,-55.5520777592545
710.265085569518,-23.380703870427,1770.00149679535,-115.546119285642,879.737358331719,-107.819442675774,2291.66157253239,-320.964190197262,629.196265941953,-40.8198614432246,1829.88340604768,-237.643360188937,1265.62911851905,-116.995440209725,1561.65093746703,-273.17222028489,659.574566656967,-102.579362720426,309.068918116865,14.8196278402584,395.793392542305,-42.2894239754879,865.68194939863,-83.5913384886041,302.575754633111,-16.3573199365117,2002.0852161881,-167.258103896505,594.417807141719,-57.8305055283749
718.168291525982,-25.1080888320974,1792.72891993498,-118.067634069534,884.970059189162,-108.369844517381,2325.61837375752,-328.494695373303,639.510097258292,-42.4024652124756,1848.8081642255,-243.390870338565,1281.81554550596,-121.178653429235,1576.52839052713,-276.767579955411,667.088587261846,-104.162084571319,315.923260096109,13.9330739987623,403.909557754663,-44.0561886462254,885.256729983476,-87.2359991005011,306.987080005173,-17.0904570558126,2032.59672746465,-171.281608183539,605.947492896613,-60.4226358834927
721.150163476527,-26.1837182780791,1788.3259592417,-117.701736373649,885.901104856879,-109.27748784125,2310.80109876687,-327.638146618471,632.674410946534,-41.8212204787938,1842.43227970377,-241.955516272163,1267.83687289016,-119.007188619759,1565.89008107576,-274.772296051669,660.556597182868,-103.080139644955,304.856094918088,15.3509419081799,392.598055796332,-41.9956293025849,854.242719299989,-81.834347469301,300.937105254673,-16.2255974777294,1991.19334499101,-165.476869300207,580.317189185665,-55.9056608553327
711.779292151569,-26.3080629975254,1755.90328187303,-106.454135132297,871.881246139853,-105.76129802742,2281.18047043694,-318.059069889173,626.5839417817,-40.6970494886309,1824.22205674309,-238.675337062303,1257.59435039651,-116.8104479138,1553.37730715478,-271.989602533229,655.885892494731,-101.895635005449,302.98334338535,15.5206844132263,390.209653532441,-41.2929866895807,852.111580915585,-81.1459508479495,298.713690621625,-15.4532938085222,1982.56898726723,-163.632665026557,579.849622947952,-55.3321135841484
709.675292202587,-23.6594929851328,1770.3711374288,-114.816588256576,875.751899502183,-106.924755736782,2283.44272654287,-320.137905659993,629.686277608119,-40.689890711261,1828.27676346774,-239.958336545011,1263.56033034515,-117.118596810847,1558.74974179337,-273.393817368594,659.332574276353,-102.585267172784,307.123564442621,15.3018483190345,395.091934649683,-41.9333338783459,864.83623293081,-83.4970218675634,301.912314022582,-16.5400029519069,2002.13661475581,-166.599294078083,589.805878956961,-56.9682315333898
714.628792805472,-26.3689782203489,1788.02576337358,-117.797981248893,886.022468728544,-109.651602944702,2310.06674756682,-325.093483191779,637.229170426569,-42.7673698126606,1840.76272126276,-242.029403814136,1275.40013894279,-118.942637197566,1568.99103712725,-274.947125910292,665.724755582623,-104.306630123368,313.739226518548,14.4345019775593,402.266312222793,-44.074642566896,880.771109024723,-86.5580893246131,305.845418402518,-16.9738001123825,2029.85715672944,-171.885190923311,598.878406849278,-58.6959137850388
723.722109174042,-27.5116360076772,1807.74044260401,-117.639337849839,888.968665547305,-109.457468148461,2327.44209722738,-329.826456451648,637.881571553197,-42.093341271137,1841.74824453222,-243.612217815194,1270.35657430483,-118.317026039975,1567.08373229338,-274.643031790555,663.320684717926,-103.484302145548,306.750330112128,15.0286676840847,394.029434113189,-42.1974669337468,858.574129477289,-82.1106379602797,301.980305301138,-16.234536420188,2000.06628238085,-166.13669025751,580.754267112205,-55.5792137948065
704.636741138649,-22.7141480179991,1760.27453342491,-112.315014778438,872.076545655586,-105.663214835491,2274.80003776023,-315.488549098752,625.969370672165,-39.8961015911691,1818.31903471847,-238.586480356696,1255.28477832313,-114.883399114683,1550.98891993368,-270.831063413096,655.667609214215,-101.39833391674,304.096176639018,15.1143254341635,391.466072393435,-41.5673484321772,854.44097437911,-81.7617164049897,299.400227242996,-15.668640539764,1989.98377980557,-164.306954308134,577.716071883451,-54.6010424786839
703.929262489972,-23.5435075745568,1765.20527708602,-109.120238573431,873.271198480056,-106.869584026302,2282.15114558179,-320.882513983457,629.453967470658,-40.609904359746,1821.24377239609,-239.407560565688,1261.57365411933,-116.56851532162,1555.34977021232,-271.948121160675,658.948907995132,-102.521382734375,307.084959892442,15.0065906745212,395.062131194507,-42.0164232115385,864.180790589879,-82.7835106097968,301.558246986751,-16.0596361660955,2004.06666265073,-166.803853781524,586.369242005291,-56.7108168147829
710.685899772496,-24.3564050395516,1786.85762222817,-115.965331621193,878.209943334621,-106.000325131363,2300.01919728858,-321.495094212613,636.63585299767,-41.5697056770115,1831.43906194114,-240.895452627055,1272.31339318571,-118.306322093176,1568.31574859729,-275.402513584613,664.129545310413,-103.527070512542,312.957132007706,14.480858026244,401.3654263915,-43.1196974354078,880.206896636147,-86.1917017991829,305.534568559829,-16.7695263728217,2027.0380307284,-170.746924878601,596.280278504188,-58.3606597233289
703.372600874822,-23.9126179247987,1765.71306267048,-113.362639517858,872.048883712687,-107.211391108003,2271.99898039438,-313.964988040765,624.940099761311,-39.4994330690756,1810.48020638366,-236.668003071108,1252.55874974909,-113.910971573701,1547.77862935734,-269.289945379013,654.462187795665,-101.1396014815,301.757782807165,15.8288834803376,388.598296728006,-40.8603062119709,847.662469890882,-79.6836673555835,297.282482521848,-15.2397018972573,1976.94770334429,-161.994386572423,570.185957097152,-52.4281422391279
700.609971700576,-23.6384136489853,1751.1826323724,-108.394770486634,863.404457167915,-104.286171209806,2260.1509188849,-310.868646225638,621.883423770323,-39.1219344194548,1801.09916090362,-234.099504933343,1251.20974736933,-114.036927609874,1542.36880219552,-268.639080955999,652.295998516225,-100.364385542969,302.639422332726,16.0246489795637,390.066183519681,-41.1455080661579,852.78210861307,-81.2726987314747,297.539646859719,-15.2805625356659,1979.26565666837,-161.648886451156,574.576658378566,-53.6792622869692
701.642402129177,-23.1442590242525,1769.00146437447,-110.450117876774,869.156466804861,-106.619710306663,2277.30545800607,-313.193901031144,628.419321840825,-40.2648368393552,1807.85887249258,-234.938404974541,1261.73806792007,-115.107783908912,1552.94927515514,-271.745543166588,658.122342999746,-102.023588824015,307.894072422529,15.3442379333486,396.119160213272,-42.3145168052514,866.926008619025,-83.250450067195,300.998435500527,-15.8967002408152,2002.48214941909,-166.392336640232,584.074523175504,-55.1853945002049
710.113477007701,-25.4159012097685,1790.25079140895,-115.189373087584,875.240276754576,-106.377239361446,2307.5531756709,-325.345078985878,637.256954597226,-41.3293065437512,1826.93897992921,-238.491666388776,1276.1951759178,-118.653732610098,1566.02338587025,-274.574544744955,665.144066445214,-103.477819990762,314.032682643307,14.9377551651057,403.277449995926,-43.4669675415886,885.31002057962,-87.3382571074712,305.414852649649,-16.4810304069216,2032.78213599014,-172.712967701195,593.969706958047,-57.2769688732074
702.014939070893,-22.5166074515072,1770.25937287648,-112.897638807912,868.928312658135,-105.784232646091,2272.72803399295,-312.580609606231,625.869512476273,-39.2106762651661,1810.01700443523,-236.473815305624,1258.37979338286,-115.253908856227,1550.42626737509,-270.414784394487,655.62250090437,-101.459929353594,301.880217411983,16.1118521857512,389.430952396,-40.793024414027,849.472940545338,-79.9801937310464,297.35807990161,-15.3232213736761,1976.97592371986,-161.625487992941,566.650475569996,-52.1559725039343
693.35221027167,-20.7314497126896,1751.87530980496,-108.560173027836,861.148940154475,-103.399869640207,2250.99817184112,-306.123659711932,620.742101314811,-38.8709106844424,1793.24821633581,-233.074030526284,1252.85353762185,-114.187014628945,1540.78368034712,-268.415108701482,652.266276487417,-100.566999382736,302.612003127472,16.0829056946772,389.792161339088,-40.8892589150795,852.232591466573,-80.6246064936922,297.003011796462,-15.4351378373794,1978.13836319807,-162.134863881542,568.934098007769,-51.6574051331829
695.747705919937,-22.7872112963043,1768.4610705202,-113.433095756037,861.175768690958,-102.611615231033,2282.70273423602,-318.272056880127,626.604002009214,-39.8288930642167,1798.15482776915,-232.57698130044,1261.02682957797,-115.16500259449,1547.90361700221,-269.962514353396,657.034265482016,-101.328670102183,307.396257108258,15.5841961699034,395.857250062264,-42.2079483643349,866.623891980807,-83.7359870528016,299.928706667395,-15.5706178849178,1999.4913322107,-166.280425438083,578.578500805082,-53.970545307285
702.387450786025,-24.1593711802446,1789.12717460712,-117.224936380735,871.658359798976,-105.733078788199,2296.8913366743,-316.641439435811,634.498781893992,-40.9655337693085,1818.7253950112,-237.804443595486,1277.48341065799,-119.359899440368,1560.76762493888,-272.675961458688,664.171266381157,-103.055625990529,313.194821014083,15.1650340085826,402.298073167552,-43.5500020794657,881.810178877283,-86.3316455502742,304.265026435403,-16.2920080301578,2026.08132009013,-170.465450082246,587.669458421066,-55.3949196649851
703.777715866083,-23.5690851833425,1785.21876662165,-115.734481819127,871.056373992095,-106.553090775585,2289.34485441324,-319.079466348787,626.469823404899,-39.5167818227498,1810.45290754073,-236.832371385175,1266.30317713534,-117.407843318209,1553.35420261868,-271.479035968169,659.154573955278,-101.975506321616,305.698061456513,15.3277464333804,392.460330437683,-41.3665763415867,857.175793580752,-81.0517368972355,299.188419133864,-15.3876599796902,1988.78227170678,-163.897069515812,565.336989937582,-50.9983265564331
693.464943614685,-21.3199477311979,1758.7758085526,-110.564118995066,858.005216162065,-102.629348849435,2271.0025950332,-313.908572353873,622.198394558212,-38.4465921857062,1797.31387874872,-233.951587027331,1259.1764080537,-115.971093468861,1542.08541907447,-269.142671700825,655.371499303555,-101.22148983864,304.596165805812,15.3049040576742,391.561211371745,-41.2830648561515,855.576342335402,-81.5981358148442,297.065097943693,-14.8709709774714,1981.11610298659,-160.9778351077,566.040259735324,-50.7913522054944
699.761719018228,-24.0781013303868,1771.8302510848,-111.604143734132,865.226241369926,-105.988027964376,2282.32587599514,-317.107133533795,628.131798206187,-39.9775368759519,1801.95997223154,-234.325138354785,1268.97545158848,-117.098313653742,1550.3167522162,-270.525885729037,660.028726146994,-102.207635581396,308.749983021379,15.5307396938147,397.213927834288,-42.6489835293523,868.000207118381,-83.360772882934,300.616294459266,-15.4800763888256,2003.58628303592,-167.08525730938,574.860067991909,-52.7720682911867
702.920869905768,-22.9912697125502,1795.47084052221,-118.448673334551,870.739279536477,-105.125305501476,2311.93969757511,-323.262378940148,636.17375786388,-41.3783338756921,1824.96201761052,-239.87814558964,1284.09698846222,-120.614387445004,1564.73384732461,-274.626373693254,666.59442594949,-104.088141653725,315.986765663328,14.1671192569875,403.934860436786,-43.6972023883487,884.348879350855,-86.4033755186338,305.771860897097,-16.6168588613407,2030.28665357479,-171.644768693225,584.346951523837,-54.6198035020343
697.537606492392,-21.1121066868978,1775.05580241081,-112.897568411775,863.638244679358,-104.208788909929,2283.65344892626,-316.515637086832,625.125550938819,-39.4004562576002,1798.80143754719,-231.846443225717,1264.35980116503,-116.123910121155,1546.44299490025,-269.420308746262,657.111812920676,-101.803957991649,303.662990548711,15.5763949975808,390.778047115765,-41.2613435364841,849.789057707962,-79.9420527969398,296.997345673171,-14.9798830596919,1975.71386557203,-160.952938918788,560.21626763345,-50.1559153737253
692.952417985578,-20.5945957162709,1767.43493548992,-110.731258067065,857.640265515229,-102.999179829752,2275.17401788982,-313.083769752676,623.888844502821,-38.9842437688594,1793.93744943947,-232.190372016609,1266.50434573781,-116.625703196235,1543.81520465071,-268.823912653186,656.221576706542,-100.852303136419,305.690880500703,15.4824657308272,393.779573219166,-41.7989908336028,858.472637702243,-81.5546740456718,297.9452561364,-15.0114008685044,1986.82598013498,-163.802616911201,565.029405096852,-50.5125189660073
697.32557971589,-21.8471514029471,1782.94603450205,-115.678132076443,864.74627817218,-103.270859634171,2299.31913313092,-320.934458541781,631.778459695777,-40.6681995203979,1809.06255143061,-238.427215793434,1279.70899722587,-119.952401627536,1555.83487388834,-271.651588269475,662.948926551443,-103.042748913595,312.113132011138,15.125859095666,400.207277704925,-43.0099837433852,873.359271922733,-84.2061207588193,302.052013364205,-15.3847254622346,2010.69651237315,-168.237198986986,574.333552990018,-51.9355194571086
706.704164633445,-26.1170545574213,1810.18613533356,-121.930708907113,876.764293944613,-107.213485240872,2330.5231392184,-329.435725057602,641.683924663344,-42.1132042539535,1833.51017469096,-244.939835723784,1299.30135872956,-124.80466673633,1572.38409953246,-276.072415093028,671.71611093412,-105.118600508126,319.795008728107,13.5275741820493,407.705767527727,-44.6527361128503,892.090121973709,-88.1328041972454,307.318995057555,-16.7227681602753,2041.07147392292,-172.415834587791,584.940735338306,-54.2193940338971
703.503158109887,-22.4986689747433,1797.72496477246,-118.884547016707,868.515969892254,-105.387442169505,2310.29128851716,-323.527158567327,633.379615187777,-41.1010532013093,1823.98864665588,-241.874106411704,1283.72356166409,-121.243070973702,1558.63460186681,-272.034452389334,665.133455124903,-103.810942624677,308.924603349092,14.3561311566448,396.028003653463,-42.0774665628197,860.960785256626,-82.4672223809322,301.087169454416,-15.6044471427866,1995.148159034,-164.032858941506,559.449278821201,-49.440768693414
697.625824380965,-21.7692009836991,1779.85379960313,-115.974551010946,862.308929942641,-102.733269824812,2297.86677885636,-321.917706431165,629.92054503793,-40.4406651913221,1811.57365775267,-237.636028157336,1280.13801630516,-121.080290928382,1551.19671018845,-271.051058326706,663.23483182121,-103.491741935115,308.371836801655,14.699399643972,395.61357567351,-42.2421047958996,862.869574419389,-83.0394008345447,301.085275668953,-15.9206533280177,1994.68856273858,-165.241116931626,562.060338919808,-49.5174813471147
706.522791661026,-26.3528741776911,1802.61429725202,-122.12339732496,866.959388222273,-103.406051875766,2316.70734702053,-326.217967991892,636.745588773964,-42.1021984687789,1824.61424112048,-239.966444049118,1292.67976839525,-123.47103709137,1560.76388846881,-272.648598596598,668.143030589261,-104.424129494986,314.3886620436,13.9510730546276,402.45326633211,-43.8176493410967,876.259142477873,-84.7102735676125,304.123234383057,-15.9245184525804,2017.36120571207,-169.001011605259,573.155471044139,-51.8565653037292
713.451009604735,-25.3515401061524,1823.8473575979,-126.229726431756,878.798026034528,-107.697505495295,2346.27118675881,-332.489801922382,645.906580927497,-43.6231140541217,1844.23486332261,-245.712514432589,1309.75485484489,-128.031256803077,1574.39860758505,-275.849893680423,676.202510758891,-106.446114079638,322.16412185388,12.6828297271681,409.581586794168,-44.969850302121,893.756684972364,-87.8595987311346,309.746853460027,-17.1709666712171,2046.09394637092,-173.766292072535,583.754975301129,-53.6881663771626
722.654841298531,-27.5504514549732,1847.06238701052,-129.73969647146,886.609223329885,-107.417064596747,2381.78233114133,-341.122712831826,652.198684103941,-44.9622359577968,1854.71523810786,-249.310857161588,1314.9894083666,-129.280149754898,1580.73488425969,-278.216761346813,678.345764743055,-107.118149841502,316.776962203279,13.5407416425996,403.972173608208,-44.0744293217935,874.651486415288,-85.0217543130444,307.322150637578,-16.8235120874745,2023.43227224732,-170.082854025118,566.395631274926,-51.2321136936326
707.46925227229,-25.2794471857029,1798.16646264965,-121.643904471116,868.787677402406,-104.224073519143,2327.88356004006,-332.564417097563,635.492700649051,-42.1585596279878,1834.87467343476,-246.466079572179,1297.89319765873,-126.456374315775,1563.24167110977,-274.603256472848,669.936249925406,-105.341195753584,312.790424169872,14.0297440779372,400.437655476133,-43.2444437655933,868.972763015613,-83.8391745538988,303.966199529682,-16.3562046235287,2007.28580281718,-168.005097695366,563.045876344833,-50.3075094681809
703.531530168007,-25.9088618093864,1784.60545433944,-121.224867430295,866.940984807675,-106.932634172376,2318.67211295196,-333.115513674446,630.878667381276,-41.9101425550076,1828.12869145929,-245.563329942866,1298.61068004705,-128.10209338913,1560.68560627986,-273.85105806333,671.833092413256,-106.888829772029,314.589065301736,14.0055225707918,402.886539795491,-44.1233446432576,875.558575709208,-85.3670862297336,304.226903028483,-16.5765941219876,2011.02486991396,-168.422129543883,572.150515492778,-52.604323154407
