670.991347472287,-25.1857940558294,1739.84778259275,-127.160703380725,850.859420537159,-107.149569432255,2295.20181788053,-344.66632832964,627.09937416133,-46.0844852163694,1797.32561297973,-244.91991610788,1292.92833818154,-135.629488216668,1530.31543092277,-274.962408148115,653.018355413747,-104.547781333327,319.774200955729,10.1551446465587,403.040223056867,-47.7080190189077,854.778986130879,-88.3882285826921,300.968194687408,-18.9559350306848,1935.97264650972,-161.763902611508,602.276121488574,-62.7565891999437
675.705451523677,-27.0270326774106,1746.59075251531,-126.303571144867,854.596833146798,-108.285164365008,2296.75312116021,-343.68163606734,623.151729248677,-45.2174933373044,1797.99505801773,-245.461777039768,1282.96602818085,-133.102324741128,1522.74685157677,-272.39108274621,649.971011115852,-104.691462897399,311.870459743161,10.5817450652267,394.831111573806,-46.1688197498133,834.523665667665,-85.1628809573671,295.778428493183,-17.947034778595,1901.01672032191,-153.880972687892,579.980392116879,-58.3506120388233
663.074333192101,-24.7987810337141,1712.1819352952,-121.962772538978,839.556873206739,-104.365165409597,2261.96302394812,-336.423228099547,617.291448103932,-44.1878143911373,1779.75571944048,-243.550888352367,1273.55657602076,-130.409801006586,1512.30397669852,-270.521979825939,645.591749700062,-103.588557122404,309.540426163557,10.6254170154758,392.212174098067,-45.4037559116584,831.064827686735,-83.6116071402139,294.089828422097,-17.522397796664,1893.37185216111,-152.621740245896,579.309936695658,-57.9959230418132
663.700390368539,-26.2282545763953,1722.69544183443,-123.613319324487,843.031353577279,-105.416509848663,2266.79778459649,-334.532644676954,620.271070161845,-45.0023651925871,1783.2523311493,-242.042646284649,1280.22877836848,-132.570907606444,1517.95771368202,-271.248208683302,649.457666850125,-103.994132022051,314.356451111873,10.1846053807909,397.426972965931,-46.2776683607934,843.805711629387,-86.0535217386228,296.932229705732,-17.7140884769758,1915.18052828988,-156.444486089109,589.25897153024,-59.4345518936992
671.988892955844,-25.8827260522125,1741.04642002369,-126.431445588839,850.295155726314,-106.349684325605,2297.45312138817,-344.127020184148,628.186413916143,-45.7456115176025,1798.82882218599,-246.15861872816,1293.50210121714,-135.352391862738,1529.70227806097,-274.382508190285,656.581930411323,-106.311452969107,319.65073104801,10.169731320067,403.769324003462,-47.7675566405835,857.604649162532,-88.7069664272489,302.070785143368,-19.1681748675413,1941.11128516226,-161.281633327494,600.607094180062,-62.0972417437482
673.828425107278,-26.4572146141584,1739.08566220345,-124.172985587644,851.866034180305,-107.735062785932,2288.51353720326,-344.036450684433,624.431673462097,-45.3433501240021,1798.51983628453,-246.299226624535,1283.12949686484,-133.15745400713,1522.87022131341,-272.301184535051,651.10364047616,-104.716364608785,311.523215681786,10.8067408981184,395.499651756028,-46.0621606683125,836.241680415069,-84.7957403341687,296.547138854556,-17.837280903341,1904.91369952002,-155.322201390695,579.761821418067,-58.7361879053872
668.480485389355,-25.8224167931691,1724.39392976942,-124.392571173033,842.294391409632,-105.760522556943,2273.08471050718,-341.145055953611,621.404741017266,-45.309774081187,1783.05642095398,-242.337998682464,1276.56418216613,-131.984853635846,1513.59516429054,-270.000872094126,648.571500910932,-104.321056221063,311.193701590228,10.6449140840194,394.500898737898,-46.1151344961402,835.180632914162,-85.4948905799975,296.433285198368,-18.0242966299907,1900.56362116313,-154.531945156007,581.737256569809,-58.0978893465007
670.615897073032,-25.6794256572247,1734.39440257809,-126.79616380162,849.496124969675,-108.621559469523,2281.9430356853,-342.052350028225,626.465559587473,-46.2718671342665,1788.77149650747,-242.582789075634,1286.31793951794,-133.88350018002,1521.90754135238,-272.116352292537,652.355396810915,-105.192275099833,316.397560395899,9.97948943584604,400.960941117425,-47.6847435671062,849.341124614197,-87.9834297943697,299.67629888711,-18.7176955015943,1922.49867400035,-158.086327148965,592.620627046327,-60.6400117798219
675.439663844559,-26.4316884465762,1755.50781707055,-131.281008764074,858.128612414493,-109.484432176995,2311.17684452062,-347.604430480079,633.695587092031,-47.1068963198097,1811.79442245968,-249.372975566666,1300.51903403512,-137.416059199991,1535.06332907382,-275.665699470248,660.094902960809,-107.334618704505,322.435914054115,9.28479382716161,408.276582867643,-49.3938528352534,864.891777129701,-91.2733472250091,304.678528972707,-19.620625723275,1951.5872404936,-163.727150398294,605.067378007956,-63.1141693934412
670.480108081752,-26.059186602717,1734.79955169647,-124.601392827335,852.655570993755,-109.083648095436,2285.63814144982,-343.135460263916,625.029466131616,-45.2834811502488,1799.05989081661,-246.960010872591,1282.49499211995,-134.061697704204,1521.33544330306,-271.783139903789,650.978381667218,-104.79241051716,312.138262785259,10.5058074924269,395.888582370669,-46.4594438287767,835.9304782612,-85.7274394159398,297.597730811905,-18.7166911491251,1902.3633248842,-154.840489147815,578.370980041765,-58.4151659502798
663.664486212359,-22.9692440395493,1722.49604145376,-122.771599112486,841.070307105655,-102.946291927416,2265.35010104163,-334.605037226272,622.141658306881,-45.7444445182827,1781.81813722141,-242.666102018742,1278.33586483389,-132.904370027524,1513.79873380324,-270.292230652126,648.549609559437,-104.383094235278,311.480997376428,10.8035000210352,395.62488617092,-46.3829281069262,837.588598667974,-86.3207736910857,297.395434653544,-18.4812210666023,1904.67721564721,-154.845085829406,583.240996843374,-58.6980536268132
669.818093644589,-26.0867701918247,1740.98444781109,-127.704301516898,849.126936918288,-106.645729584636,2288.38708400999,-343.200398057084,628.151721600305,-46.7304836884811,1795.22188674698,-244.92681368673,1288.27915758271,-135.141722037152,1525.11326660011,-273.289092540142,654.399684416701,-105.710563762859,317.29745397213,9.96759613132884,402.435469562525,-48.1251017816641,853.273100200071,-89.2064149690548,301.607247756944,-19.4242336048985,1931.26604892237,-159.610185258314,594.033198062386,-59.7059325807996
678.730708681566,-27.8246405477001,1761.54066612677,-130.765853449757,856.214599795461,-108.487517743303,2311.3931065569,-347.523178590816,636.347560861261,-47.8876804867331,1814.49078254379,-248.868733924204,1302.64589045374,-137.547874227142,1537.03491038157,-275.825938292749,661.272501563319,-107.148203409928,323.947552512926,9.1472588673634,409.476314910873,-49.2311993341615,870.754119838751,-92.6197912829952,306.177997720243,-20.0388751696226,1963.19813474487,-165.159413742495,605.957288515205,-62.318509196032
676.60929766639,-27.445952389244,1745.47378391354,-129.858219637263,853.975032723149,-108.316686492073,2290.73380472907,-343.580681885293,627.585931018715,-46.4232184934892,1802.21066289931,-248.150471491577,1286.59835362367,-134.554628673701,1526.18873414973,-273.373181930387,655.057112701123,-106.379156828754,313.799086772526,10.0942370979433,399.030626366379,-47.5723802932683,844.760269680497,-87.5840381278771,299.740395533825,-19.0575104767958,1921.35410792964,-157.813027477369,580.880818149731,-57.9088741779144
670.8137218805,-26.9471157085427,1732.74582406858,-126.492608980425,845.529589944828,-105.581186284535,2275.85817138525,-340.900070162017,624.160046195948,-45.7374967823785,1787.40746305146,-244.553168284861,1278.65357093185,-133.431203145253,1517.0599951035,-271.592279891657,651.492797474738,-105.273220574772,312.873130398713,10.3826478920077,397.831283689529,-47.3291635230254,843.658597601131,-87.4418987063164,298.384164055947,-18.8279260960926,1921.12472526089,-158.975644411409,584.527668497046,-58.5464789501596
671.996346527887,-26.3295071809751,1744.06518048205,-128.356925461765,853.219972760572,-107.56154526146,2291.83961790263,-343.613470903442,631.167291338128,-47.8398414218566,1797.76094337729,-246.605439272116,1287.89652683545,-135.135680634364,1526.40974199693,-274.351022112373,655.589741824193,-106.621242154891,318.76811760153,9.30617772638135,403.084211005482,-48.1628660281228,855.894984592793,-89.4010661667974,302.257815829138,-19.7158818996331,1939.17908191136,-160.544783684575,594.466192722155,-60.0226104309446
680.665862783158,-28.469875267663,1758.31381687963,-130.519731024881,858.611050713676,-110.071165784885,2312.57344253367,-349.159570744341,638.397702038364,-48.6105234100881,1815.080093674,-251.089118242455,1301.32162443505,-137.976771834891,1537.19441699379,-276.430466298842,661.154142958759,-107.976822828039,324.134404395001,9.1446243936651,410.437348756258,-50.0837187788941,870.142021900609,-92.0931719676478,306.584646153551,-20.5646866786066,1963.47431482156,-164.481720775755,603.680182257721,-62.523450845774
672.638552167709,-27.3143635246378,1734.57838289361,-127.205042652029,849.273355669999,-107.432319519628,2278.26120811252,-341.632833291988,624.214181822015,-45.5939296903481,1791.4005974559,-244.956825563086,1274.86731520855,-132.324321468145,1516.47813622279,-270.492650242799,649.286936946186,-105.460778018266,310.898809450992,10.6757307733025,394.513241282242,-46.2686298735119,837.223001321775,-86.677254349174,297.136070187866,-18.5964437426509,1911.93108654934,-156.661580310299,578.857356158019,-57.668831538707
668.19766873208,-26.8818708133251,1728.95849455077,-126.375968980852,846.948825083597,-105.494460947751,2271.3966034036,-338.577947010753,622.420073468201,-45.6393900397885,1781.0092401024,-242.428954530352,1274.24716229765,-132.501238837701,1515.19529601876,-270.695541527125,648.448371519129,-104.591251623739,314.0645323124,9.90128166764032,398.083464676569,-47.5721471848639,841.867829639033,-86.3820383856727,298.073190864436,-18.6120597226093,1918.99525259331,-157.960273382382,586.505871343486,-58.409990991839
675.983992460637,-28.4473569374977,1744.3290980821,-129.520989863926,852.061356167006,-105.536748109748,2288.31317749853,-343.126006591366,630.215838619478,-46.7740642964937,1799.20165433165,-246.645104466257,1285.85484033938,-134.727098085336,1524.75462438004,-272.969559401131,653.621666159571,-105.749704064527,318.818425377122,10.0691894207187,403.032957650101,-48.3792988481794,856.166901349701,-88.8581077973683,301.672356674052,-19.2556823013549,1943.69004172104,-161.539119584314,598.490031968244,-60.3742496908257
683.211057667997,-29.0378999138039,1766.85965525225,-132.095863528533,863.023715648843,-110.284625251025,2316.24567309846,-349.082193981567,639.338695307479,-48.6690217049674,1811.54237617959,-247.930574257573,1299.87235598768,-137.747426475563,1537.59285256008,-275.969437218931,660.149200421,-107.355166267128,326.08510841757,8.79891802294571,411.248463938258,-50.349209388235,873.516785493908,-93.5459781150755,307.236148312356,-20.3834861048078,1975.01732792557,-168.240243872125,609.862294153249,-63.1590532999716
679.509882027794,-27.2462873237103,1751.06018777447,-129.564672197365,856.882124709517,-109.184086931903,2296.93359715602,-345.783917369016,630.163337746781,-47.4002044210667,1797.76132702986,-244.855019728096,1282.21314210335,-134.688990104274,1524.56537542137,-272.444760079647,652.60920522452,-105.790284132351,313.826670857333,10.0841242853791,399.864530481707,-48.0401395902526,843.515566962907,-87.1107271029212,299.346872966727,-19.0140504856111,1927.27131651439,-158.759991124564,582.644726097348,-58.2739233718192
669.501402129957,-26.4217147450472,1726.63095015125,-124.639713646283,849.115518548346,-107.195817793532,2274.13356593246,-340.486864036016,623.847902049463,-46.0117552557189,1783.5807372983,-242.994529911751,1271.67435265256,-131.604490657287,1513.72314634115,-270.364056188304,647.282432692006,-104.255258223535,312.240437932875,10.8066487378917,397.310589962548,-47.3409467989829,842.136880179015,-86.5344137111272,297.715616394163,-18.7250277997414,1924.36019999779,-159.204061039764,584.879959939214,-58.0399461686054
671.514766517254,-27.1003361657408,1733.76752370259,-124.728926698691,850.383445519265,-107.151002760942,2280.56360184205,-340.065841156338,626.973263072393,-46.5067729181583,1788.46475937365,-244.404235016586,1278.80756270338,-133.325424200125,1518.3667693402,-271.35816537693,651.883057602732,-105.711814524964,317.17889243083,9.79738028263305,401.829016614306,-48.1793438927304,855.330091439877,-89.5251214117829,300.716669449606,-18.9784837596154,1945.36047713313,-162.4959245646,595.078071680141,-59.9418778353517
677.835507974121,-27.9139524479047,1753.90570780242,-131.033928339593,856.998796608619,-108.718676609248,2301.37091777534,-347.004753055947,634.172530334443,-48.150537267653,1801.1592093081,-247.9443003561,1289.03284198045,-135.339643213159,1530.34367608543,-274.49005672083,657.623208862513,-106.930173339251,323.058202682844,9.18241390388447,407.450511564572,-49.287527776863,868.995936478362,-92.2875992566995,305.234185489981,-20.3565596868014,1972.43844022729,-168.397079622541,605.71345385798,-62.4284514199799
671.308661892305,-27.4042190699839,1738.46011210095,-128.521645466507,849.577956371652,-106.337886160953,2273.36481813917,-338.293590579557,625.304807258583,-46.5618915502877,1787.59901306015,-243.255308037901,1271.27459328369,-132.219626360002,1516.20767503981,-270.214195752512,648.023409212474,-104.681756128242,312.102530885705,10.7569950981381,395.855912143312,-47.1291101643225,842.135479286098,-87.6202092116211,297.093945270844,-18.3238550851363,1923.91931192339,-158.841067915478,581.359965191938,-58.1132099922358
665.531268242257,-24.3470375284158,1719.4384983611,-125.465133952715,848.091470076342,-105.601927966968,2258.52239315745,-337.337004461935,619.543383575093,-45.4028550921265,1770.60346486561,-238.985779851464,1261.09001187001,-129.047571425724,1505.8045313078,-267.83876182032,643.017807193692,-103.278400618791,310.768779327489,11.0899590905361,394.484919017503,-46.845573859411,840.101080498754,-86.6180919387487,296.223348559306,-18.7937061932875,1920.79604982981,-158.387638616992,584.878874520637,-58.2461173078777
669.721112237125,-26.0319325092474,1729.49359199445,-126.981205473853,852.989390956156,-108.270618741541,2271.6601672088,-337.323986463233,624.891582538951,-46.4701174149883,1778.38582470371,-240.105001123252,1270.26444369487,-131.492532614358,1515.94586202526,-270.67491999475,646.135791058802,-103.775451127468,316.521646877348,10.2290440604996,399.077811055432,-47.3688629573744,851.968509154618,-89.2530054525958,298.722016815469,-18.7678610695058,1940.58913017662,-162.035645025464,594.750452090493,-59.8871226036465
672.799460515032,-25.9161413062105,1746.42399983741,-127.794042679457,855.931105505705,-107.833948188699,2291.85555481455,-342.433213998513,632.551194168602,-48.0467307695063,1793.46924776516,-243.267479556724,1280.34573800144,-132.77933014035,1525.45433720782,-272.857492838172,651.471589864642,-104.805205706592,319.077947272074,9.93612777653766,398.974615343808,-47.7605569956639,848.276453058285,-88.3282696580573,298.078764474971,-18.7142641732788,1928.22260244581,-159.427471943577,586.187212850129,-58.839832593497
663.755218406457,-26.130252512003,1703.91620136587,-120.737386145238,841.98273684995,-105.888116230284,2242.01237887497,-329.791994064454,611.613919058133,-42.88235796387,1759.81048141594,-238.030776802291,1248.76303627612,-126.364394864941,1497.13136806272,-266.186723772844,635.816788424413,-101.202510325467,308.665541660867,10.8203457107502,389.572172394385,-45.7173134283295,829.857205968659,-84.4152323621138,292.552831463489,-17.9323468942917,1901.17984527971,-154.864193705595,577.756111962174,-57.2123404887693
659.494997551558,-24.4391184156917,1696.10426460962,-116.695794216532,840.194453928852,-105.482813254284,2239.15959479484,-329.212003907841,611.921924981404,-43.3902115281746,1756.06174547355,-236.037320497713,1248.16376006145,-125.230813715776,1495.05855722581,-264.835786001055,636.168038359931,-101.404051930712,310.064936063757,10.7320183133955,390.140919023926,-45.5084325443094,834.128125460028,-85.1104033136076,293.59210332055,-18.0309850831814,1908.15858454394,-156.024111993789,582.996422235397,-57.0816518283332
664.464481244554,-25.9777055493278,1718.00790972627,-120.070806792238,843.048976096279,-103.980307026083,2260.0466701692,-335.557984726166,618.33026414762,-44.7630057248423,1763.41232099784,-236.272808427905,1258.13580784256,-127.224227148646,1508.44014819643,-268.823118657387,640.544774112872,-102.163074455384,315.201986661414,10.5764357636481,395.577129925631,-46.4236766432519,848.080910884171,-88.3261422524328,296.864846422298,-18.5715363037045,1933.70453739013,-161.685188603403,594.748269776275,-59.8962119625149
673.393932008458,-27.7801491188037,1735.71393673224,-124.598081426434,855.061655104457,-108.329320632936,2285.98419327819,-340.40700393125,627.292017053946,-46.8445431481758,1783.60447873006,-239.61638182019,1273.10746101687,-130.612574500326,1521.29935239853,-272.037982562276,647.575575623907,-103.903136833953,320.793096664583,9.78845982708417,397.706204591959,-46.8864495665313,850.23846414822,-88.7851105604292,297.454597534624,-18.5194286984884,1929.79051912837,-159.641886633077,587.968178290478,-58.8310114287402
659.287100221064,-22.7420642753301,1691.7670645374,-114.640442652708,837.389537116721,-104.16662434569,2222.16806218079,-323.571165335138,606.500157087996,-42.2930459383945,1740.4088955814,-231.601201916772,1237.46839013471,-123.22262247236,1490.22691044832,-263.681602678617,631.466557034588,-100.026561112565,305.302558886712,11.7568441238397,385.53719470557,-44.7455794688185,824.764351089411,-83.2795218801355,290.134630096084,-17.2177002258717,1895.83881163472,-154.398614630024,574.43385716741,-55.9500193389869
652.728912178765,-21.8753180678987,1689.06192392845,-117.738784775463,834.014523924032,-102.012519871383,2220.87489109062,-324.065660357067,605.955664205821,-42.0782013636053,1734.99419062013,-228.858535262784,1237.16648880124,-122.591568953454,1487.73271533615,-263.621625457496,631.043845171807,-99.8729812096194,307.656711904647,11.3457547075805,386.324032110726,-44.556045212483,829.965808051569,-84.1240500317641,290.340099286777,-16.8697093329791,1902.39984195056,-154.584874166921,580.077507493698,-56.4545351820307
656.821997753589,-24.4425593109934,1698.12731716806,-115.41331405137,838.881984518398,-103.777792299168,2239.47058754946,-328.10185543409,611.990917534027,-43.4298916863575,1746.71957511651,-230.024205990654,1248.53863328434,-125.640850106013,1497.04134728937,-265.229137845642,636.375184978671,-100.842134333602,312.552409467072,10.859375566742,391.759252536875,-45.9650268391454,841.972812636618,-86.3434807629531,293.591090369782,-17.4352122853286,1924.94448547831,-159.193465243608,589.617964773176,-58.9052669309381
669.811197604546,-27.9100834802094,1720.31985175968,-122.234368348653,845.422986974667,-105.238554783899,2261.64323824296,-334.800157788921,615.884856679905,-44.0797175345097,1761.97617193422,-239.848548709736,1248.91503791027,-125.726616376123,1502.01089846919,-267.119190312348,636.172075118724,-100.914600710496,307.681640286185,11.785486595231,386.001178513995,-44.5541470114307,828.427407569704,-84.499142144089,290.403834905424,-16.9998331384335,1901.66147196216,-155.007745663325,574.037390760376,-55.6607185335826
649.336555001931,-20.686490554084,1671.1684881704,-108.850143342284,833.021611298712,-103.542196799384,2206.42916377869,-318.324804733502,601.116159231189,-41.199207659993,1730.97451200778,-229.662957672398,1225.46522253466,-119.533261006623,1481.98505271778,-261.788348325692,626.851100877595,-98.681369034275,303.051128159117,12.2609766508268,381.609754321042,-43.4397059589027,819.163767219136,-81.8258725253444,286.713367789608,-16.2944767874322,1883.70268176374,-150.793044106637,571.415957151116,-54.7651233620141
648.627951485965,-22.1200950293557,1677.81255365721,-114.257744209171,827.796776068683,-98.3527674030396,2209.96155114828,-319.533139402058,602.556953752941,-40.5468842151656,1727.4586310323,-228.083264590048,1228.59850941889,-120.109233248285,1483.32620743611,-262.448312071441,626.966162156815,-98.3624024617224,306.61245949824,11.9336434301473,383.622553227551,-43.7375627911901,825.818177791708,-82.8296762129435,288.800537039814,-16.566656763219,1899.05648506272,-153.676732190865,579.118152681012,-56.0709323925893
656.200858183976,-23.2473943315566,1696.78282920269,-116.951029463096,841.368417418545,-105.569286143929,2237.98230950285,-329.813617364868,610.31948291628,-42.5404945110044,1740.25355608922,-230.113240796232,1242.10967775545,-123.396015122242,1494.35852614532,-264.139950932053,633.18986149722,-100.181765723415,311.770584254957,11.3744468037093,389.999691363329,-45.1094278976851,838.769032573603,-85.7953217045851,292.128680429247,-16.9993491131471,1925.11109952333,-159.478652555284,589.72827412151,-57.9786866585825
655.269541582013,-23.9385379461767,1682.47520360239,-116.510376634492,834.850461659318,-103.313875131093,2209.24659692212,-320.361341608012,601.756169104506,-40.8999516794922,1727.74252260501,-225.636448714469,1223.55718396906,-118.930857048357,1482.27688146198,-261.342674284729,625.11002373542,-98.2005196364538,301.650941669072,12.7352541723162,379.063010198515,-43.008520708463,813.342975431567,-80.8391754617423,285.286293786332,-15.7202517907478,1878.04640546156,-150.482387181352,566.929915933332,-53.8974555585378
649.915086430033,-24.5920084707988,1657.12921093085,-105.42239320829,824.624015402336,-99.469099304693,2190.96651099303,-316.586289209914,595.639990519299,-39.451407775102,1718.72874290889,-225.413060464456,1214.60712966377,-116.888381382633,1472.36214388864,-257.944954128931,620.489612546443,-96.8231440594653,301.218546678879,12.1282342954785,377.307204956167,-42.2820759236876,812.677957602695,-80.2454496194464,284.659602444068,-15.876294465346,1876.24175276862,-149.647019898841,569.473271113805,-53.8216505157447
647.897434239403,-21.5547131467164,1673.9019424229,-111.328218979392,830.235504540493,-101.704614582287,2197.9826069425,-317.388527484074,601.792659270048,-40.4458119855189,1725.90907533441,-225.206461076586,1224.86911888398,-117.954863615528,1482.90921854381,-261.717248619466,625.775428854586,-98.5054509477441,306.52831609883,11.7849289985934,383.792989581272,-44.142984197566,824.747077582444,-82.6593106433403,287.86284821345,-16.2473580673729,1899.30976282463,-154.583599252679,580.636669088595,-56.0983318249135
660.670155406286,-24.7083197512012,1696.33913563381,-114.797335886931,841.515275881505,-105.192721578061,2226.65124576102,-323.618083108429,611.032268546791,-42.3808258276571,1743.61559569902,-229.316124761562,1239.8090153456,-121.543887406798,1497.14083126021,-265.134543552874,633.168476458501,-99.7106188186411,312.805587580988,11.2333606758872,391.122575506374,-45.4518981625472,843.442414300569,-86.6344225279897,293.003852773371,-17.0677982796236,1929.67617239493,-159.267422011206,592.359448636849,-58.577237205331
658.339845792715,-23.153130252412,1695.63568415315,-112.090749102036,838.513392006583,-104.09192310695,2220.87679042292,-322.334312440168,605.942361046153,-41.5583151637902,1734.77192906945,-225.954043083399,1230.16747260752,-119.729180560666,1490.15967856503,-262.735789266049,628.566439888487,-98.6056504621025,303.758961993382,11.9695537442655,381.823354369411,-43.2110697654704,820.341009803342,-81.6089858292825,287.239952528987,-16.1630084419252,1895.6812702388,-153.40956925576,568.869631576936,-54.3121154088559
647.134144572595,-20.0920763439503,1669.75348453359,-109.646099387257,830.958350444229,-102.505857555418,2193.20450324779,-314.899641727109,599.059657956872,-40.0921075795074,1725.62071194722,-227.831221487112,1217.9368857369,-116.575553854434,1478.51585920329,-259.965549648062,624.130121762883,-97.7087212595902,301.291673108462,12.5331151662905,378.469060500168,-42.4373761217615,817.638389938469,-81.3906322582347,285.055495693959,-15.6152746971172,1888.50907062701,-151.228528761891,569.428457376358,-54.2137621859987
649.256999576344,-21.8187130287315,1674.68464002602,-111.30975265357,832.24315097742,-102.992781178558,2201.73444411919,-316.209721073465,603.079115835921,-40.8440450501585,1729.67709264056,-227.578406546364,1225.74832562496,-118.612644963483,1485.05594447826,-261.421531809799,626.604792572362,-97.8242350196404,305.379802222686,12.3324719916361,382.695396416984,-43.180239181239,827.525849448489,-82.5234248276853,287.969701137945,-16.0960583839536,1911.2615967014,-155.785311463357,579.235073183246,-56.0862512107666
656.136297869201,-21.9433280977626,1695.34772309471,-114.488193894062,842.291573859345,-104.656052045034,2222.01571840127,-321.234228666307,611.799359045536,-42.4236754251144,1749.77807506638,-231.143821092151,1237.39141547579,-120.740943613303,1499.73403678689,-265.35261319027,633.593894273471,-99.6333976214987,310.869897560903,11.6395061595137,389.270179077434,-44.5436217445903,840.956511600112,-85.1023079221881,291.672819355093,-16.457278007562,1936.39149102469,-160.868588965093,590.195620440051,-58.3029061545585
656.456521468299,-22.7214261551436,1678.09400886604,-111.08769763847,831.00497614373,-101.963768793581,2197.2671483628,-313.9083650609,603.28337446172,-40.7327509425905,1736.62513764582,-227.673655822258,1222.37738071983,-117.664447654876,1488.35775971925,-261.714063911041,626.311218540179,-97.913293557628,300.41339585518,13.2714314645062,378.156514167116,-41.8608988092989,816.057255210459,-81.1428368787874,285.631493323664,-15.5669628090643,1889.88203451774,-152.010895218871,566.187672139882,-53.8711828156159
651.990343957827,-22.5837271179861,1664.44111924498,-108.094678153703,829.152861328895,-100.784269586813,2188.6111977771,-311.068266854396,600.170896544142,-39.7661913904787,1737.41179273386,-229.172188555154,1217.99398834422,-115.34141062883,1483.83077211276,-261.292190384946,623.47971506877,-96.9419844191039,301.042587808399,12.5840549592665,378.630846057163,-42.6145140795482,818.332021605091,-80.9236480190983,285.227232819973,-15.4197077048657,1894.45745877005,-152.14064620945,571.405000772875,-54.3227070202607
657.635441764375,-22.8160913397073,1686.76878037933,-113.060187383982,834.917550112091,-101.717092813247,2210.37497711056,-317.617824675684,608.19828754047,-41.2516991803357,1743.79709689681,-228.96611106648,1230.21064223,-118.145154851823,1495.2691714008,-263.426304126937,630.211114958338,-98.5705333383031,306.091640696917,12.53712250017,384.117318902606,-42.9965728182455,832.602315822602,-84.0305542272176,288.836787451527,-16.2289050599576,1920.60506124852,-158.047125652229,583.552257446599,-57.0066365189673
665.051826952911,-23.3881322521438,1710.78850380613,-117.071779706692,842.719118207885,-103.056892781007,2233.99886433822,-323.044276960305,616.883945051087,-42.222937090936,1767.17577036257,-235.739124273102,1244.9349260077,-121.695797180648,1510.4192109405,-267.987970863268,637.452604844441,-100.340691404979,312.403283128385,11.55356511217,391.142124068495,-44.5035270990288,847.229653506349,-86.4619896258254,293.974294819164,-17.0680227121031,1948.14070445482,-161.906096371885,595.394916961997,-59.4998884567965
663.114899217543,-23.7928426345451,1687.73635299113,-112.064664689896,840.053924460712,-103.583046327043,2210.08461371856,-317.876782013657,608.525167932694,-41.3411987576148,1754.90809189694,-232.110941781164,1227.93128025712,-118.345621067936,1498.05206612846,-264.494515045741,630.156926115611,-98.9431845446528,300.560654242405,13.2167908113039,379.76604429665,-42.3435265868135,819.101767989357,-80.6742235673939,286.500847437267,-15.7637613260302,1899.53655786801,-153.346392599399,570.046184546814,-55.6025108166914
658.737201578668,-22.8870613915966,1675.63319669346,-110.866108128261,832.50822986927,-100.972370352548,2196.16892600749,-315.958967250555,603.272428662492,-39.3579864802486,1742.95534253952,-227.842268816679,1221.78273931929,-116.064454777768,1492.68226506378,-262.832893698009,627.78142211005,-98.2364693188237,300.238315740641,13.3431149430564,379.480687166238,-42.2699051991873,822.509312208233,-81.742459984499,285.442891738392,-15.2263975946689,1903.59191563481,-154.266717938842,574.070585821763,-55.4861650585513
659.295424282512,-23.0115003821471,1692.79318434208,-113.993368594604,839.635823837869,-103.83576041692,2208.12939074869,-315.942720768141,610.703321240626,-41.5096889196995,1753.67636700692,-230.400393539776,1234.21458660359,-118.683413383688,1502.32566666818,-265.212230806664,633.428597290991,-99.2211917584454,305.142548785171,13.0114790940432,385.622498842581,-43.1474263764716,836.731906758621,-84.5493774242254,289.600908892449,-16.0078644105002,1931.02153994908,-159.374567508007,585.539033691211,-57.8525419922465
667.133662287788,-23.5708307850619,1713.2669122528,-116.362587039853,847.561589948236,-105.939664621812,2238.9661315409,-325.070934168249,619.227356112946,-42.5516805266816,1773.30011230002,-236.791613858796,1247.57988318261,-121.517617379584,1515.92217245713,-269.033564081002,640.564315391413,-100.811359599265,311.484761472748,12.1781265157005,392.273059122851,-44.7624039137963,852.540530795691,-87.6990157868557,294.019212571221,-16.6893672191222,1960.76248155094,-164.549320994061,596.48712611856,-59.8681808805155
668.879809560495,-24.6823462491007,1706.88606678205,-114.481612272609,845.090407520287,-104.522194555371,2223.49457249196,-320.514398391884,614.399928757832,-42.5413877562783,1764.77183462722,-233.585917639193,1236.14795917025,-120.051504954826,1508.44050623618,-267.173817059718,635.326649729755,-99.8103126830204,303.301565673288,12.2660915434066,383.581817184557,-43.0032069327483,830.751574578406,-83.0325907336239,289.530557360476,-16.2052512921657,1926.11854245896,-158.281238026178,575.083386864151,-56.2624956336803
664.957525786245,-24.9200238712526,1689.73551233267,-110.624011917237,841.995720056769,-104.646330564031,2208.35284497744,-316.150929447383,610.74703415037,-41.4085381629957,1760.44591259212,-234.494525966489,1229.87963470651,-119.009967877719,1500.03143278861,-264.868765456367,632.949715784538,-99.1422188529395,302.001575705326,12.8324136822807,381.80742872286,-42.4311913288452,830.974089224879,-82.7493959362386,288.167488308522,-15.8104359757206,1926.17494712802,-158.53950659812,577.45622969288,-56.9875159236138
666.383020716685,-23.3031013024888,1707.59834485315,-114.838574389254,845.724823230578,-105.310186093197,2225.85787910856,-322.455530971111,618.357709359508,-42.4270261855448,1764.20771533389,-234.816090061916,1239.13738917579,-119.165066722608,1510.88218114928,-267.836801097865,638.117737455684,-100.475673437548,307.326849850974,12.7010379158555,388.465847843161,-43.6800359292772,846.015661558706,-86.105333936675,291.258331648247,-16.3279717938767,1950.50692831488,-163.546340034372,587.321851174097,-58.6664738843972
675.697829170099,-24.7774553689843,1735.8945600591,-120.042271314596,854.608524395329,-105.774895274515,2259.11606688738,-330.003637407399,627.994578767014,-43.7547529407207,1793.11694429455,-240.142993503255,1254.73821269202,-123.289640134938,1527.4373097868,-271.864656987589,645.353322778251,-102.039611407289,314.273802660405,11.5791210339583,393.54223060263,-44.2580121219309,855.406853368324,-86.8936454424624,293.62404836387,-16.6372856416809,1954.97794378071,-163.366276214792,588.930798793663,-59.2065715930604
681.19956066437,-25.3230065543796,1731.09235375654,-117.501608224914,853.377286940469,-105.230277509019,2233.62513905934,-321.392263263986,617.637347983861,-42.2998017192703,1773.98501611622,-234.970332761875,1230.38093715108,-117.241347143514,1506.86143778231,-266.172366136585,635.829793327096,-99.3960799439404,301.14318254446,13.4743928233236,384.007485455422,-42.5048985624657,835.896567284477,-82.7434391458783,288.23003690995,-15.6290061748522,1928.07069438502,-158.10023215174,576.817891201855,-57.4770391675531
667.854114407979,-22.6984654759512,1712.02249895739,-115.214818926069,847.27903402308,-105.513303158081,2221.99440317995,-318.489291011939,614.601450835666,-41.8988973713744,1760.62900888148,-232.080910448509,1231.3733456945,-118.141197960672,1503.71991640365,-266.270337365469,635.159225220176,-99.1522805392066,303.583897927811,12.9079673450238,385.478972906635,-42.7373697430373,840.836661551486,-83.6823835852209,288.836952860319,-15.8310412974636,1937.98200435937,-160.237151164976,581.259661073942,-57.9293441962808
671.424799278778,-23.8101286918165,1724.14493532127,-116.170384438825,850.912683905894,-105.928801916577,2240.12475697056,-326.804144661203,620.815950007907,-42.7770752661164,1769.01294891524,-234.054811247928,1241.06293676116,-120.042814081853,1512.67477462346,-267.454626271063,639.714314599208,-100.308783501555,308.270771688522,12.854016802868,391.178936712108,-43.7235144138808,856.275051328196,-87.1480398479302,292.733690562015,-16.6282745520571,1964.27684391757,-165.961990416378,591.223105699436,-60.1751020847394
668.262915363155,-22.4220193154421,1706.55784432524,-112.846374838329,845.748846059582,-105.662263513147,2220.26972722529,-321.37200392351,612.599094845152,-41.1163995150291,1757.67727407042,-230.430350895732,1224.1784076073,-116.200062552708,1500.22506338255,-264.898068318495,632.641059750736,-98.79418627951,299.525736958033,13.3900904829689,380.354857678478,-41.6694916947444,832.147908736706,-82.5874274886689,285.96920699441,-15.3443835528122,1918.15370957597,-156.302905347039,569.220156885493,-56.0755867254933
666.278728403804,-24.4015087773985,1701.53145474593,-113.359158665386,845.314283449419,-105.590034851372,2202.63292666759,-313.087812661263,611.332166960417,-40.9465021371758,1753.67273180049,-230.007137257127,1222.90037661291,-115.618707117689,1497.23597416808,-264.578283783837,631.760920013298,-98.7754404557352,301.486836441492,13.3115563366823,382.181138710309,-41.795124567471,836.021475463201,-83.2102983238189,286.744280785994,-15.3685889267795,1928.57154797025,-158.756656523423,575.196264593726,-55.8217316326501
667.691664030135,-22.5525292744548,1712.70217105699,-112.651723954255,845.389472989817,-103.933694497343,2228.770998833,-321.685707753011,618.192471280972,-42.4895716231588,1760.24899792151,-229.086413428046,1231.28471740219,-116.521085251832,1506.20388893443,-267.119895692545,636.846696426079,-100.03298981598,307.49923587669,12.3815252265994,388.443854702199,-43.1869648495814,850.07048381783,-85.7729909085424,290.226684499968,-15.9901175777127,1950.77008065213,-162.726934164821,586.703773701924,-58.9759123210874
677.883308808258,-25.5591989534146,1739.43608987797,-121.531386958371,854.976459053466,-106.984779916381,2250.46307089155,-324.556751878801,626.379101717575,-43.5066990553794,1778.50760083506,-236.568905510235,1246.40229079723,-120.701101493065,1519.42358078607,-269.836569769086,642.55403777129,-101.225736443244,313.773349355077,11.5930519520076,392.681053922722,-43.9900322070724,858.595448845007,-87.4275772879886,292.417384973515,-16.220563843065,1957.09489280377,-164.884896499126,583.749169684463,-58.2644280666678
666.913630226669,-23.3899297482932,1705.99518530248,-114.962150773423,847.674373889454,-107.310256115579,2210.99303377521,-317.771275733573,610.757181503933,-40.9926359651956,1747.41992569077,-228.696258607807,1217.57921912281,-115.304424112301,1494.11539720433,-263.359050610524,628.811228229125,-98.0033202068655,299.152295010726,13.6785266347288,379.448187955061,-41.1302850142739,831.426812823244,-82.3769574149621,286.028437570536,-15.4507106660269,1918.86146912735,-156.600858184699,569.234053626096,-55.4379038251509
660.246895416559,-20.1456291295071,1703.35644535738,-115.135356990758,841.479245057593,-105.665728656064,2205.57048756355,-318.338672216025,611.874944206354,-41.6920524678577,1745.5261242439,-229.261656958262,1219.28160650523,-114.666733148432,1493.81964469212,-264.200724602943,629.245815199353,-97.8987496531097,302.289424818255,13.5799059216439,382.17038837171,-41.8552409646661,838.390078385873,-83.5994114891543,286.233091365838,-14.902311614764,1928.6183234679,-158.545480045102,576.041618560309,-56.2497020435348
668.041033684844,-22.341572751453,1720.92512643911,-117.618663366925,847.563236714861,-104.359355272964,2228.77778560494,-320.784295233917,618.36136141844,-42.565644164338,1762.62376316497,-231.238456960099,1230.67085478121,-117.53595884845,1504.81205540561,-266.232076965571,634.732821206011,-99.1408425870129,308.179624657213,12.4876586341376,388.502598335187,-43.2536514334113,851.889662865628,-86.1921987672533,291.318037651361,-16.3747489564698,1951.81907324224,-162.742908684631,587.647792681869,-58.9821189359234
678.609005112135,-26.1715740750222,1744.29209072151,-124.902876666519,860.149548815505,-109.212937968813,2257.45033793114,-330.610203914374,628.384941015647,-45.0192553264352,1781.4249952178,-235.076618035645,1245.48985680445,-120.777509410217,1517.99402239552,-269.307856637266,642.278999691415,-101.239993848408,314.087638762601,12.0391292621283,394.480249187203,-44.4953411355299,863.301815014532,-88.7947599327764,293.711260829935,-16.4990998471289,1963.72840154372,-164.70715423039,588.482458592253,-59.7260601605176
666.885880008853,-22.6333581349648,1700.39434920392,-113.103019120618,843.284670041383,-104.430352971667,2202.27175408842,-311.430688427984,611.454275988785,-41.5108204727783,1750.58489378225,-231.22370224337,1215.20096760709,-113.896311826404,1492.71635439543,-263.319171135402,627.366013859845,-97.4695246594029,299.481098628735,13.3766909858715,379.622514018176,-41.2638938017901,830.442866969419,-82.088872943271,285.759489280899,-15.0967409192786,1919.63494333465,-158.258779984464,569.279806239397,-55.8506433690789
662.350539156735,-22.3855665376939,1701.06415901061,-114.899431154188,841.533946196634,-105.94712042373,2206.11014593678,-316.813596110738,611.291434970478,-41.3637504741446,1747.51705770359,-229.775334905938,1216.53979286935,-113.83989967914,1492.34582494032,-263.867412964719,628.479953550251,-97.999020578501,301.414815552901,13.4074288754342,381.969418972321,-41.9724700625149,836.63695530729,-83.1505095151774,287.078391441002,-15.3905659579189,1924.75772298242,-157.279265201717,576.591925450195,-56.7385799311153
667.130281898219,-22.6728776695701,1714.20485713942,-117.141100981063,845.820116025017,-105.220548776393,2228.02397943906,-321.566439723733,618.649330994056,-43.0890414506584,1758.53443654256,-232.753629532712,1229.27102724162,-116.918501144284,1501.7229347013,-265.780848225976,633.82520815609,-98.7102843022828,307.629048725643,12.9970830122463,387.806999066367,-42.89105073954,852.158025203134,-86.6574572711123,291.035195799446,-16.1200715176892,1952.59865432971,-163.409671630536,588.643818534383,-59.4248996470191
678.4111312565,-27.0827008974801,1744.07216321123,-124.087070302103,853.619326232803,-107.082463589183,2252.62387025936,-326.662230778927,628.084355626603,-44.4014028056771,1780.81909827224,-238.191044113292,1244.21273882889,-120.413753540904,1517.12946921784,-269.391635191244,641.30548096297,-100.371415681221,314.349443013747,12.1936816895789,396.093042423434,-44.7823770345874,868.61433760678,-89.9963102192425,296.170247030996,-17.0998113010994,1981.50810702066,-168.596394401424,599.139542754329,-61.1480031809693
686.35497791653,-29.7535413251632,1754.69077460005,-126.325829401743,857.3909870315,-107.903011516861,2257.29197782506,-327.546830864054,626.178716117121,-44.5998706717862,1776.20607065909,-238.070429595713,1236.84622493524,-119.783523192781,1512.57021948434,-267.878774082515,637.367837429636,-99.660984302204,306.587678992967,12.7318019811038,387.659287498926,-42.944793984922,847.019922522464,-85.3036900336316,291.266987285226,-16.025779510569,1947.17026417251,-162.04662774676,577.985178878441,-57.4695850160533
669.330453397895,-24.5439138915273,1713.37270830899,-116.703432893025,845.638320119792,-106.065932154524,2223.05984758016,-321.219521438559,618.437336940531,-42.8480211901899,1755.0731864997,-233.746559323603,1224.91978574636,-116.141546534709,1498.21715707783,-264.06135516384,632.150634064972,-98.679429604693,304.330527094832,12.9834964680617,384.400567970474,-42.3334554361498,841.88572675901,-83.7413341015678,289.138433946095,-15.5862048690219,1935.98259438512,-159.747673386407,577.605405859793,-57.3761728242346
669.204143198444,-23.6063891203869,1727.48099839879,-121.31189959368,848.376442310398,-108.034425436053,2234.46491953778,-321.603361802043,622.522924990082,-43.9528737063311,1761.65459897014,-233.391127369844,1231.2852259794,-117.783327258023,1503.36875427293,-266.352096847025,635.025519054753,-99.2808086393137,308.665432650043,12.6325745919707,389.449016082699,-43.4567936497083,851.628603042481,-85.5956391147186,291.235989812729,-15.9170450564961,1951.28576742903,-162.834446653428,587.914028542388,-59.3966992874758
675.847056344116,-25.9222616763571,1743.29787421801,-123.49945399005,852.837590375884,-106.617171558635,2253.47792889414,-323.981096788656,629.482395170549,-45.3313076726092,1774.75452284529,-237.461531235884,1243.40865970321,-119.504936188084,1515.67627753144,-269.401185226566,640.628896510729,-100.807789047615,314.424948322364,12.0448099312475,395.177849932546,-44.5594135261858,866.173988583401,-89.0519428206261,294.877369444766,-16.5523686564046,1977.0313771702,-167.930873875695,601.400971681617,-62.8437586826593
673.509384800892,-25.4769848062227,1720.58558236355,-120.466028513798,845.238262741544,-105.684709327078,2234.43880397326,-323.556000393375,619.674981251347,-42.8592865509141,1759.62395043977,-231.429327319631,1225.98027351274,-115.569182175057,1501.93952280034,-266.137608370627,632.54369375775,-98.2664467724961,303.560108052269,13.7466829396336,383.67135647433,-42.2706940234158,838.351184594291,-83.0233179101608,288.467356338935,-15.4124370514485,1926.81377163763,-158.390259713974,576.568274763888,-57.8067484188062
665.118875068529,-24.6962079538364,1710.5740610008,-118.252257816874,840.39047069359,-103.398548938296,2222.04932079253,-319.307690347113,615.76030570546,-42.2801116050447,1752.99151483329,-230.712745184334,1222.63727484939,-115.008850723579,1494.52725374268,-263.829334431304,630.608192748966,-97.9098782287621,305.19700568506,13.1144269751669,383.626420927494,-42.0927731775598,841.003575623229,-83.6877036011086,288.424098684019,-15.470252273709,1927.94188152271,-158.133251311068,583.346248178693,-58.9330946971288
668.354743925662,-25.2679780634616,1728.39263005521,-122.47998464478,846.445942549977,-106.404493454916,2238.59318752002,-323.62064241147,622.380068011684,-43.8130404667976,1761.72238543995,-233.14817570387,1233.24675229559,-116.62342509359,1504.49822409985,-265.859037725734,634.941766891031,-98.5217985153596,310.943272484995,12.7906220187862,389.57530284619,-43.3757600540999,851.931186655928,-85.2367323240448,291.577405802023,-15.673047681322,1950.10636086562,-162.650060303873,594.423192465773,-60.7461577092671
675.771834175945,-25.9969352682828,1747.03589780835,-125.727811990868,852.798821597317,-106.654656786264,2264.1870990257,-328.273374370099,630.234557566686,-44.6645224341073,1778.32098936112,-238.245616467475,1249.91364265294,-120.527566785555,1519.15212880976,-270.68722256702,641.991587704441,-100.833509420215,316.681551070974,12.0981955148542,396.968426871092,-44.8802713770699,867.282526172897,-88.1928810835322,297.251560685152,-17.2672705796692,1976.92173654963,-167.657134851557,605.00762885112,-63.2474730606876
671.111659613818,-24.3936636539497,1729.28162161832,-120.270985303427,848.176648614662,-106.097522945398,2245.10779841166,-325.73239101973,621.066168344338,-43.4773831054086,1767.20063367022,-234.727753545062,1234.13846586098,-117.940198687627,1505.12511688991,-266.019292090048,634.855724220564,-98.9307526107453,307.09628358132,12.856908125482,385.042417655921,-42.3337919707121,840.783491030474,-83.5445074397499,289.604170026515,-15.563624632785,1927.75829483847,-158.086828212927,578.616362005396,-57.6761483949249
664.228111946699,-23.3176176928493,1710.15469121163,-118.293432600954,842.787051687799,-105.81999606639,2226.51667455756,-319.945362486349,613.904315205908,-41.9446241129492,1749.91763695789,-231.863334286883,1226.11203365275,-115.601563406886,1494.6851220351,-264.143896098679,631.189268297034,-98.4116572596129,306.30375312998,13.1364104611868,384.046743152769,-42.1181918111364,838.702939921591,-82.3996674904827,288.435716711004,-15.3910997556168,1923.77243426626,-156.680790856814,583.242296940601,-59.0996110297125
661.548738184781,-21.5948705975673,1720.09328680075,-120.420663072716,842.195284782496,-103.533444543171,2238.89015799852,-323.074233438232,618.216006527078,-42.8633909529613,1760.99979720917,-233.656788171924,1234.88244411815,-117.464444421203,1502.0513644978,-265.139479578268,636.143991164939,-99.1311026780054,311.00115765261,12.4559187066076,388.404299457156,-42.6156992565583,849.875894091215,-84.1756050078808,290.434217588181,-15.3090750497404,1943.43639202496,-160.354523008593,592.699267572507,-60.6874186299367
670.638564668801,-25.1889992733707,1737.08325776694,-121.597401562016,852.352353924507,-108.600199132969,2266.66285589752,-331.619292194505,624.791122029626,-43.6334210030215,1773.88219755733,-236.515547571223,1247.72214446784,-120.009850986345,1514.88652276617,-268.991685983212,642.075358067286,-100.46856205321,316.358758241106,12.1362047917678,394.122274916609,-44.049315487159,862.42972768424,-86.4883466824165,295.422073282607,-16.4150292211623,1965.40222124283,-163.545866549408,602.119972201658,-62.5587763964077
670.965442139979,-25.7701038085998,1719.69718911752,-115.127418921999,844.77616276684,-105.453712036367,2250.05701263349,-328.183100367213,617.674652753101,-42.0438984001859,1764.05321735873,-233.711388748432,1236.75485285302,-118.743127757298,1504.20283612224,-265.549001452684,636.430849352937,-99.6317081305323,309.099541373284,12.0350913899489,385.126545154859,-42.4574501572586,838.191966832223,-81.6619975771881,289.258110079442,-15.1706552335287,1925.097080977,-156.876538934084,579.60448781885,-58.2376509177847
661.259050129384,-24.0014725195028,1702.15386706165,-112.434001501413,838.928344146772,-104.614587489066,2233.41813897326,-322.698540940691,610.511456011272,-40.4363671982662,1754.63179445998,-233.554665477201,1229.83783477586,-117.730254419327,1492.30864200254,-262.17111592271,632.066213293004,-98.6108741577862,306.638066151779,12.9360683069177,382.347431839541,-41.3535777511957,835.272961739377,-81.4622251507858,287.274367302199,-14.9816164181703,1916.190281357,-154.680699167973,581.609332634289,-58.7275339621718
659.619089715091,-20.3757437616829,1711.02249381014,-114.797723483054,839.243705477996,-103.740160679392,2246.42988307629,-325.396306505288,615.451411510296,-41.657811944355,1755.51420883125,-233.212274161573,1237.95723133873,-118.436066787187,1499.88086234279,-264.527433697117,635.904186437802,-99.4315539090993,312.10314721949,11.9465019630739,386.959780620908,-42.2923384013277,846.049082180856,-82.8880352826748,289.976033599051,-15.3977886654352,1932.04732147617,-156.988927990146,589.574071686261,-59.5249579813319
666.719037485879,-23.4242129309665,1728.46915090113,-118.372390633481,845.241464859016,-102.952856912722,2268.15680714934,-330.971209217851,622.611783628431,-42.8505035177151,1775.66042207318,-237.639268379507,1251.12579835711,-121.23306368187,1512.96109561076,-267.921267581582,642.414736577088,-100.820132893661,317.402946691588,11.3592065560492,393.254326782306,-43.6078565717022,859.087764759076,-85.9885800264336,294.318777898613,-15.8485981731577,1957.21889383008,-162.737315609364,599.919218733462,-61.3843801960588
662.663717309686,-23.5158961120216,1708.14813153322,-113.830314446278,837.594220763404,-102.415181216948,2243.1138479669,-325.123635554609,611.956757451678,-40.4276313358341,1762.82298835025,-236.161913721618,1235.1283425612,-118.912052272167,1498.74405140304,-264.594606777828,634.05927302261,-99.1661368452754,306.859185398341,12.5886678785407,381.012790588104,-41.3661738243321,831.147875807994,-80.6288099697778,286.25479356194,-14.1454001779772,1902.40576735001,-151.384679406324,574.816786679978,-57.1725940757444
652.454721739956,-18.5624988991579,1696.13421453208,-112.264780874071,833.285796722576,-100.888984614951,2233.36812180552,-325.391887965139,607.23356715202,-39.7417244862799,1749.09513108963,-231.67382116459,1230.68968845427,-117.881181514311,1490.83872067741,-262.771810826832,631.048118792872,-98.1121147018431,307.571835885968,12.1724093096866,380.568429105427,-41.1245582188691,831.439884050126,-80.2344780935844,285.990839710052,-14.4328027490205,1902.77203433065,-152.194368457861,578.753561235518,-57.2980757954776
659.592988031482,-23.7442071294908,1706.97012707651,-113.696970528521,834.782690112687,-101.110295549711,2249.21054531224,-327.936454284116,613.488753242942,-41.6727119081012,1757.74245011206,-232.899352511584,1241.15103813692,-119.694412160836,1498.84807214917,-264.032477929267,636.209480854952,-99.6087236129571,313.165399646991,11.4040250558637,385.53676760805,-42.0982120692447,844.100939192451,-83.4137114509259,289.472848281308,-15.1801873352768,1922.96609488328,-154.786012436339,588.847097028828,-59.2457585449446
664.014214826958,-21.6295725614916,1726.9920387392,-118.122532761408,849.574536342896,-105.796620458371,2279.8062127187,-336.491478684844,620.667929853696,-42.3443132001048,1777.04239235577,-237.360005913694,1255.89723097444,-122.455118648631,1513.88118939989,-268.734037618415,644.027664418339,-102.119766870949,318.583734282932,11.1691405397164,393.316444003047,-43.9379220904043,857.120980492888,-85.4742628553039,294.389457102006,-16.0801720804389,1950.44491339511,-160.719040623393,599.51593765112,-62.0767436266802
669.071137978481,-22.0862043407988,1732.43242755578,-120.360029739,845.190332343558,-104.492602493196,2276.18783741364,-338.29171993438,617.287437072737,-41.8156107021567,1773.94948471436,-235.712127481738,1249.82097570318,-122.140416286946,1509.13116354188,-267.408796462725,639.983885151069,-101.068981742606,310.608345567022,12.0487850908467,385.020196497953,-42.1110099717929,838.613173993482,-81.8309615329972,289.683524479043,-15.2195472669838,1915.25928166768,-153.903248872058,578.409550261415,-58.366814024322
655.294665397804,-19.7948490703058,1706.24008403659,-114.671585013388,836.565826574789,-102.338045925493,2246.7397365209,-328.546590960401,610.346518096958,-40.612701886153,1756.72528866763,-232.779034756023,1240.02215870259,-120.116145265284,1494.78554935584,-263.361524758148,634.034064940788,-99.6569412404251,309.029813502024,11.9017677162477,381.845990907834,-41.6876604514609,830.907315054885,-79.8076507859522,287.173314324854,-14.8833727555518,1902.56348571026,-151.801652274015,577.24393886656,-57.4136736255757
657.446323786232,-20.1725310660157,1709.32875223314,-115.095870879232,836.41139578992,-101.523428692687,2260.25363249735,-332.42135044376,613.069073353825,-40.7911254482896,1759.95639348011,-232.328081351983,1248.07867030193,-121.718205748897,1501.53843442647,-265.37543020828,637.759529780728,-100.0283506645,313.749312910029,11.0439755000455,385.985639137888,-42.1471623227225,842.978608139476,-82.5161237660005,289.808800428784,-15.1054024604528,1918.99828769746,-153.190113617057,587.298337202822,-59.3189833045263
