701.377773354655,-29.5180894981676,1749.26197023859,-122.463135482393,861.798967948228,-106.751234359885,2331.9137765874,-351.799003509854,624.378032801887,-43.1653850192496,1834.32297146814,-251.224896914272,1296.84322367824,-134.69046139594,1520.7027891737,-268.466124294882,651.791252972713,-104.946011159238,318.399476029579,10.4416189852096,388.939074593888,-42.7354320436951,828.702831670577,-80.4829217159982,302.828455518104,-18.3904871019647,1924.81734458588,-155.176365291256,580.889496650755,-58.9336061848765
703.507220609814,-27.453073030193,1762.74856795646,-123.547815301521,868.370394019392,-107.185887601744,2342.98336829099,-350.994135814761,632.41434653323,-45.1767214348979,1846.50561649363,-255.034166026608,1309.20029680626,-136.968325459761,1531.07243784392,-271.385643848299,657.792966229429,-106.753649541773,324.511749960487,9.68073242935344,396.06368585602,-44.6466259785513,843.328971186152,-83.7617835184868,306.403480283453,-18.9334246584751,1947.64652188499,-159.604713148352,594.86604901595,-62.1904421673033
710.878188790373,-29.1406579100781,1789.47237670682,-129.810871974518,879.701813139962,-111.785483774422,2372.45347885042,-357.985682600031,641.239844977942,-46.8274520614075,1864.7936205396,-259.798411890042,1324.85843882468,-140.821660418486,1546.12653714801,-275.680830107224,665.069663550769,-108.556712273057,331.513767632825,8.79507783172582,403.672895924259,-46.3111859703056,860.136701186336,-86.7592311438028,312.154251351077,-20.2665376046368,1977.66691483129,-164.74049805732,607.002838027811,-64.3909330474215
709.914238795382,-29.5987352551868,1774.68655256218,-126.416708867057,874.840074216956,-110.502341193486,2357.25019589627,-353.46596483812,634.351306962954,-45.9471749312066,1856.5414393095,-255.723072538117,1312.18986578288,-138.615484741156,1535.75849186396,-272.637058663837,658.064502838207,-106.380666509305,322.131152039945,9.15464068338841,393.902353639555,-44.2004653967161,834.743099876667,-82.327922230798,306.072456417515,-19.1969917239303,1938.82207196589,-157.903880613242,580.69187041346,-59.3510318155258
703.82907194909,-26.7917127393155,1767.13855789715,-125.2858822932,869.622289957904,-108.721803871838,2343.82047032163,-351.34681461862,631.320631858598,-45.0379548545559,1847.96357808721,-254.453758958504,1307.87728241615,-138.313073499877,1529.63192882801,-272.172162671693,656.829850147139,-106.470230911078,321.953776928538,9.73422735098048,395.308310231467,-44.9584346114046,839.880013203521,-83.126279318092,305.90250648181,-18.805754998211,1945.47666095546,-158.77205625324,586.095606673803,-60.6231052707796
705.680663722459,-26.765552961139,1779.3491398854,-128.43099638855,874.627447518183,-110.86132646456,2360.37839754506,-354.710916349562,640.009919931366,-47.1159457451431,1859.16424782986,-258.004143192286,1320.38451363023,-140.862083857077,1539.57500748153,-274.082086846444,662.95426427387,-107.726307792926,328.195207173122,9.06897502607115,401.40340191043,-45.6125395339936,855.318887382109,-86.0992438933375,309.686170346848,-19.490013326258,1970.39623082761,-163.210017165785,599.552042554652,-63.17034509447
716.993920041828,-32.4306389973845,1805.68709749148,-134.157150349279,885.855388683178,-116.09104338775,2384.09263842619,-360.267952912065,646.689428649148,-48.018744871564,1880.83939832627,-264.740710260195,1334.81921491383,-143.551491594369,1551.93279347164,-277.656796354935,670.310004748648,-110.001989265965,334.919277361845,7.88493806145219,408.275847130943,-47.0871106966081,871.6195525809,-89.1319429384079,315.474574996935,-20.6652694162529,1998.72784594753,-168.757930595996,610.472710763423,-65.3760931731315
713.424206072756,-30.2376857636368,1781.17088013748,-129.479035157425,874.845731267287,-110.585784490843,2362.70469131964,-358.481790889956,637.348240136086,-46.5807715815741,1864.86623787172,-261.163207152115,1315.42563478462,-140.796292089112,1535.93382043483,-273.057137519483,660.324330458987,-107.394537051112,323.038109959306,8.97580349088533,397.045820066859,-45.4072169207697,841.8826350988,-84.3057797866168,308.049481015109,-19.4997659791508,1952.748145744,-160.139853281631,585.2820760768,-60.5885945824934
706.531645494354,-28.4579986948321,1776.39999087262,-126.865686247561,876.952667743034,-113.575384301554,2356.22926359128,-357.180492974778,636.689791908006,-46.5098741915845,1858.28280448187,-258.559316081471,1314.85458107972,-140.285198465714,1534.53464018177,-272.933387875483,660.348263883803,-107.304921549828,324.737593018525,9.32318428749804,399.399022760765,-45.5136956343572,849.55742513369,-85.8716472622989,309.789035090201,-20.1927869913916,1962.09906563134,-162.358278335126,592.764383777819,-61.8182876569996
711.859167931216,-28.7066208295951,1795.64472178564,-132.999550983664,880.65469565747,-112.028411571913,2378.36445932163,-364.230468275619,644.083694381362,-47.5412223830406,1869.68211588758,-262.53384358012,1326.13731616623,-142.226317513874,1544.10803692162,-274.993521222506,665.714246063657,-108.858190839521,330.702406687685,8.71744456528806,406.137853878616,-47.3397212104276,864.293518217727,-89.0386997137874,313.489084313057,-20.8250388572423,1985.16299911288,-166.599614922854,605.364955749671,-64.4667266679783
725.129557351916,-33.8008484212444,1815.57340007531,-137.563115522164,885.775093646392,-112.20199118841,2391.2800330135,-362.691359966412,646.283843799629,-48.5811897369968,1879.34549662452,-264.449346617565,1324.66804266751,-142.250410596561,1545.92639567945,-275.633537459786,664.760897689364,-108.61660945292,325.774048800635,8.76473775805281,399.331165844889,-45.7525737571864,846.920594125886,-84.9368658862538,309.937387379266,-20.4412084033459,1957.55784348075,-161.023907051479,588.689830998993,-62.0227207887754
707.154275612494,-29.3092071660703,1772.58715319488,-130.173057874082,874.148824624392,-111.908132973673,2348.1864252125,-353.883707202159,635.011515211419,-46.9079491114565,1855.13421896225,-258.327036302627,1308.08040155982,-139.250160865894,1529.74181358213,-271.702911154518,657.763030202708,-107.043276442424,323.783205465637,8.83650467160105,397.825325128204,-45.7045655265065,843.902994095799,-85.153188441638,308.005141773726,-20.2252918008235,1949.86364011998,-160.156788424338,589.009250195021,-61.8754319636783
708.341452158274,-30.942540611807,1774.60685834744,-127.933699433416,874.627539931058,-110.784660942333,2355.06572664261,-356.993348322291,636.524005225271,-46.8420152858639,1859.55935123371,-260.508945681888,1311.95349003246,-139.548029262391,1533.36518983067,-272.991466541401,659.451458726959,-107.042510163555,327.133355751672,8.81242195012238,401.508851937861,-46.3143823637062,854.492768413252,-87.2797052578181,309.807261984748,-20.2096849534176,1964.01913968837,-162.222434297556,598.996601652759,-63.833599412417
713.529879266958,-29.0987435268462,1792.58570804254,-133.961792164887,879.275029128668,-110.449557759848,2378.14240464042,-359.322953219527,644.637530859951,-48.9469543175217,1871.37896919045,-261.099511717757,1324.37476382304,-142.575671575458,1543.88655432382,-275.489702066978,665.169617342757,-109.287884281052,333.531232223659,7.87320944562408,407.852800898115,-47.9889742361482,868.493050692394,-89.9314930221304,314.853280317433,-21.3741054980984,1987.0174011768,-166.622890777408,609.798059502438,-66.025618191324
722.27273005204,-34.1301378412836,1810.00274414189,-137.399053846515,885.037661161113,-114.048072761354,2376.91864144248,-362.618366684841,639.943293284452,-47.3666158357355,1868.95085807944,-261.207050319298,1314.06110960157,-139.526859949261,1540.1342929308,-274.832472862392,660.737847698001,-107.630539611113,324.149781334273,8.972254776832,399.690014000305,-46.4799422996546,846.14568273608,-85.8997819354495,309.076640436185,-20.041112645003,1952.73995604333,-161.18676376121,586.749090479233,-61.8399981302431
705.051029084522,-29.9212346629813,1761.18314607761,-124.34313332933,872.579420860535,-112.295815864499,2343.99761134913,-355.519488884835,631.158828389939,-46.2110877374456,1842.92181306377,-257.422920883856,1301.00317825229,-137.391897951456,1524.99721403101,-271.730368358142,654.619882415161,-105.881837780384,321.422381219744,9.91176093980401,397.173917381729,-45.5657879425478,841.921063673657,-84.8404884860772,306.568729817638,-19.777084157329,1942.51026575745,-159.369719611786,586.986932843898,-61.0847555164719
706.260913286758,-32.0948310477514,1766.20061731221,-126.767266604697,871.918521886212,-111.415146313533,2342.26470974775,-352.026129551037,632.985615434983,-46.2513890228366,1841.69221732149,-253.743984603752,1304.56388287461,-138.222662954203,1528.83669392118,-272.186194747861,657.109715818099,-106.758755858244,325.869060382912,8.92551672673436,400.842522956665,-46.4956996058641,853.118389687188,-86.9072607292352,309.48047532183,-20.3671235386765,1961.39501599576,-162.733574695867,597.48527456984,-63.2252881077423
709.727011945443,-32.20843067423,1784.27695964713,-129.51725052129,875.267018090288,-109.411614320819,2369.24939870239,-359.72432583835,639.941313475559,-47.8835414564351,1858.10697900733,-261.062436563298,1316.4734691591,-140.500777050356,1538.87779331926,-273.793054107182,663.470030151868,-108.30911076533,331.924035345232,8.40845341102157,407.109753534594,-47.7618791609626,867.569909591938,-89.8083118402182,313.278145106941,-20.8899475614001,1986.29332608721,-166.939288230025,607.887110071401,-65.2505244159566
716.052054095405,-32.0566165787443,1807.96269655359,-135.74987881182,885.585785018538,-113.530271272565,2391.04712982011,-364.314128102316,648.10941724718,-49.3664922089972,1873.38349202433,-263.922195289448,1329.53794723824,-143.660863152357,1552.59678909097,-278.736696626039,669.798494514949,-109.939444746549,338.771415006534,7.31173171724449,412.038544285434,-48.9865786622743,879.024698614013,-92.7057926998161,315.941962078474,-21.7171787397442,1997.57927264851,-170.235957599937,607.219832773248,-65.0830618653063
705.695320431733,-29.7959864365824,1766.35640257801,-127.721669329085,872.106452320378,-110.409569589081,2341.88059770526,-351.314938802535,630.850407445718,-45.6867912072567,1844.50369286741,-256.263828950853,1299.32735065647,-136.813636427951,1527.62884645131,-271.812932196706,655.585719595621,-106.668673191968,321.502787663748,9.38037843337101,398.470186944105,-46.5028946874088,844.358827944257,-85.1174689981074,308.387740716607,-20.3448942207722,1954.55943018093,-162.184855319653,586.082896169005,-60.7360951758541
701.595743634209,-30.9057467811459,1755.02725790166,-123.175720519604,868.019855162782,-110.25651795874,2335.80901426253,-352.820351569424,630.370278502387,-45.9131143655429,1833.54224875546,-251.424090935258,1295.99237602959,-135.428257179739,1526.23581415244,-272.20614389231,654.86357628123,-105.817322615785,323.162055081146,9.3162869943215,399.172862174021,-46.038955308852,850.42552081098,-86.4751363427032,308.305360133422,-20.1304385983478,1958.23606908803,-162.617405678816,592.93129694631,-62.1605330411888
705.157561487322,-31.7032821352015,1774.47892333496,-127.622256905916,872.043760653774,-110.231361623951,2352.47620548959,-354.93359324358,635.793591175697,-46.7862275377694,1846.61986714217,-257.118875582508,1307.75807225227,-138.473055200799,1535.34649582556,-273.993458428704,659.687558564181,-107.269776631315,327.666747111103,9.48034910291208,405.133880437723,-47.5791822184247,863.141305916432,-89.4378311546915,311.750404789464,-20.9047459495895,1977.51246257797,-165.627134149718,601.504553177346,-63.4330229511831
711.296534404779,-30.1323892459473,1791.99178969022,-133.912538241527,883.60948595815,-114.988024106973,2374.18041865582,-360.785200076813,644.847691672064,-48.7690586317129,1867.63574645348,-263.555131248112,1321.67416402785,-142.211971329478,1548.00551019406,-277.009443836416,665.714596670448,-108.801708133302,332.881201136318,8.35317227151032,406.52985884379,-47.7256217856785,865.567494473604,-90.0509747955713,312.567348480673,-20.9280679774091,1976.00669021802,-165.911388417495,595.081121942693,-62.1988772604685
697.87216135697,-26.6109037075185,1752.84000948084,-125.318991572035,861.469809216039,-106.154106909535,2316.06386568632,-345.284569465554,626.95588753772,-45.757885732879,1827.8949623358,-253.644863951886,1287.86774911211,-133.365911987277,1519.90622400217,-269.600232229721,651.424321229937,-105.323844583007,318.957824034834,9.63089555980015,395.365607003284,-45.5833251832538,840.265301473217,-84.5471640048964,305.599903918578,-19.7738347951235,1943.08959470781,-160.296026589993,582.949112949457,-59.7530429096564
696.717971158857,-29.1067039964298,1745.25354861354,-124.19233283904,859.925238482406,-106.831640360106,2318.19583485875,-346.611325183778,625.855818033731,-45.490227076954,1821.03638668294,-250.160497507672,1287.03905474243,-133.274018152748,1518.71654218549,-269.169894686595,651.173252477094,-104.982705739929,320.262862763597,9.93211335340998,397.58879492528,-46.3831806220048,845.691589384489,-85.5733266136543,306.55620717479,-19.9214426441652,1950.08010489016,-161.248918629373,589.343935045569,-60.6940062905803
695.991122562958,-28.5285433936864,1761.55624555987,-126.80249889747,868.48418457205,-109.510021569668,2326.78446496742,-346.763641556105,631.411287141479,-46.6008567850554,1833.52766395851,-255.027738606027,1298.98041050571,-136.153053190975,1530.54582877916,-272.619412979728,657.071415417082,-106.681261417687,325.866330635171,9.30981151141312,403.511500532742,-47.450161853635,860.871953857859,-88.4022540046527,311.018482222029,-20.8661415082941,1976.39762486963,-166.894486558478,600.273676443891,-62.6937860888886
704.838204239671,-29.6359510396843,1784.17243184553,-130.793723920411,876.733850047834,-113.939245609523,2358.34983286891,-354.533130487874,641.810757481374,-48.71725749508,1844.8455202283,-256.531616262318,1312.43521895913,-138.301510663391,1543.82508500137,-276.297890540827,664.481172976086,-108.426129288405,332.415813341213,8.43917166882001,410.76574936953,-49.0516711590526,877.659296518443,-91.5501892959339,314.495896959521,-21.1110386682104,2002.22471301199,-171.243454961761,606.536651573415,-63.6416174321383
696.563112646047,-28.6692010931897,1748.49590723154,-123.419354872312,865.134980777224,-110.018979703726,2311.7417215281,-344.098788272457,626.792566969945,-45.3902315950442,1817.29932966864,-247.426691808331,1285.70817732903,-133.380775686792,1521.45974443059,-269.877497907617,651.384441529026,-105.066200845312,316.410251213572,10.4522983923034,394.932876196177,-45.5696660809979,840.953059206616,-84.1018776101614,305.463940434802,-19.4730991539512,1950.14761062445,-161.587499425968,580.948006335026,-58.5816080383266
686.610619291885,-26.1910374322185,1737.12611141263,-120.004424069662,858.20657878278,-107.414147857849,2299.29915439556,-339.338900872066,623.773359498925,-44.6539646348865,1813.85041513341,-250.561371466054,1282.39865803842,-132.42954881523,1518.52115373611,-269.817637659092,650.46564701225,-104.413718664357,317.483738812507,10.5891437863821,396.392237430385,-45.7298181759401,847.262772867547,-85.8438864074387,306.219766531644,-19.7283037693291,1955.46742763758,-162.631432739133,587.619363621739,-59.9160338831857
690.695524795308,-27.5710177387655,1751.81289276112,-122.956149124741,861.784803628716,-109.06024393415,2317.55827652753,-348.266765474677,630.671291018635,-45.8550460608337,1817.63281536137,-247.85486851373,1293.08908872234,-134.583638422682,1527.19367748737,-272.084715431769,655.882735451447,-106.339641939872,321.994992285233,10.1113380005938,401.94986233083,-47.2302136857793,858.119935033655,-87.6813562176154,308.921283040935,-20.075416338978,1974.11858780992,-165.611253289275,595.725640804824,-61.0604732124718
700.669514345188,-29.577983148545,1767.13188694216,-126.766466926839,865.058507273452,-108.212393417771,2337.03465137782,-350.477824111726,633.213798048541,-46.5356673305243,1823.65667404747,-250.453286377686,1290.95246552281,-133.762490530451,1528.54262650146,-272.295748990322,654.40928994896,-105.772176304153,317.771612661459,10.3202772316282,395.168131293846,-45.053030047584,843.476307107921,-85.0773986264264,306.088313049366,-19.5387341243524,1950.89770941975,-161.661397758859,580.157140484295,-58.5265654231526
682.992418566684,-25.3011497082361,1723.98984747807,-119.932146992268,846.212273298915,-102.797950679697,2282.22431074124,-335.743840823274,619.85300565609,-44.0298632144992,1799.95070268919,-246.727728100471,1272.26130470549,-128.872561336598,1512.2430511214,-268.083831950157,646.723284987754,-103.454266322977,312.931796430658,11.4852607510431,392.358585660348,-45.0700540388354,837.837027960231,-83.8862598210353,302.869417244738,-18.8944638193155,1935.61070588735,-158.934008590306,579.9761952217,-57.9256719472658
683.229108150616,-24.9577674379654,1728.53778514259,-120.967379785589,854.053774580042,-107.994745006054,2289.72695341558,-339.507401956283,620.981121207566,-43.8584269244586,1799.65370092315,-245.590298511905,1276.80876086383,-130.128310682087,1516.36357391181,-269.173567189829,648.7749265231,-104.078778042376,315.310235909612,11.5647410393016,395.311147313719,-45.5339877095469,846.117789665868,-85.4810524767712,305.039614507612,-19.3963450724786,1949.37651864179,-161.210888557375,587.088103809124,-58.8880271210366
691.227556384898,-25.9692589943635,1748.05777256458,-123.688425881401,858.662149422972,-107.803925787998,2304.39437059534,-339.557598019249,627.87269814877,-44.9427765168013,1813.85459556949,-246.576038451844,1289.93881643568,-132.434208087281,1528.09768940421,-271.629892988661,654.419040599555,-105.273734563165,321.303583273829,10.4194541780338,401.795627673328,-46.6023680482313,860.53314591955,-88.3837493166334,309.239630229827,-19.987332641097,1974.28158399838,-166.391643342468,597.04584413319,-60.6692504206575
697.910639354503,-28.8808202332794,1766.91634227312,-125.817148584323,865.533271175061,-109.798201989899,2334.51982717636,-347.647389653201,635.598923244785,-46.5435124016532,1837.99481845002,-254.857409608759,1305.73464070666,-136.488281652847,1541.24800110676,-275.071635194504,660.987146958139,-107.026340695911,327.107524407138,9.93029059863118,405.650123552195,-47.8868195578903,864.418522649882,-88.8641945639932,310.994629492446,-20.5107363525951,1976.16121637759,-166.594303917925,591.326786422417,-59.7563279448562
685.230972967918,-27.1104616981346,1724.56335609261,-119.543901444424,852.570496371198,-106.031349162546,2283.49083408322,-336.206728257877,618.420674742373,-43.6017249742975,1800.64211211892,-243.726626414677,1274.64282944162,-129.232882465155,1514.98457838437,-267.820703869162,647.692770155936,-103.964258050235,312.405918125597,11.1937350503828,392.714013766152,-44.9650013733323,837.97989583322,-82.915649231589,303.917129753923,-18.8278343139392,1942.40743070502,-159.581319059086,576.981494114848,-56.4325414373234
684.124603609358,-25.4874047092038,1725.43610860802,-120.652733816481,850.986658047017,-106.411494217466,2278.20773053223,-332.669512408894,618.720684282691,-43.3512119378193,1794.33296673654,-242.005526658648,1275.76601955795,-128.962952523171,1515.62672630405,-268.279117561813,649.128283246584,-104.093988164795,314.386882653207,11.2112618532524,395.551949094591,-45.4974714263974,844.829319232455,-84.6146451693135,305.040112172366,-19.1906153757238,1952.76100451976,-162.339551649832,583.197916530822,-57.5312235158812
685.579449630528,-26.5935383356162,1742.36276775929,-122.688553930322,856.533672203877,-106.163682904843,2300.37592649696,-340.865192632385,624.761737548438,-44.0656036593239,1808.90398944501,-247.095005519684,1287.77376918995,-132.002937217363,1526.11111957709,-270.93794719029,654.672210294921,-105.431774876202,319.261239795317,10.6952837378417,400.92419077152,-46.4349644782323,858.827003242379,-88.1399684561812,308.76967380508,-19.8621276284584,1977.87684382691,-166.713045973508,591.711658057847,-58.9722183698231
694.039961975704,-28.22384740117,1758.01548012062,-125.442860114085,861.364245956448,-107.306355422032,2323.2715212335,-347.273901973803,632.582963805535,-45.9141158581836,1826.72615410219,-250.201600757526,1299.51999451432,-134.513789150773,1538.22108518533,-274.377074554199,660.398037365255,-106.550978402135,323.223803638183,10.2942861390655,404.050587380424,-47.2500578092653,861.688142361583,-87.8858569402303,310.721736469786,-20.5156530905866,1976.94813755786,-167.121298962979,586.469212397521,-58.1715253065943
685.286401675932,-25.9059439374224,1725.30222749261,-118.170329234308,851.837408392415,-104.631305200354,2279.71266270775,-334.893749035865,619.151329193806,-43.7982053969388,1801.27560419906,-243.203708649029,1276.21671645123,-129.604062140655,1516.9365998292,-268.433997730661,649.283791563853,-104.16492583245,312.354698623606,11.6821520774168,394.561764826334,-45.473957158346,842.834985672353,-84.4244661380856,305.263864262983,-19.2791072987048,1950.02188753824,-160.964738633747,577.527431437322,-56.7001758593167
685.226341895394,-25.5779477990931,1721.32065283404,-117.037201012836,852.939288878254,-105.236066117395,2280.10156440881,-333.373225028616,620.568381845133,-43.1722921283084,1805.50530699118,-246.056431464179,1279.91863449155,-129.847903921909,1517.95360601892,-268.760338456592,649.738566728163,-103.975877950899,314.982481974771,11.4201626387484,397.113288561575,-45.6200295969863,848.847759141793,-85.5780833080425,306.830595059319,-19.5428935454218,1957.90158063236,-161.709489795927,583.211257278075,-57.3478831428024
692.690461769666,-27.27145702868,1742.02166814613,-119.876115840798,860.08545495234,-106.978806618221,2301.90843635642,-338.724771093156,626.984606213077,-44.4824923532781,1817.40545495603,-247.40393691785,1292.79222367804,-132.845963074881,1529.33979250313,-271.413540039985,655.464088775036,-105.06848877784,319.61530383889,11.0014506446887,403.705015696141,-47.2667454942682,862.531782737096,-88.7281055921601,310.423096872719,-20.1724483401838,1979.33292723301,-165.960387830881,592.477223654866,-58.6763854158444
701.556324090426,-29.3175669281672,1760.58783772156,-125.539581624044,866.24014160289,-110.013092518594,2314.58842824015,-340.060847204286,627.542954452822,-44.5735957366319,1828.84197919838,-250.179274760854,1288.39760019915,-131.033962140257,1529.35201929679,-271.655506987752,653.70505572629,-105.26746557245,315.173513884812,11.2695902788381,398.282794846699,-46.1859699986041,845.805722629182,-84.5662904491225,307.486046293675,-19.6723826384723,1957.7912942209,-163.255544902222,575.980560223284,-55.8473622174395
686.481797619574,-24.8613897372138,1725.28900466063,-118.884942403706,858.945727006687,-106.875601740655,2284.83740104408,-334.187506607136,619.839845066657,-43.1113518600859,1813.62423851774,-247.883732254615,1279.12910396465,-129.526542029525,1517.59006639894,-268.422123239918,648.308177913647,-103.628010649111,313.316478539139,11.4515170202415,396.072275295691,-45.5730983225686,844.316139916142,-85.087940902944,306.245674396062,-19.6319215492388,1948.02813147142,-161.317342940887,575.847080397738,-55.2451462750179
691.226393555361,-26.252069360856,1731.45135111733,-119.078468897305,859.22259089243,-105.978034094269,2296.90778388309,-336.841590951277,623.01124143159,-43.8811078834365,1812.6563364723,-243.870145272772,1286.18963162913,-131.06547166722,1522.62361750652,-270.102963539534,652.061035038067,-104.352372952312,317.948444807346,10.8424750716851,401.199990612604,-46.8666211966985,854.616012726492,-86.6991870246416,309.264758845498,-19.9125655747504,1965.8389124328,-163.96990018653,586.74113495095,-57.8908277296756
694.6099506198,-24.9022995439921,1752.52679240307,-124.527933206136,869.001876534132,-109.920690973596,2316.7736991973,-340.523625288369,630.290942807525,-45.2046206258813,1828.87848574142,-249.27668676849,1301.0123546297,-134.86258561572,1535.17408757232,-272.779189365116,659.218237943125,-106.377798094878,323.213571982552,10.4928289876075,408.460810864355,-48.5848949813528,870.878465629838,-90.5309465579673,313.663540455684,-20.5314056022061,1995.56794398187,-169.927463577996,596.609060109931,-59.1664082684055
708.451585694592,-32.0208477197278,1775.66362862467,-127.350409005727,877.340271405342,-112.615861957454,2341.9193918645,-344.643773462953,640.193521147742,-46.8840272613795,1848.09500612523,-252.224235952278,1312.89834303731,-137.385721307625,1547.45610720042,-275.611469720778,664.437272432063,-107.566585472114,323.802954017081,10.5592465180584,407.096983495464,-48.3082523837511,864.206958836831,-88.7165030260724,314.065661503681,-21.1745089953378,1983.25843583346,-166.640100617851,583.368473200843,-57.6538933094479
693.436797014069,-26.8645777310435,1737.80626635739,-123.317885657658,864.169293737429,-106.31408950555,2302.82847178683,-338.865859420734,624.526525345425,-44.3853696528717,1819.81226349738,-246.524071745144,1287.62055422007,-132.484671809974,1523.30015164467,-270.271580490096,652.31384285054,-104.450170362013,315.689892455494,11.1836206018382,400.630432391381,-46.9064603591018,851.786226935107,-86.5575331026574,310.332453393412,-20.6299860277007,1967.32254593014,-163.48079213036,579.092724155586,-57.0043454467825
695.066912071503,-26.9479809178592,1739.58803591653,-123.049726459405,867.379477525783,-107.667779051473,2309.00971833198,-339.045376248307,626.748117121944,-44.6721392859766,1823.69764342516,-249.797238134996,1290.31460689822,-132.718212913586,1525.58024887075,-271.174165848417,654.662959641288,-105.23416429866,318.633440159539,10.9566367801519,403.054450729015,-47.4316636400845,859.45049277001,-88.5554269365545,311.190734140899,-20.5300359476339,1974.95925438857,-164.861976714002,585.772481729624,-57.5131665591848
698.979737956728,-27.9776964836924,1757.52813315028,-125.089139836941,872.877392730869,-108.967070091261,2330.93442654604,-343.946147744005,633.912566463038,-45.7806013201077,1837.67417591183,-253.093202390232,1301.98282044483,-135.285749930315,1536.73114060584,-273.617810072865,659.27934252534,-106.221114591468,324.327246522758,10.0567284310183,408.771445557804,-48.6120796222832,871.152056382733,-90.9774161189931,315.585585940653,-21.4660390235165,1997.28665127339,-169.823930110665,595.618372165483,-59.4938483781677
709.421360651254,-29.4578767763607,1778.03613967811,-127.169079964552,885.679966225224,-113.017909407776,2357.39887066251,-351.004509367269,640.796346976262,-47.2105190428298,1854.48847610132,-255.226786170254,1307.50112561398,-136.900316393088,1541.89817321561,-274.529656170649,660.91911796021,-106.689765530974,321.625899662592,10.2686009748292,405.534261675093,-48.1984443981231,859.743342155177,-88.8567444118873,313.436736453214,-21.0829683979942,1977.29862573672,-165.831303924366,580.624243353859,-56.6952732069925
700.336894281716,-30.082589175498,1733.30163351937,-118.504182497273,868.831862980489,-107.811879232571,2312.01786443853,-338.711596163935,627.257491989834,-44.6068224976413,1823.25770551077,-248.159775878806,1288.07918901001,-132.145442012816,1524.57590345666,-270.197922655921,652.812912008009,-105.421430111469,317.813474104969,10.627331112491,400.593701137076,-46.7351898380296,851.384841902378,-86.4737038731992,310.901781159237,-20.8952547160141,1962.82128405915,-163.361274313081,579.228059646801,-56.1551866921209
693.048185181221,-24.6686211921434,1743.78253892301,-121.944814011379,869.945420873322,-108.576806302345,2320.26302831051,-339.933297751177,631.041822175162,-45.7547760068877,1830.79920937864,-249.203686305486,1293.59141553601,-134.410013190926,1529.28869655583,-271.797660320093,653.676770945009,-104.925923706026,321.202361815508,10.6706701407378,404.501252940852,-47.6558842443477,859.419534591882,-87.9751601910663,312.342545918196,-20.720264277965,1975.35203712245,-165.207852838034,588.964420717732,-57.8298930680571
700.248654982725,-26.5650095427213,1764.78499922007,-126.682497969278,878.757265797014,-110.528120261434,2347.32943743619,-349.402463016031,637.788632610791,-46.9682644351835,1838.64499295992,-250.817199567545,1305.61799880835,-136.331659982911,1540.60011603301,-274.456334257773,660.458990808371,-106.805784727198,327.360956048929,10.0755255726334,411.383316310024,-49.2742830641801,873.878280723662,-90.7070430978243,316.794020817894,-21.6058737004357,2001.50253819177,-170.524261884429,601.104526705934,-60.3649355423441
712.168584630854,-31.1225612561728,1788.12496172572,-130.629857016683,884.18773057095,-112.280226687103,2374.94080935917,-356.198169417281,647.081553044941,-48.6315004955263,1862.04264949658,-257.981785124791,1321.29616191618,-139.978031702207,1553.92950559168,-277.139279872664,668.663483288811,-109.23315028992,334.307632688516,9.00072519762269,418.634100133076,-50.7711129971809,892.690266005721,-95.0029080052501,322.369646098183,-22.5481474152287,2030.72087267627,-175.215829972251,613.263048491813,-62.993363937306
704.462314247006,-28.4126787679625,1760.90194486806,-123.974577274971,880.872990419978,-111.831108269474,2347.69741241357,-349.983234486292,637.73650768638,-46.9959853043082,1844.90187442032,-255.228993498112,1301.2017877943,-135.362374342201,1538.66958610764,-273.828264494372,658.569590765552,-106.359390725191,321.750317326451,9.99720683042692,404.757186333926,-47.5510909433376,859.486748223641,-88.0626806372145,314.263005590205,-21.1390934130872,1979.63099669979,-165.289891071023,582.585715959209,-57.1792950449735
700.867573293978,-28.830253303656,1751.18801773254,-124.596999885781,868.887284346234,-106.555202357673,2333.03343318637,-346.327833818156,633.851911422537,-46.4059357243559,1832.87936539933,-251.703890908068,1296.11950997707,-134.8830179197,1531.43459861058,-272.498763791164,656.572814553498,-106.343079290703,322.427637084173,10.1216561286926,405.184593566089,-47.8005639687207,862.58956300286,-88.6874511464666,313.677005262884,-21.0708878574505,1987.07670556172,-168.907795686576,588.903388194961,-58.2195967024251
700.196090525453,-27.6445516927518,1758.0980639215,-123.203135780454,876.034174735126,-110.299468191052,2344.32280991623,-348.196648974378,638.789870403856,-47.5170750403379,1844.13410732815,-255.2451101558,1305.57064993772,-137.622803490716,1539.10068278382,-274.42819076039,661.427317604075,-107.192146424274,327.473010592886,9.16204213117767,410.41166797276,-49.0993218502992,874.625147631831,-90.7701501240436,317.074737515692,-21.519459433165,2006.34644011094,-170.670584575681,599.271570014067,-60.2350994376358
709.709752497097,-28.9181255300031,1781.83402712508,-129.234177080562,886.819407070042,-114.695621655633,2372.13740803568,-354.433516614889,645.413200619636,-48.3988319147698,1857.30368612356,-256.790264672001,1315.98032584481,-138.673081883523,1551.60062490379,-277.611004719472,667.12567261055,-108.81985722596,333.22529089669,8.99100338436329,416.063073251898,-49.9494492511992,888.375917534149,-93.6811072831903,321.892278410672,-22.9097044866547,2030.5588907068,-176.017633888091,610.996461341945,-62.9603189503997
703.001276980135,-28.9700467002958,1759.86515245806,-127.370992502329,877.692395222085,-111.195974834289,2343.93567555332,-348.673815416749,636.812103465288,-47.0236742718159,1841.40341444429,-256.55877233877,1296.95564845546,-134.36298993492,1536.16918571653,-273.030901575194,658.170989101964,-106.517507794398,322.799426724041,9.52202433913789,404.458016555651,-47.6736148668545,860.359026968559,-87.9353445837861,313.344991898574,-20.9574277640486,1980.10402704155,-165.618293579253,584.819126551713,-57.5183451727414
697.202165574613,-26.4273830217978,1751.32297262555,-123.93144475484,872.055757902683,-109.644766476745,2339.10319626847,-350.38200634348,635.480828824956,-47.2455857364117,1836.98560286419,-254.161515078679,1295.21961989639,-134.309587718847,1533.88207287771,-273.044403866391,657.679388033357,-106.744212167531,323.978865651354,10.2002906151076,406.107449222938,-48.1183404963667,866.199274520887,-89.5485152279894,313.51076182387,-21.0137954767262,1985.9667267812,-167.06903649001,592.755847360279,-59.8725871224441
701.52270064232,-26.959071142778,1765.59598683256,-127.364993527165,875.853388523282,-109.058258349019,2353.77550151114,-350.546398853148,642.151189931317,-48.4172236059203,1844.06327493405,-253.568201000873,1305.48232670121,-136.353604750729,1543.32528924562,-274.899471711196,662.11982466842,-107.675477248589,330.166974219177,9.04221038746392,411.123097361632,-48.8245215168653,879.025689229752,-92.2287322965226,317.491350399486,-21.8379416788111,2008.1998881873,-170.750365426781,603.864505089338,-61.0373351881181
709.842630500924,-29.4353806542921,1791.23973376708,-132.449630272693,887.254421329439,-113.120223921957,2384.41920688541,-358.556982311778,651.126615952455,-49.9469571253766,1864.40209573076,-259.958015121198,1318.92116799181,-138.957453987418,1555.91401561592,-278.490785602299,668.951997421695,-109.473696216542,336.503907494537,8.47132168209239,417.004934947016,-50.2574174173818,889.138504154037,-93.3454684283491,319.223043588855,-21.7267713446531,2018.69817476796,-173.759293287583,605.06255112618,-62.4657623837514
699.882524727908,-27.7712416325272,1755.41780732308,-123.01871598714,875.106830087508,-109.885010946966,2341.33134979216,-348.975383007859,636.577079509082,-47.3315685012544,1838.98562863744,-255.07851719563,1293.29887813964,-134.128415982377,1534.33362680112,-273.199214778737,656.296170033259,-106.151210673348,322.569823828685,9.94320748152379,403.646069667523,-47.3351700028528,860.379251854211,-87.7792501895849,312.874852936932,-21.164895385558,1979.50040186835,-165.504794263754,588.365143757866,-59.2745051158344
700.127754947554,-29.3867734758915,1755.14007832926,-126.114056118102,872.141200536063,-110.03262952509,2341.49772253681,-348.275515464101,636.415326085062,-46.7274931163923,1832.35529571386,-251.827127749957,1296.34137205142,-134.690441491512,1534.76718746004,-272.995983755825,657.238084624565,-106.119946538248,325.99930998954,9.56740098091678,405.635204870023,-47.412517243615,868.589846009951,-90.1227375310563,313.976020226127,-21.2476819746328,1987.26132844623,-167.392698414355,596.171788137869,-60.3446706673442
705.728225194105,-30.4258323052448,1769.1899355239,-127.336325326371,878.554011957449,-111.573106386461,2365.37107271143,-355.170014079075,642.679794526747,-47.9768992207179,1849.8181177909,-257.076656695618,1306.47473606262,-136.013880887505,1546.52707574523,-276.10752759406,662.240764747615,-107.603501127679,331.920711791155,8.70416040480573,412.374212364862,-49.06632936256,880.981623295821,-92.0128417210765,318.050443377571,-21.9065107100402,2008.26828648172,-170.616850312657,608.932209401687,-63.1075431256385
710.766527400457,-30.6987355944982,1794.90816627942,-131.761883942065,886.902277697636,-114.33896778148,2388.08234119527,-361.370585972126,651.610709770523,-49.8553531320342,1869.16556150349,-264.137543384083,1321.5472322221,-139.398480753519,1558.33695970459,-279.591069643299,670.037399031183,-109.563052157964,339.331154069525,7.78077164762743,419.6752770817,-50.6425531413547,899.602862713608,-95.6553593629643,323.039292465402,-22.8131957807113,2041.94531553412,-177.773452390419,622.159611289724,-66.0748774997444
706.167108103938,-29.7236673561283,1767.33952919683,-126.378927288085,881.577097272259,-113.709895117163,2363.45348637684,-355.350435761344,642.053244943558,-48.1895049563913,1847.76049451251,-256.946819678313,1302.39751268246,-135.61129366115,1542.70723234184,-275.623628872103,661.121664780509,-107.553155494189,326.245790448962,8.77991229383528,406.090437788946,-47.8025258693272,867.473109960043,-88.8588884741338,314.233213171719,-20.9920860293772,1991.39371495325,-168.36685522596,590.194193158506,-59.6976807003068
698.117644331949,-27.4171154023549,1755.81893927615,-125.816312178045,875.849791890303,-111.954641940166,2345.60886124682,-351.856397508279,637.437600595049,-47.1440971497646,1839.24748870916,-255.787440390735,1297.57823379103,-134.046065639249,1537.37949948677,-273.992584542532,659.534043294634,-107.087469181579,325.960172704172,9.51250784141303,405.696140475449,-47.3868474648427,870.538232081277,-90.2170254808622,314.195218223284,-21.0768938806502,1996.8788525182,-169.216637586166,596.087466099907,-60.3250413255797
701.206562372166,-28.748737125216,1775.58306729646,-132.895708055785,878.057464324189,-113.530738322434,2362.94759188305,-355.31776221512,642.982062488867,-48.6542348965291,1841.66409172695,-254.814056483755,1305.80734842343,-136.253484388986,1544.9521499099,-276.181754476735,664.080224104538,-108.006647410788,332.282243021661,8.50350686894242,411.364453698493,-48.7387584005932,882.954090266286,-92.0200160832093,317.785507821944,-22.0417170093152,2018.15242555692,-173.302796440029,607.855728143845,-63.1368075807284
705.409727136923,-29.3041373748632,1791.78475851297,-132.77919716217,884.534422382429,-114.092067000821,2388.69335862461,-361.749279626723,651.135076610272,-50.0027080639131,1866.16713013706,-263.224468232531,1319.54057623718,-139.77966690286,1557.87667830587,-280.152250441244,669.941307194898,-109.326363709957,337.962258484936,7.64464635756842,417.973324072616,-50.0516742501119,895.57685596843,-94.0887570844924,322.184355844052,-22.819498155242,2043.71103271201,-177.840257459812,621.739322049573,-67.0829122530359
702.578030365121,-27.6377152247948,1769.1995285029,-126.33249171442,876.365888536029,-109.756890851089,2358.79566351426,-354.918117223236,642.623159302656,-48.8418548495677,1849.71190321833,-257.929963805822,1302.5025088328,-136.280748819591,1545.37941178269,-276.190679567562,660.890066301405,-107.003820563855,326.654342366985,9.33222280629579,406.45259658143,-47.4249174234988,869.646933734808,-89.4489452175496,314.782584173155,-21.2394384760527,1994.50416739445,-168.086834470801,594.454541373929,-61.4123333784056
700.208183890098,-29.5909139261272,1757.03553494531,-124.545966303556,876.976851317867,-112.606830287126,2352.57993287876,-353.08633071339,639.228337144272,-47.5706294025845,1844.42440903313,-255.444530810604,1298.16411726521,-134.703155785504,1538.88290372926,-274.634798174092,659.559247356913,-106.975007281065,327.949133445683,9.32810340776202,406.497656655187,-47.5185180963891,871.666494999753,-89.5089524736946,314.550273693544,-21.2706222617549,2001.66323140289,-170.570719934171,602.455478827291,-63.08935321411
701.295031021876,-27.8923097512646,1775.25684352232,-129.869524199553,877.26215138422,-110.730959498496,2369.66034627546,-356.459359119713,645.616404883363,-48.7107896467466,1852.32246484916,-257.063096723956,1307.82195887748,-136.426315079615,1547.97926052935,-276.811679441859,665.007030746791,-108.143343308149,334.070149597533,8.202904203946,412.161346993817,-48.7959491845715,884.725885036004,-91.5059998235155,317.977839096023,-21.8513978100861,2023.70041736063,-174.658910076756,612.731100530573,-64.8937202492027
713.831794633548,-33.7647643432232,1795.0290324457,-130.30368416705,886.914595463767,-114.101526290315,2394.15502158232,-362.129473581603,653.84398320478,-50.2735735139972,1868.81667229272,-261.586377602011,1322.62495295292,-139.973628733745,1562.4207036171,-280.479815971134,671.374233504259,-109.731891786202,339.803731556575,7.66479972689782,419.202954079243,-50.2557139680131,899.428085880654,-94.9765233696617,323.40382589964,-23.2411572400927,2050.777876764,-179.751681306993,626.534354052894,-68.1508342488644
712.580685251432,-32.9948873606416,1784.92430284664,-131.684302947019,883.423228319404,-113.093060247166,2377.65936293645,-360.296863186532,646.295282116197,-48.7949551100784,1861.00625070239,-261.909381463594,1309.55789503093,-137.66540523715,1550.18840138836,-277.687630222011,664.040405885533,-108.006733360594,328.90230383464,8.87717514322549,408.528978227656,-47.940025809181,873.127816760601,-89.9513755677779,315.992744312866,-21.7690338298816,2004.45797436458,-170.143391562577,598.945289567419,-62.7809082835452
702.79389705297,-28.9647500692443,1765.76658123078,-126.736857142931,880.279627074317,-113.716369230563,2362.7108461179,-356.596385618003,640.401145410486,-47.8292252726699,1850.47780942449,-257.983465208316,1301.36705421347,-135.028950639323,1540.61680522484,-274.828431445589,660.10917098783,-106.717419132797,327.997395645972,9.10735158057453,406.627644686982,-47.3651546844021,871.807548922901,-89.3660725150971,314.803526572847,-21.2940929218677,2003.38495323173,-170.373405588301,603.408744875208,-63.8161375542391
702.088194181831,-29.1518510174039,1774.56958071577,-129.608670617808,877.794116875263,-110.177716606809,2381.99247742277,-363.654842957754,645.765140751713,-49.116679372111,1857.37231336207,-261.909746643368,1310.91562302098,-137.464035959881,1550.63801478276,-278.436033975096,665.006476772496,-108.08566692589,333.751986608429,8.40017480509869,412.128115242333,-48.718006958009,885.453483978732,-92.3598966424493,317.620114568779,-21.5762013521843,2028.13520539418,-175.414897086276,615.571862927909,-66.1720453229041
711.550348108168,-30.1642812058054,1799.20761060499,-132.455784787148,886.162226161664,-114.071275463477,2398.63491330562,-363.912308899303,652.582838636024,-49.939856970636,1872.13751175174,-263.728397505175,1324.66545886013,-140.899873639959,1562.00820234434,-280.187781753247,671.798925817344,-109.879921084873,339.626421071846,7.85274005942274,418.434169826387,-49.996969346944,900.000318121503,-94.6639886150254,322.194988281397,-22.399776084792,2055.41145706639,-179.756110330127,626.938830248404,-68.4358889520949
710.700631513411,-31.1759615310251,1796.5087729434,-133.577371381078,884.755818387795,-112.348211562898,2393.71539521287,-362.630539929898,646.260760111367,-48.8984982153879,1863.7783570978,-259.831461087162,1313.31895198331,-138.531382535731,1553.05607524649,-277.809683354384,667.408594502679,-109.091319639958,330.275841927935,8.55846953761125,408.501734188604,-47.6863417638065,876.850874233056,-90.2562280698357,317.524991353253,-21.8594908498625,2019.87585330785,-173.81244047294,603.2574144014,-63.7224841247869
702.058752210131,-27.4910171496154,1774.57670718663,-129.696015251003,875.398899748253,-110.536140783524,2365.68037820142,-356.747016100232,640.18721003178,-47.5949618837307,1849.49527312033,-257.755187226792,1302.74023473599,-135.557717758495,1542.06100400904,-275.460291775473,662.885012364138,-107.576654000157,328.56699242311,8.68214747113948,406.775216256959,-47.5639148736607,873.42703649548,-89.7716882970826,315.0234790604,-21.1256813463784,2013.7249629201,-171.694634250961,605.806799759707,-65.0567379507652
704.22626614168,-30.6909609477643,1776.72316269319,-130.949144957158,879.432047909152,-111.113106907926,2382.75046600402,-364.95856689633,644.810839125966,-48.6518599983804,1855.90004501701,-259.080665156252,1309.86256198919,-137.861477210029,1548.07007876678,-277.684880411698,666.285931026675,-108.827466777085,332.599744791131,8.56163243296418,410.576347987268,-48.1956900202671,884.302583836978,-91.9470909339464,317.0742824132,-21.4931042563221,2030.68863275742,-175.091963411297,614.867214804326,-66.0130000467302
709.634109739301,-30.7791298108309,1800.49216959312,-136.316505666939,886.243830116473,-113.975645813002,2401.33863033216,-368.450896999648,651.832095098383,-50.1263104696816,1872.47236096759,-265.053997089958,1321.31269248336,-139.970498557999,1559.76684526394,-280.44616767252,671.418798996179,-109.866840037504,338.804711705704,7.7860801312159,416.126069882656,-48.9924280621973,897.445416112014,-94.3275666258842,321.429817651739,-22.4106833206438,2053.08605617335,-179.789671512323,624.642021569686,-68.6459278890701
704.749204748467,-30.8830793394745,1774.09376819423,-132.665170167038,879.442688896002,-113.734966698603,2367.48229664309,-359.749631997543,639.980595785133,-47.9144756636403,1853.38486436198,-260.546034733704,1301.74232065515,-136.774254836183,1541.13471248283,-275.00672358397,660.174636017518,-107.145992447376,326.665467867749,9.11455861936494,402.343168497529,-46.270821001188,865.251914899363,-87.5993925298369,312.893075000358,-20.9475995392833,2001.14603873627,-169.753389042844,598.639759020482,-61.898269354769
697.673258790572,-28.9905008105387,1767.0746103133,-129.825683544366,875.132795970871,-111.628448736704,2366.73510504295,-360.233912901694,636.807956598644,-46.4730526364085,1843.29959900562,-257.595086470266,1297.83101805359,-134.864603052161,1538.24810590939,-274.489683989973,660.42287978838,-107.393178958652,328.415210173928,9.28798671548771,404.893288331126,-46.9152929073229,870.880953408309,-89.0595693690912,312.742360252365,-20.4841839126166,2008.3394397159,-171.897220827327,606.688521921512,-64.1837514971138
699.990432179005,-27.1036347479333,1782.12133403368,-131.864275540887,877.916422184403,-111.991179471263,2386.41509374148,-364.639991821086,643.505844454154,-48.3475842848237,1856.04289354359,-261.208378265184,1311.4663860978,-137.725442444216,1548.49448399429,-276.823165387268,665.250733289087,-108.356119108957,333.281353663989,8.91517569491062,410.65091774025,-48.1961806666541,883.967964716928,-91.6595413855794,317.038903772124,-21.3976215926602,2029.17355487787,-174.857096574283,618.471465084736,-66.8694468735738
711.350711990208,-31.9171832705289,1805.01544756872,-136.403192805779,886.541737982167,-114.530808345369,2408.81105235107,-367.997112369891,652.011167828431,-49.8500092022047,1876.44785176259,-265.226984972275,1326.24690159048,-141.135482350077,1562.81955231205,-280.857233367064,672.653569921682,-110.779966074763,341.532347134194,7.31801633577811,415.136809796756,-48.934080183808,892.071932915026,-93.6415977754744,318.538273299044,-21.7497397143743,2034.29378226693,-175.88345332826,617.984076825836,-66.9338872480001
700.099437004673,-29.2074063840843,1764.07037623974,-126.411290590463,873.530752953767,-111.650867583661,2361.64992970854,-358.158093591438,634.538414603291,-46.4694267586151,1849.54951912609,-260.010277734694,1295.95242045957,-134.558235192393,1538.27902175545,-274.827861579098,658.479098208499,-106.719580706281,324.855875352511,9.50501450606051,401.076195090731,-46.2134747355022,862.008210059929,-87.0083986466312,310.794568686147,-20.143470065928,1994.06027294721,-168.213404046551,599.728854918575,-62.9270642512323
697.356006412724,-28.2608107385279,1763.45816515345,-129.896361266044,870.639016089586,-110.003323448812,2356.81057846964,-353.654591148434,632.423846060385,-45.3374210585323,1836.51689003655,-255.792854587108,1298.06413152284,-135.327395173568,1536.23751692954,-274.454091056043,658.338033743332,-106.816633431467,327.594215016823,9.32116057979893,403.433318951109,-46.501899695806,868.553539532444,-88.3250582066968,311.464927785167,-20.2228709894502,2002.49904006404,-170.414360399312,608.346094504176,-64.4341511349895
704.025990793118,-30.9217028453638,1781.62184238854,-133.39225346955,878.870754827172,-113.272007651269,2383.38222456166,-365.428316980444,640.403237736655,-47.6497863120595,1850.18462139246,-259.15857844176,1309.61892883905,-137.857549766523,1546.60637227472,-277.658639559468,664.752365742879,-108.58085882346,332.973173917805,8.71194358134449,409.389821811408,-47.9751423003349,881.882282216116,-90.6615028006563,315.095760862383,-20.6974694267426,2025.2953321886,-173.819396933689,619.303482914081,-67.0917923565327
709.868906921463,-32.2592398533974,1797.82347925255,-135.48963848338,883.603844675567,-113.390699503665,2401.98553429873,-365.363637120948,647.934434446206,-49.0780257916008,1872.55608091511,-267.260561021461,1323.61861780383,-140.919664094313,1559.17032316765,-279.781794414388,671.695158137404,-109.838013498774,340.210169678914,7.25096131831555,414.673442252978,-48.854188613899,893.353054474057,-93.3070148412532,318.272927093624,-21.7181470186307,2036.62469357471,-175.958424511452,620.114865180303,-67.0985643720724
699.95695326935,-28.5622614029612,1758.79121259637,-124.952871279669,872.278745603127,-111.548847440067,2366.50408955119,-360.307476586748,632.230628442417,-46.3219095920177,1846.13765272459,-260.98324386575,1297.42383571288,-135.837065494057,1535.87068494273,-274.78376372863,658.460807666407,-106.653830173572,324.846745033402,9.12889935049318,400.237618784339,-45.7294012749152,862.565293676366,-87.3268566053243,310.692804995296,-20.1756903963473,1995.82374190708,-168.553685183901,601.048529909111,-62.7997133967283
693.070337544615,-27.6038048208867,1754.63408051174,-123.869975293092,869.365419890141,-111.348818660297,2357.1089724415,-357.21568993036,631.904047041963,-45.7411229328353,1835.83285098657,-257.54814205448,1297.17267086365,-135.853956718558,1534.72068043218,-273.978339243591,658.456235974835,-106.289080576644,326.827436957606,9.38614935407314,401.817880155951,-46.0483100107664,867.676367661751,-88.4366250809681,311.047644371098,-20.1465091511105,2001.90097802241,-169.853692217717,608.865621103111,-65.0269067243032
697.616427686578,-27.3700147487151,1772.93971740607,-130.212301077198,876.467728784975,-111.905686004003,2382.65431497545,-365.577536479228,639.197585692432,-47.8917677109866,1851.90692275244,-262.274771194154,1306.3868445177,-136.482986529765,1544.31517914276,-276.328312958845,663.818057012415,-108.034118850335,332.305409365103,9.0171921578856,407.348215829474,-47.3998271051871,879.604847359621,-90.7307211688447,314.51527414016,-20.8830885577901,2022.03946420855,-173.455287269601,618.221928648112,-66.6371126448494
709.186359499056,-31.152007152814,1794.31430622511,-135.844106962946,883.143407189914,-113.860381259114,2390.48853286037,-363.800490339509,639.137012887211,-47.7521296984421,1855.05430991796,-261.448358034874,1305.06913786408,-137.087539893554,1543.37185232217,-275.903150021582,661.576114314784,-107.341678775526,325.956447353319,9.54909517873488,400.939730768641,-46.117649372805,860.432573759343,-86.654062323849,311.03042105732,-20.4241855536635,1993.54257963715,-168.199510239211,599.866345456846,-63.1967738651417
691.33511121221,-26.88939935809,1753.8148113196,-126.967681068156,870.465914908007,-111.771771407805,2351.70272537302,-356.073031518798,628.431893221026,-45.1497217604465,1833.33588854752,-257.149458960934,1288.87660425329,-133.111669733579,1528.7151356456,-272.187423096444,653.837324905028,-105.265842147379,323.645568148001,9.60017593868478,397.768928364877,-45.4032113832112,855.080074607694,-85.644624055957,307.379283557703,-19.4519730483978,1979.15343669614,-165.17886621962,600.150180539358,-63.3165556604473
692.944026574678,-28.2996393293914,1756.18267107489,-127.146782475046,867.946984954417,-110.129231346327,2358.84325375709,-356.726693319758,630.873038354604,-46.0811142788479,1837.53490621545,-258.65674531812,1295.66958672253,-134.647285965729,1532.20273319198,-273.264777236789,656.033526334495,-106.145724424525,327.522574886299,9.23405253313537,401.164717571233,-45.9223234799415,865.29577630186,-87.5927225083777,309.478226631674,-19.8523411851211,1992.99894891361,-167.769149270151,609.668305130685,-65.0425764335839
702.056368610585,-30.7156867174141,1771.69389068979,-130.853456851362,874.855552299482,-112.493297511551,2382.8757796925,-362.772572344801,637.816426052004,-46.8933354442725,1852.98850116061,-261.742124637384,1308.38971391702,-137.482715583574,1545.70183915636,-276.787483019746,662.234486730032,-107.206009572118,333.224126247729,8.61437098634041,407.571310490463,-47.1413279214686,879.465126332143,-90.1518093439968,314.625162423756,-21.1255909341079,2018.06565800647,-172.405989431869,620.068645297016,-67.0009332630028
