161.320413291863,-17.4848256609633,950.239432877313,196.085949910749,898.152950225914,141.012351750942,672.913567187429,58.9165470948387,327.797704955933,40.0309426483388,235.947885773245,52.0584673124968,930.231961339101,160.063525934703,155.430868596359,25.9534197348714,547.497869360781,138.711199882858,370.727298791235,12.1186687284123,612.469560209818,56.8375954152414,125.775616465595,52.3624266178522,663.850615547877,242.89657299314,1655.03936716983,115.014508519472,517.626645236459,-31.0738507016911
155.452493501672,-16.9398914727231,911.468393615768,198.022330691198,882.774548045112,136.481585232307,635.035747428054,58.9022817788714,307.782984641347,48.0436470030945,223.171489518979,52.0737565429464,886.206474549668,167.347208631979,147.167045710327,26.3420097807889,531.238939655236,146.031638309194,350.292341722301,16.2792767479632,595.253142902305,55.020960441324,131.100944290068,52.0712066585446,639.338499046269,228.173793087224,1624.51725442118,118.348947764388,501.175608714957,-18.409878100752
157.767254756655,-17.3871586831481,929.069015859744,192.341002379411,897.563357112596,135.155316658679,648.512429118603,55.9210494646917,325.938031793402,38.8309027246736,227.323453003394,51.832454386313,909.088609241638,154.38099127289,150.315749037652,25.24101712493,551.366491269999,135.871587192623,367.595595185087,11.400569053094,598.132911026322,60.3922554759028,122.995165322119,53.7209388601367,652.82591058661,234.419187597305,1638.78910543175,116.209087035118,502.847175755735,-21.8055834557122
160.901505165981,-16.641825982554,940.12589359794,197.954138752837,895.141559962649,137.46875504721,671.679609381301,56.3807648314367,325.44313818109,43.1605643276734,233.530011335465,53.1063506727565,938.82622295606,155.77836621523,154.788651650081,25.6335660908306,532.678519869332,146.065788176965,379.767580147579,8.58627532547557,622.41698931097,54.080670287016,125.701816594519,57.2288959062331,675.742969335534,228.005991573468,1668.6609807578,114.101150124897,498.166723176819,-15.4086162005131
159.64725113822,-17.3522512989251,927.55753193997,200.883023029906,913.32516666997,132.558641582485,646.070199122728,58.1406805462077,320.75852296785,41.3223594323431,227.513271786289,52.9371152905598,897.471137993878,170.064832890569,151.80888556277,25.1973358610349,538.720162489697,136.291004287177,352.309476285599,20.5687141564903,593.551422635645,60.1035806090554,125.668145893924,55.0189477978155,681.373935060502,215.009490484051,1652.8088401195,117.082036689712,496.466466355529,-15.0752548342634
158.553486617146,-17.3177966406328,909.473615097989,207.976365420214,897.585459366214,136.919414512318,653.59546546439,55.5132569745224,332.126231594141,36.5535605562921,227.790732432008,52.1598838076931,916.521359896093,158.758825836375,149.884974348129,26.7054802331361,548.239344060866,136.77607527436,364.954522201274,15.8215876121013,605.404594085495,55.8993893621938,132.400351130378,50.7861869673103,655.500638089302,229.28294819601,1664.73749109805,113.304244385194,518.182643050958,-27.9260083615832
161.239408329795,-17.6125945503541,956.37614553823,188.358964957628,902.45289076329,143.218800134718,671.337435715384,57.529925071909,325.035701701981,44.6035542969902,235.52806370544,52.2720812308183,926.6207486871,162.001364162455,155.692009752345,25.8645570273033,553.194716529709,125.631405841441,384.137367770429,6.5080122740007,632.289545090292,50.6467352699451,132.180306350734,53.8778900848359,686.30288846144,232.553526069354,1691.12142194863,112.947127161163,513.082030605819,-21.3534845832515
163.247468157866,-17.4262998434856,947.407225725389,199.858949632031,933.338424020988,134.219842407351,666.440656922761,57.2825194100085,327.483942326549,38.8512962805523,235.880900317141,51.532816685101,939.414286715123,152.120678565943,156.186537722532,25.4615924230687,542.184044559362,134.07671941189,370.072335834572,9.3148546496259,604.675139596567,56.3527249050929,121.509789484274,57.703466150003,670.67865086864,234.583076691016,1676.34999705176,116.460216620031,522.698481449071,-30.3025653030189
160.115047768103,-18.1491395492301,941.064809941306,189.881961298574,899.382528662925,137.756098042347,653.069802953686,55.222734870293,317.526171228468,45.9866954242988,229.325612769219,51.5025933551173,921.2075656275,159.035006509884,151.143516588452,26.3189306395135,543.608244692781,135.957498300022,358.283650472492,20.6738576563839,609.257029492561,54.6325550583496,134.948920684323,46.6539716155818,660.79204860128,238.04833683054,1674.89603421396,113.300482951534,506.247625423823,-22.979955715839
160.835975836089,-17.84004754818,954.448854161275,186.536583854196,912.792191881528,133.673065059872,668.655554799763,55.8621853929468,315.055704400544,46.5997273340616,235.166264825224,52.5559398732075,926.14933126707,161.936186842259,155.038910636258,25.2562315299484,542.958442499477,138.659486321855,379.469992348709,14.4741564395928,619.587234993486,55.9318216603375,133.606007673595,58.7241836200074,679.734027365479,236.628109094368,1697.83105432956,110.390069846352,505.482881541073,-20.2271123370041
165.727675657684,-19.3241002646105,958.623758551593,201.152459323805,931.931026605875,137.122107331814,687.889164874315,55.7482180879916,338.768454110866,41.933388216331,242.640405506834,52.3880292298146,955.096292158443,159.011757942531,159.14983957825,25.2710659356002,558.344612088011,133.445343253492,376.468709750123,13.4364270553961,638.011273753989,52.0843425170042,134.586362267918,54.8711409342894,702.58488176337,224.150651803554,1703.46574386925,111.805458483674,528.837649624622,-38.4823771398193
157.620500619102,-16.9406096591513,928.315763825424,196.489267918019,896.980642261146,140.149426222776,649.801534013723,53.3608403518922,318.960937938379,48.3992152002597,228.732666920052,52.0864232352798,909.480430812491,158.210351045521,150.584608490646,25.4851106319667,558.501737176724,124.786048660698,365.533169802224,11.2573650285166,592.522585741903,61.0478975585976,134.529649872711,48.1318823559986,656.99258832697,242.660775989057,1679.99003359341,110.023630064669,509.281571594538,-20.0178517925091
157.699589389304,-16.4818388808324,915.656541141223,198.463860673111,910.079509134395,141.369509055492,653.727115000616,56.3198195770712,309.125118684404,51.2224280941546,231.282706875118,52.7693981411337,934.181391417373,151.724031755865,151.398029832044,26.9427905109736,556.253815943134,136.435530169122,365.913839991238,15.9068326495176,604.72153907853,58.879006980921,134.048570895169,53.810234227106,680.91720451894,234.113059478533,1679.77758324172,113.315585295861,516.071564437553,-26.9751292203807
163.178783888691,-18.974852077591,939.655049472924,200.533813200484,913.12524020564,138.652076294017,673.946129357594,55.232315921823,336.264761789162,42.022540300632,239.307244446093,50.9822455314359,940.632119777439,155.343820458148,155.255649276083,26.5265307390277,565.288948401898,129.280893836456,391.027863412543,7.1332806482534,634.860767804615,47.489462582104,130.410142531296,54.1380151750469,695.942311104259,232.295709438673,1696.65380518327,116.369533813731,499.557381838052,-17.7791553038766
155.066233124013,-16.9153944356979,927.46720455451,197.750519800549,875.79094010044,146.755761713812,635.400893112478,57.4460269431807,310.841005396998,51.3108111366995,225.861967784184,50.5352592882268,906.023394123204,158.747251690086,148.787976010878,25.8463640044653,542.791748370826,137.729968031634,350.822671814376,15.2545312682654,586.468857344155,63.4612239960605,123.607449620159,58.621154317849,654.692816892679,239.354324711017,1657.47389726837,113.257322420964,496.335525641731,-20.6185718510397
155.430935290223,-16.3422063235302,910.096716331878,201.00209070363,901.639901604335,129.791265723562,644.026933934785,55.6681832106267,318.821167306354,46.1781194798914,225.947614675036,52.2177410693948,910.800655096395,158.61710102013,151.459876566418,24.0966860704273,554.355496662293,138.639525013881,362.072236596604,13.692070548535,605.779848659301,51.4547310258186,125.838100342302,54.4974371665984,663.139734879903,226.490370530634,1663.40894633409,107.875463263748,512.335650202164,-25.8169863070215
159.55423167231,-18.0811034667979,938.858265914073,187.928959700379,910.531769794868,129.174336613308,665.102599567815,54.8269112113442,305.802618866028,53.9459920706132,232.279708116881,52.927271472085,923.896786767749,158.394913501738,154.193656253442,25.6677283224921,559.329599620781,141.210315146478,367.804028394682,13.9056420766273,612.398892802166,57.2888722142448,138.66156856544,47.7827451929981,681.046616851504,230.063640154972,1674.09429000712,112.521391533343,494.137138605047,-17.3083113010728
154.497167143531,-16.8498490170867,913.43980780997,190.060353559151,884.739894880298,139.345809580961,630.925141583539,55.3080548055168,318.314120583162,35.3591475093233,224.090055191188,50.7642819542658,899.826027652533,153.677327265181,147.501513872184,25.3932138940131,548.277758916236,142.184270341722,353.936489480863,12.6483683031438,598.065441095574,54.2061405845126,130.49474227224,52.9097607633777,653.273235867056,229.780567150121,1644.33419441792,108.893045065926,517.980737616624,-30.8379922522231
154.988844579636,-17.020410910562,932.063592331737,186.919786670525,899.396373574443,129.764370482375,637.589091263737,56.9111642925273,303.055569662692,52.2718685929095,224.113033410054,52.1627979764951,899.87235613747,162.08322814577,149.12853894698,25.2699055425978,564.617133424133,138.667230142826,361.922558107952,12.6196379934057,588.871545201977,61.6324179438838,129.752776809718,50.523925505697,655.336672845355,228.111723665922,1640.7565162193,111.495017189471,503.786348354686,-22.1623009259116
157.993897667038,-16.68080991376,943.063981082412,185.06578989594,888.391453787753,148.763051789593,658.16569269531,55.0813213548383,320.410345021454,42.4908634490829,230.423202091158,51.993764426679,928.589557537778,150.521783612713,151.935721939899,25.8930325443935,561.152468907628,136.824999528966,368.42982398825,16.722364717458,600.69907944214,62.4770347604479,133.879432434014,51.9125800403988,674.602929419314,232.218523715122,1661.36571060538,110.677296503884,509.601746611305,-21.8528598452789
153.743625061948,-16.4012546719746,906.475612839676,195.712247294089,889.030114307046,125.548952463282,626.634657542967,55.2270084143879,308.21403099867,41.4050120844402,220.314987956947,51.689115766244,898.157292880068,148.496760852075,146.689403603639,25.2442993574335,554.614598130081,140.682046684687,349.668690301163,14.7884623398713,572.197616373161,62.1411421957212,126.861317162709,52.2275290118257,651.340509563816,222.928625177792,1629.6975917327,108.516106675928,503.700688795706,-21.7414468290613
154.208051155668,-16.9940776319283,910.846054323814,193.421738006142,876.358931711765,137.463929464146,629.39775850681,58.3687045268119,307.802579779114,51.1266986537291,223.070620006639,51.1966319289857,891.839577729011,162.261280438683,146.321810671885,25.5578567486785,555.2473897364,142.059227912486,351.499113307423,18.6238418168138,589.315812220167,58.8764278399333,125.937683795706,54.1545958001329,642.310283155284,231.642953184693,1626.83379231157,110.154836385532,527.704007996306,-37.6298002226176
157.88787490224,-17.7628807656766,909.750515868796,195.918870745699,880.857790719451,137.066757898234,650.992619363793,53.9204107923543,312.059753968971,49.3778447892035,228.385514318698,52.4203331010024,909.787162814983,162.143425080927,150.907164393878,25.1795559311792,556.435071388622,144.256398727484,363.330750644489,14.8285129792838,608.921398177226,50.949217793089,126.11667297041,52.6494165367866,653.605478767661,234.467210870981,1652.90100794715,106.847580054029,506.781096636978,-23.9284560804671
154.708231412326,-16.0401856061884,904.108504126992,205.87737574373,884.278846059421,134.289574644775,627.995072691737,55.3384519593623,311.496355852522,44.2707235302776,220.624962713066,51.6123380016838,881.278198270359,161.110065955081,147.273454175787,25.6377260737696,550.685517412469,137.137635107212,349.396250085338,12.4153203310011,578.653636440855,57.3973263492295,128.30252871276,53.5172230570254,641.468825319876,227.004831448142,1618.71144243066,112.279690882523,505.190293823243,-25.4421991689419
153.363192018764,-16.3517014864337,908.514453513725,185.90015227312,877.716544936635,136.392116347653,627.65048764628,54.5873545627151,310.885729906344,37.9534241569913,218.78028241855,51.3243685211761,897.162843727514,149.150033258115,145.516637071473,25.4614794814848,551.329391891378,144.075446376932,353.138431147134,8.03631316103568,589.351684078094,48.8694199742994,133.478463209636,48.2676537995868,624.014541497842,233.197027966935,1618.56628594675,112.221913855585,494.6112722656,-24.4996367714925
156.147706642826,-16.6309572042063,925.580995301007,187.300792078526,871.890774477505,141.170287839525,646.369152646378,53.9574560140448,320.244012964744,41.1490849161167,229.663499113415,48.3969294539815,889.191216412516,162.992926881056,146.807604648124,26.6034491525821,570.794606068118,137.980811044366,352.415652718801,20.8369618214444,601.539131352774,55.569347952305,124.084568794978,57.1208545884438,645.314003424445,224.735263701742,1638.04894097326,112.231051654153,516.093323524482,-32.3876706616665
160.760335857523,-18.2476720423717,928.614382907346,189.33779050507,905.804895717432,126.164463227898,663.422599645029,53.3517215478273,325.091804646841,42.5534240435328,232.612222144923,51.7398798170745,923.08527169033,153.275874107732,151.584996393092,25.730637939145,554.137229468501,151.253874556695,353.958829444951,18.5779468514414,592.858682796644,54.8621568596732,130.55087313532,52.5176701619004,646.979891324201,234.684075450827,1642.57495465066,111.792634523664,500.516207881882,-16.5090342952066
154.625819529756,-17.356699020763,890.560031847825,204.366590675937,869.124765612986,139.783894450647,622.229089174944,56.3741791947941,314.165070939752,37.6804582018805,220.444029596456,50.8073983965947,893.673125248734,147.943798925443,143.407907779493,26.0352271529343,548.111081451585,147.325277180597,352.572750371941,8.76119785229434,578.617507523213,55.0617321142917,131.082596371737,52.0405756836673,640.421125377687,229.271924447816,1636.83028294936,104.23156872849,509.26870947302,-27.4654967208121
154.309811772632,-16.0099512999652,918.391679944124,185.90611323603,877.356918948277,139.555303335512,637.149011912745,54.800826727998,302.891724714342,53.1301240027621,224.990278584653,50.0223685723572,894.977499332177,154.50123184467,144.769073110523,25.9729940313563,571.9868065763,135.639463919397,358.128305734554,8.61857659908722,580.892063647621,58.8487554161581,122.101115970525,57.1574497390222,639.193314569586,228.520880280926,1641.28729161615,111.082489969854,494.963933102091,-17.8230938678626
159.512770548312,-18.5152928044062,934.260327266863,189.04846741656,890.85865625814,137.978544798351,657.190662930788,53.5373789019494,316.651637199877,48.4146512555415,229.840247684603,52.1507729144313,899.100215756675,166.857321248567,149.607663362894,26.3390908084395,565.530102053515,142.288476998537,373.838396353472,14.1748940279769,598.828142987145,62.7202134888919,129.196036089259,52.4799493335666,653.829749606008,231.822502834601,1684.75957910188,104.525356510775,512.133406109258,-27.1486449973123
154.210709673753,-16.534179569398,899.936038479258,197.416477481282,870.391338582877,140.258795273729,624.786274013392,56.1939815776146,310.421586654723,43.7661170802832,220.144215941879,50.8308669697947,879.975970242398,158.280774083365,144.527796836055,25.9983343131664,556.371436119128,140.674803596168,347.054219439341,17.026589830853,577.70253765265,56.5663307780631,131.039767541038,53.0269135302222,633.828685188562,228.589252126711,1661.72927419825,107.829892466955,511.106976665079,-24.3264329995869
156.283778938575,-17.0512806775336,912.460290058513,189.83491777264,883.143794208048,136.623618727094,634.873624507775,55.0520635704386,311.841571627856,49.3594330021732,223.3112501769,51.6064258523285,905.919181484111,150.552938493208,147.168624175747,24.87608766742,553.84199252565,149.379549173415,348.773528037711,19.8551904026434,582.280493986273,59.3478781360451,128.027903522417,53.0431012929384,635.33041353982,232.662718547453,1672.93822060948,107.243963559938,523.617552374867,-33.0130376215463
159.04661031963,-17.3072302389074,933.312130854385,187.445095733892,891.847306251804,140.221509801892,656.75884998414,53.0864473060695,326.195142520259,39.9149976264214,230.295591400467,51.7187945336496,931.54766609142,147.98901750333,149.794917468982,26.5335442767037,564.237224569111,148.032664610881,365.497621788995,16.1371709780989,610.040005611659,51.2031434753533,124.70643824327,59.6247145757898,656.474291760491,231.00742091416,1702.95139005879,103.969596833601,512.217126971313,-23.8111221481606
157.127783960523,-17.339136342183,914.711404410252,189.315964834086,886.384721959819,138.043460409806,631.14045704718,54.3772579584773,323.572540742895,36.7496007864684,223.694133652087,50.3694093021277,886.61627617856,157.2155617883,148.396679569067,24.6753725792137,548.525092893433,152.078563160909,333.181649334263,24.3855432807135,593.386172069614,53.495367250089,128.105708619104,53.3844241192788,649.875154691921,227.395089853039,1684.45813062946,106.78137969252,513.441180273357,-27.2869063002928
155.780846135107,-17.6182625179177,930.280345946775,180.913428404522,879.99845570338,138.752175376157,630.627699339705,54.2971610775208,305.718538039704,49.5851304993684,223.923030711678,50.0860396328897,893.35000975503,159.963818600578,146.380975638172,25.5635846378647,564.124478752014,138.930711411761,354.074732975001,11.7939813426338,571.690866208172,64.8566470963939,128.860668260722,53.4177361819408,643.10485292834,228.09898173384,1686.78078787133,107.769663183093,511.889178697823,-24.6931935615791
158.471495648876,-17.7827522122626,948.621566347931,185.699062674221,894.860751514384,137.546984651894,649.861778721579,54.3607799695141,314.233067564634,45.4303867415012,229.716156022716,51.6690383618897,914.330125052658,158.04333966801,149.920743086277,25.6764987078724,566.871044303016,149.770524792922,362.660547067057,20.1469356844436,591.510716950471,66.240052176436,129.294440151498,56.3965557342493,652.028518582659,242.501326348983,1716.88165433929,101.893358236814,509.027181278987,-21.5269145064511
160.848040841189,-18.000096568311,943.160781731904,191.1856896868,919.681544790531,134.891401258987,669.107762750265,52.8207007679885,321.535680975469,51.020910485767,237.557521651397,50.9923298810848,936.152770047525,160.546436845039,154.534299834068,25.4374592886135,559.553815657226,152.753499835635,365.783728589147,15.7259521957549,609.1252424653,56.9258095757015,130.033933568177,54.7819536773784,659.422369572276,239.074800912605,1714.66319285959,103.825901234165,515.702547238634,-28.6985818653775
153.794001638161,-16.8510212718501,903.279098652552,188.447863017113,880.126389788489,144.561786189517,628.226010178347,54.0160776303663,321.243066251693,41.2271021531559,221.584101799473,51.6681585523064,906.15099364042,151.252551742141,146.749311548536,25.2118220141027,560.657984796022,146.52844764528,351.363526210371,15.6548196894536,589.644244853742,56.7673715056167,124.591369542557,58.2644902784589,651.894091355533,230.878912858854,1702.15325646123,105.569754818621,522.116722884253,-29.3335285462107
155.891757769435,-17.1285709612546,932.869008505957,187.586078352562,897.55314163696,132.646017423082,637.089461598077,54.6743742515688,322.892059211085,43.5485933213617,227.61492197516,51.3648395482014,904.962943793767,161.17206398767,149.508923003741,26.1986349615572,570.367456954656,143.159259500306,362.452403350356,13.1678828868395,590.384491980868,55.2349254294079,128.898461287411,55.8569615606618,666.89750840133,231.872582354986,1719.35479797272,100.98371399748,510.920456482764,-26.8185173552539
156.964695639193,-17.0519787278938,932.065429916151,198.677817731439,906.433672723542,142.427276404895,663.034839660061,52.39075653262,314.253679569161,49.7701407428676,235.20298938572,50.6280166611576,938.015466995027,158.999379673801,154.964662223316,25.9059773430686,574.65180163478,142.074990080676,376.792582313127,13.7771080166494,619.56627978136,55.5661577216677,132.953642919175,56.8635766047389,686.718251642444,235.448893864951,1750.71627103154,97.5948308541384,532.16991357671,-30.1922884278261
155.045804025802,-17.7444136420387,915.446966722945,195.605201696161,892.815814254258,139.91239960683,633.450157273913,53.1812236442238,315.230061189599,40.1253444960406,223.635677209057,51.3831938941276,916.936861579297,156.758481788001,149.385584190807,26.046572106175,572.318676673525,135.144726358489,352.048791677475,12.6777802187865,590.523856930982,57.1920614501962,130.568724672255,57.763354122986,668.072848651385,224.591342746177,1710.67351753818,107.693152393818,518.445928842193,-27.977281287246
152.911418557663,-16.5135545304641,936.971052255994,188.051260043171,893.062802580913,143.331839720038,632.295536030769,53.2886010364266,317.461225650247,40.8246387632757,226.35441204177,50.2976538284815,919.226297706723,149.413256677631,148.91382169214,26.2089336178078,568.056074198464,144.524159099457,360.794423463157,13.1803878885193,602.957005196926,51.9217791920072,132.257562960727,55.6776019746516,672.072866315832,234.428095054121,1717.73876736595,101.401428779372,521.060217735031,-33.1636591696578
155.896578800551,-17.4689574325123,937.251272182851,196.722037537831,912.825708940858,133.418512324515,654.303543187073,51.6829598786323,321.937390758301,43.0975232985814,233.548999229813,51.1912692597347,929.919223365131,163.83190624409,153.049293702283,26.0832400247989,584.785934630054,138.077447704071,373.442485463145,13.4903722529865,614.902562582632,58.3997785986839,133.245187446124,55.976878945413,679.211072161926,243.058870110061,1750.82979174016,94.6032571894184,524.130025727545,-31.3663854773836
158.168593059009,-17.5345587287124,941.05300743867,183.727369736801,923.322336748569,132.373214085111,644.890372927874,52.8766656373156,324.799678461795,40.4132743451949,233.70991495727,49.3637191720995,939.043623694559,151.634516956966,155.547472142748,24.9297803272851,558.904395183688,143.686239356421,363.546559776367,11.342515762014,598.346304495952,55.9025112878572,139.212005765431,48.2998037311982,670.196704674523,236.993812401521,1732.05655139444,99.8956627792176,516.861228350193,-21.3595951553199
153.27032043885,-17.0517446461023,929.55199899132,194.637948229368,906.970569619916,137.426368405398,637.214581890995,50.0012505766926,322.905987521235,46.4048659677431,226.103933118404,51.8522670994731,920.308811282992,155.05370437054,150.100573089905,26.1064392266337,573.981428257623,140.760473103365,354.399976961973,17.1809698766169,597.71352608463,58.1120035756231,132.881997204543,55.731194359404,689.224821700173,224.007099726186,1734.3113054057,96.4571814643173,516.597931161651,-27.9735904741956
156.260525119173,-18.1558535855305,952.899483690841,182.436395289592,921.252446112208,128.64228952165,650.695283577987,51.331312282011,326.222174563097,39.5628384564849,232.527169864237,52.7587059424823,930.183108606707,160.100913245174,155.735817914865,25.2051084354203,591.936672262406,131.053755687333,380.54586214744,9.06696488510257,613.100265626863,57.2813408484267,139.524100539665,53.0708372512645,699.210774965657,230.747474850249,1750.13789296698,99.3014495735061,522.610988269757,-28.8111145698142
157.985539138194,-17.3772883181761,969.869062708022,181.77953673846,935.713714565202,133.870070123796,679.987431467063,48.6374022591268,344.682296639321,42.5982758978816,242.866511100593,50.4305816179214,973.934385889502,154.623461448905,160.571276810836,25.457928459556,584.939179435659,137.822706803487,391.310173265085,11.4019628046064,628.850922579281,54.9839613046074,142.825895933187,49.9509319898436,712.09686058261,236.23896887983,1777.27703453948,92.9662920223723,523.643894310079,-28.8136737289685
150.294046283078,-15.7817220567147,909.393818750023,204.295825653541,919.60243345771,132.25381246241,627.085340769564,52.2994166900749,326.324023440208,42.0842858685923,227.225115743388,50.292014067318,924.044091714807,159.484162451185,151.30711861427,26.1464649928248,571.926791162002,144.875754527539,359.11311429664,14.3967445004605,611.768655459232,47.015981640798,129.152258648,58.4053858055226,692.852394124127,232.798077359699,1737.18157341029,99.3711407619376,522.457638002866,-27.8848440397944
153.262867472615,-17.222782254186,948.242770524864,181.337699962271,918.753258224972,132.586525853646,640.663332693981,51.3287269460496,326.333912524483,42.1554723524609,232.780028087768,49.9305805935093,935.022674726966,151.366761288714,154.828258666591,25.0090345344142,572.837122406615,143.07943885604,376.068900292163,11.2239379808986,621.947787875026,53.0800474229495,138.46413259857,53.4918634369363,689.509467902561,240.284710297433,1750.86898658186,93.955402263187,521.074234328992,-24.7401738006418
156.286566310715,-18.0017391680647,949.733118000359,193.898072371046,931.386165514386,133.793077639799,664.408726611386,49.0142767652818,323.110286644176,43.4444051912388,239.754201432159,51.1413044138184,960.761021868911,151.080623266017,159.600697975054,25.2570490576996,585.434050552302,143.607123415044,383.994814281803,14.3073923763581,634.480891793945,55.3315084340619,144.239954698479,51.2426068029513,714.163952328144,233.410355122691,1771.57682091873,98.5416726334924,533.973680282036,-38.3488336041119
152.788159650833,-16.5432820789739,941.746772289704,189.887975055476,923.314009187007,137.050674912703,632.877974819733,51.3298859856003,331.005322311432,34.3360045059728,230.015379719534,49.5785227041564,933.894216767319,151.945936837207,155.616344009108,24.682455382597,571.543849997818,139.308304731967,357.98391014808,15.1815358400655,607.588269322746,52.2942263400084,127.356964293477,57.3876241769963,697.268758211241,230.365139169584,1739.95889676549,100.978056761442,522.088730511256,-31.9190756078426
151.903257438966,-17.1478601398719,937.993627373953,189.441976617217,918.04142905153,127.834381181317,636.583465869735,50.3681256139775,330.014636683648,41.0252249403045,232.091310507617,49.5635020133998,930.076384535658,160.588434229444,153.371837934244,25.8276422533947,577.219697572284,141.689988614115,372.539085816145,13.7874077832733,604.833670250731,60.7539373945054,137.690760160087,55.8749194953922,691.274147406171,238.656564637205,1747.70495142953,96.5987613545193,513.605895151316,-22.5551643129936
155.165639744006,-17.0950655507717,972.516389226739,187.829274672625,927.668665420552,140.034352960194,657.10417269274,50.6072939918402,325.838154849409,39.88437429519,239.262309121992,49.6999058524642,955.574839482641,151.48837149845,159.499931424645,25.3324928813069,594.891470140693,134.103838286187,391.168032938372,7.27033142602652,645.860592303799,42.1288334034669,148.503964089339,50.66307669051,714.472362937408,229.364475262472,1778.37212857493,90.4896954220883,526.887888749734,-33.727339475239
159.485526005206,-18.7048326064464,982.388932503712,185.998872281069,942.104033236563,135.104312457884,681.755111254462,47.9648056854678,333.463196937764,46.3074966616967,244.725998353071,50.7176302381922,976.421513015265,152.671704911492,162.985916940933,25.4964817522523,580.674166992173,148.099447610292,380.841633887754,13.2764308924438,630.166991007798,57.6943593233685,136.588343323283,52.406853394368,716.695760411298,238.032433603243,1763.74830018871,96.2729262694207,531.009451834817,-33.4156090614669
152.133434618594,-16.7101839064744,963.748611607397,178.291918229767,910.410579736011,144.632214372422,641.643145090571,48.7307850131101,315.016397019788,52.5581851282974,232.623305359603,49.6891033301811,945.320101103559,153.089174879466,157.004120747727,25.3155395222252,594.056077437415,135.64797295021,367.912742680581,13.6228244562117,614.462398111948,59.7924676725033,145.115880204939,48.7802646191654,720.721920183566,222.232761609209,1755.50914257334,97.291495319629,512.790472779785,-14.3407184225913
155.895356370062,-17.7041586215352,960.716859210011,190.382041630976,937.819957564864,132.11424654325,658.019530906331,48.874034690096,324.124194100592,50.1127547135254,237.987487459739,50.563910506457,947.791918978128,154.279363537871,158.628451436534,25.9476716431872,580.702137295514,142.224275272783,375.002646489524,17.8887295131752,634.537318564868,50.0903010218379,145.011878849627,51.2155844959927,722.751773607099,235.627901526747,1778.35842118656,92.662963330792,524.359733819069,-33.9146133875094
158.486257014445,-17.6303827528966,980.452459236346,185.079770787471,950.686967145223,125.892528519874,680.950486918393,49.0003584556214,328.619918374422,48.0566556801441,243.826330922293,51.4487763757231,989.475285444978,145.51317796036,163.521796034292,24.7740165666796,594.005408649758,132.00953805751,386.622039805702,13.0040197598129,645.899208509373,52.3498932946262,146.942718354013,51.7994248460565,744.931172173203,224.999973233923,1782.57916421134,94.0186744731633,524.067932288094,-31.7289436936364
153.388007729203,-17.072159598726,931.641478851924,203.578355293788,921.325299101651,130.585670513532,643.407210761312,51.0115589052624,330.285750573795,39.4026776702976,235.33868464774,49.6264640949338,949.336331576457,157.112358734446,157.835040138337,25.7716846049002,585.869588721766,144.746501626827,378.314197441613,11.8300697072497,636.429139788773,47.0438594363843,142.561525846336,49.7858827176954,724.002804962381,230.574342729324,1774.45539840399,91.8178118311375,523.384813945745,-32.9335397579893
155.838005824402,-17.5900476915224,985.950879076438,172.071895651523,942.70012543082,131.521268706063,658.003439015871,49.9749721717688,320.014804665907,49.2309834036318,238.937792560924,50.1074909513101,955.634589632746,162.275978710763,160.758758835734,24.7912277481163,584.530404410922,144.474034540841,398.506798953043,5.24010061575024,647.028665898785,49.0524354989739,141.8108007653,51.8009656747678,722.117521942092,234.299102109784,1788.28859189821,90.8245099852609,514.850556430203,-22.9586373666713
160.198772351155,-19.1739251332635,994.69695231956,182.102239678495,953.686365257569,136.127064230065,685.744507017659,47.2365777790432,337.12663144899,42.3951088036361,245.162345370076,51.6244515792196,976.43137457532,156.821499031351,164.850035307194,24.6312337768407,593.644347719183,141.516231887262,392.254910034819,10.5773987033284,658.080872724019,43.2748295835796,145.274557295276,53.5269075518808,753.999974698977,222.683815128907,1795.31873045193,92.9845579771992,521.020119082413,-26.5058443452815
153.282382544356,-16.8463032232982,955.299217015459,184.558360322547,928.387846140448,127.11019085379,641.441231532194,50.4217969918343,318.885734709206,45.4290676145862,230.430448869959,51.4931472148503,936.972783131946,156.670885893357,156.60561027865,25.80237643222,597.489794122659,135.664511659932,372.960284765441,11.7723048653449,619.11980871472,57.3762164571778,132.966143749789,56.7868492924264,724.507949783976,226.003253955716,1763.03608330984,98.3938311522026,520.453018531668,-28.5584987880837
154.855377495087,-17.4923461467903,948.803879448402,189.480384133559,922.908469156853,135.371378463803,649.585008646205,52.3277540418486,329.259821357367,41.5227816805313,237.86453623205,49.2518394639295,950.157174850483,158.561404690496,159.550853513939,24.9017273310095,596.24490450607,144.605952740766,388.659696690494,6.74302720439379,632.86581337121,48.3796701131891,140.949823305395,53.5269844162575,725.513873205368,228.818775255852,1779.2108206793,91.9737827120923,521.834651901589,-29.8925266824075
157.824488586952,-17.5790673257974,976.111620599145,187.747763013851,945.830773482498,134.534918861159,677.983476047295,47.8849288103585,340.598194648255,41.3411019631259,243.718622460844,50.217690575955,973.396904643305,156.070949404364,163.982507027735,24.6656365144304,608.314681875259,132.442269888832,401.26714026429,9.96677327778396,654.641643143985,47.4901191322544,141.437019854104,55.9253729389724,724.682320837161,244.23859447296,1799.47263165904,90.5777082419053,512.636818441112,-18.7235852443536
152.352975732414,-16.8908168544002,950.828996321803,192.237910213171,923.06929215894,132.564277053616,631.276679917004,53.8796806330775,318.796155713414,46.0768768739725,229.672134306571,49.8046192282861,941.435487484581,153.892939409593,157.85171750436,24.4486037724118,591.867424414979,145.049743233346,368.888340313788,8.74161032426825,621.942742805689,52.8220691311966,137.318256514029,54.4856233826951,709.739871277419,229.970639798336,1749.50077003027,97.493621134681,522.653154818697,-28.047455196194
153.291209679777,-17.1603429918769,940.813354343239,190.801135298943,915.74855899945,136.823751900355,641.904180484588,51.0279825876316,312.14757393134,51.7276987253203,230.224980765411,52.3899943160552,948.013097411586,152.579273378125,157.308330535516,25.5988895612923,601.992819688814,139.026037443826,376.394649258163,13.9496789863175,620.594498224964,54.1329551174242,141.484527538146,52.6220903134984,703.891421665085,245.693820547735,1755.15748001599,91.7193196876241,533.287955839182,-34.919414356106
156.491435211408,-17.4831250022133,981.364987130136,177.227440660344,936.975450674421,134.688287872617,666.716464214917,49.0979820414599,330.356154066564,45.76298489088,240.852145560029,50.6256089975568,975.874540793791,148.484232705698,160.828561082922,25.7375843275658,609.811280780277,141.403734067427,395.977792346653,6.46948845195043,638.217435664095,56.8696871022945,152.10131648442,48.7206295278987,737.986200043955,233.367736322457,1780.06738750959,93.5683963694027,527.0897637733,-29.3411605541012
151.110904861488,-16.4035463243228,944.455789041969,181.341010349534,923.892716992265,130.148096198283,632.250593501424,50.2060651163483,308.982480367439,53.3862868668951,231.075201781544,49.2365429640933,950.798399556733,146.209015831986,155.970833746906,25.2300211938924,604.890824466626,143.134652626688,362.581080624762,14.2661698177833,623.929448360364,52.8000619082505,137.68606613384,52.9240856585578,705.353995295067,225.099406980399,1736.07839962996,96.1794773645886,506.466982211647,-19.5578492912914
152.21945925409,-16.9927004926721,946.21410692838,183.310431785769,922.803755050049,136.757127150117,638.237264430267,51.7844407292804,329.718905064612,40.7335333860283,228.606380493518,51.3841658538762,944.051135766049,147.200877023047,156.17823689323,24.997386543704,609.339280334062,144.524137718908,369.870033158296,14.4049628688471,616.99692896599,54.7945733142238,136.480432637439,57.6904244108134,698.803446250882,235.949566713623,1737.59407270454,94.6094945192121,508.427259109743,-21.6272200839127
155.758926424184,-17.265926464858,946.443305095768,204.682687342801,921.668127486577,136.005651426993,663.989661320935,47.9370289316838,323.717195403842,47.7427159806755,238.249656553081,50.0644749975606,959.183665017749,155.50192640947,160.94922380371,24.9845427575188,615.758015349755,145.269840803092,385.786002635961,9.9840213303002,631.930967840638,51.5402609607158,136.214193379757,57.5274925543541,717.352998471933,233.365804470178,1753.26750495155,94.0593880345274,522.72250434635,-31.575480297253
156.089053958052,-18.3988575009346,933.38944881669,201.31937036378,930.440586555446,130.829274553757,638.170706174633,50.7548792165127,322.918992738847,38.4293775003181,229.66707935473,50.0949726399854,933.547733184718,157.679253937122,157.923646077928,24.709377231391,606.607026105692,145.529487684405,370.192896384107,11.2657921408089,613.094928710247,58.309720432373,134.782800893463,56.7426214467499,691.490321880165,233.800369950154,1723.56075484625,96.7677089172174,517.922674276992,-35.2932445391728
153.439670141027,-17.5487387156554,946.690744638956,193.583153259459,912.627266950528,135.820560341457,636.30831560612,52.0663344992346,315.100709235904,50.0866505848873,229.119422818859,50.1340765947203,938.356816714458,154.515757361916,156.925097403201,24.1553943371215,608.000472863942,150.774556861391,368.227365505791,13.0579595877853,614.998525661395,55.982450494907,128.266167888129,61.7875416967205,699.213505520804,234.449960377246,1721.8997695738,94.9879094266649,520.162715229085,-29.0288560869783
156.072688711032,-17.2773540190949,950.87702425404,196.341352519124,928.435941193311,129.957259031903,654.260842528,51.1230041606806,333.319282850368,43.0011187099142,237.925451292804,48.7081814969147,962.456414897406,147.068511755847,159.90217381459,25.2476945315208,614.795034046169,147.187732903059,376.578192827745,13.1114242045509,631.48933305856,54.6958655451474,135.843398214239,54.2925106974779,723.916881497708,223.224000769011,1748.20749785929,93.512856358167,522.321744097101,-29.0971232653067
159.826535147453,-17.6266285508035,867.201510584539,184.217958026547,914.335881347443,137.688883373641,688.776339034667,57.4983184204178,326.004198468321,45.1499858823282,249.533250040151,53.5281330974247,897.114368301941,150.242367206949,149.906377255439,24.8151977233498,594.594616315219,154.579920602682,388.243985534581,11.8595056183735,615.078285525626,50.8222868199965,134.488309911238,52.19435338864,694.941191446775,226.988455793915,1711.50513513016,101.476387467931,522.360816471558,-26.7051641045215
148.047328292392,-16.5643813223111,837.83712095631,160.290951318059,900.724614000545,133.837168421086,751.200937603596,61.737753270608,312.553140186327,46.0348560630056,289.124727666416,57.7321801460675,835.214594750516,139.173428960726,139.311677947986,24.1369375273815,606.6760969179,144.701028620409,506.730463240129,12.628817523442,625.260575696353,52.1745265563605,136.324785736638,51.6670162710252,673.058383771473,219.74614892237,1708.65648246398,97.2517898461253,530.401758209683,-30.7064742064788
149.90988599664,-18.0301340444686,832.919473984807,177.505080415629,905.532702657615,138.327077044956,759.276294199068,62.611277827761,331.297927561197,45.7496722143372,305.654027333991,61.7702536290392,841.212072747147,139.047380362863,145.508459477408,23.4077870466235,624.143612290523,146.661927694296,526.899383131323,12.0641523376906,641.767073335412,52.7751710274929,134.833206231192,50.7691397400458,689.57172755444,224.053382610775,1729.93417669405,96.3287266230011,520.936671372832,-17.2210719436815
167.800420936528,-19.3183688684324,887.137522878709,183.391200703308,909.739568475361,141.718454578313,712.248279893525,59.4409610712917,317.91020521474,46.907608015782,247.480451740145,53.7684384928729,913.599571442829,145.725047867316,153.991251282078,25.3993294787556,631.461651832112,158.393452568839,380.618341555335,13.5584417277316,609.815718325661,59.6862874763488,132.804521233201,54.0943874547614,688.700341747201,224.775612360293,1710.11357611598,97.9059919000569,510.557542604713,-22.0629226884124
155.230224410401,-16.8885862814586,926.282512675691,181.664640016737,894.17558739311,139.682826960684,672.992989195638,60.5702247868526,317.635361273899,44.5556686046605,231.838606980909,50.767771473636,907.082658995285,152.886887520679,153.285655982714,24.9283195904795,654.468385546392,163.300598323481,363.434194750849,18.1023575900587,621.379763931356,47.5028864512561,136.34421549295,54.6802060730788,682.275272608197,230.857852587471,1716.69141026891,101.286750309367,507.449471841427,-22.5929704675509
155.622321076373,-17.3220742126954,931.870741332818,196.016259121483,929.194184264465,133.051509714001,683.118161825267,58.8910039669881,325.944436100701,45.7338011319324,238.361168254969,50.3514966783398,952.050822173531,142.810562847031,158.344209439865,24.6097544809997,653.021396360651,162.315133978815,382.588600060259,12.8047601099096,640.866127709593,44.7556857582451,142.016987560233,53.8444357501704,706.478332451616,230.374106897653,1747.03027384521,98.8994172296975,507.72255418963,-25.1803635339918
155.008477168826,-17.9545930816622,943.939749275927,189.825812734874,919.090508626656,141.188581352876,659.570611901131,57.6060430327331,329.741644088176,40.0986065861805,231.7845362144,50.9763836263704,932.397745927513,155.978378683624,156.204246312558,24.8281861979014,636.236600973598,159.562073812443,355.549366166312,20.9579586155385,609.228570204625,54.7046353098402,142.550795187736,53.2634512554036,699.790937032676,225.989834765076,1722.9495550646,101.422853368022,505.584262569646,-23.2940098640717
151.093102681158,-16.4779254360009,954.233445698658,181.746720400496,908.786413042719,146.532412999133,643.531898123774,58.1541021857193,317.484619708061,49.959777165997,227.984007940787,50.4893381455058,924.117221756764,153.756893908527,156.634876983282,24.2842982032601,637.29372887693,154.405230187264,362.448825510016,16.3359648136274,617.743692931324,52.2989779903669,138.264888298293,52.3448121773146,681.891546877567,229.332384671969,1731.4140367771,101.370296562793,519.311308237997,-29.7363031034972
150.708532951267,-16.1976911053196,938.066468985739,204.818823110415,914.528497842905,136.924973535681,650.20106074524,53.3844331460808,315.198346280846,52.1293969215394,233.417808973433,49.7586987269816,949.139925596139,154.483788737733,158.568197532517,24.4392602133034,638.315969518743,157.118186644439,375.722416941667,6.38580429541158,627.735092543878,49.7769319651444,141.494807767333,51.8527791387152,706.357610218695,224.25423724242,1748.37883250313,100.38860187973,525.412675823031,-29.7815318665987
151.090437001345,-16.4781861980826,869.717736006426,187.797619575915,905.407276430066,139.109853233762,651.336725775732,59.6748717583982,313.910486571823,50.8208409154721,236.50466066419,53.5062169658732,890.959760119473,154.116050995304,148.41882138755,24.7494305114603,631.442899418852,153.048990351795,384.393348082935,13.916436351523,600.041424076051,56.613231394659,140.380418697691,48.2464115271125,671.684690912642,227.4930304132,1728.91467976755,98.0029935292144,519.634921125368,-23.3955152997879
158.515956453004,-17.4568726034531,847.184134481964,167.445716459905,899.218633064663,134.541691050186,686.885132519347,60.6826860459501,324.862071902701,45.49600503212,272.132569233879,58.6035876012781,855.85847639899,145.361766900285,142.628007457863,24.4447308573487,626.098042474116,151.822324980492,447.748083692649,17.2334649417044,597.493770072929,53.4823506978883,135.011863001837,53.7898403790391,662.474830877766,234.352570641961,1731.79433857246,99.7340523916306,527.758941240492,-23.389149260517
168.818608696221,-20.2382807758845,869.374385943119,172.102966842143,907.213499449156,127.330715167159,702.580546312029,55.8412187715678,325.854633692218,49.3455184835956,271.933920643521,55.7810752877825,890.780782241222,148.377000487422,149.930163226321,24.4946062071213,624.490878221614,144.989893732106,453.765275833711,8.65796006344397,634.214650574112,48.9628184594344,130.255854146903,52.7629381388216,680.908330673544,232.991864393842,1766.20443797402,95.0353091517573,533.138046452265,-29.7726063690316
155.02250836365,-17.3829374920761,844.19421774371,180.242612979726,901.642065659411,130.572373809581,643.101088202813,57.515321729465,319.131852437273,45.5363532686597,237.735468799047,52.5303129336056,884.500845617642,145.662533280668,148.996567460436,24.4917997915462,613.327378131179,164.299854191152,381.249560104146,9.68619394913617,624.702978673715,45.4860098494465,131.606552964902,55.2968102282449,673.136599924999,226.071123465529,1743.52416136211,100.58094137317,512.434621457077,-22.9403780428117
148.674488577769,-16.2475342502409,922.160077257333,188.977454964808,913.832757075078,135.91015295901,641.486304452955,56.9277690681449,320.126701853762,39.9783759410272,233.654073081688,50.3094272414859,931.493156711505,150.544482058545,155.536451229879,23.8876296594165,661.870183349434,160.794051822513,373.109614299389,12.7785201283914,615.619060586617,48.7815117013311,132.249833724805,55.9222300400139,688.252955234787,229.952713405544,1766.79189708438,93.8194351299855,519.891034444552,-23.0081082613878
149.192183032067,-16.2167997305265,953.711674127357,189.570544717193,929.377673925498,138.853202246734,656.63882863568,56.1964189601783,321.486543116922,46.4588141411063,235.270429114344,51.486887631577,949.864529106139,152.736388127205,160.300167488377,25.4405452682795,665.571457432549,167.218832119963,380.286769349195,7.0102955852369,641.008435279103,46.6117374994436,132.641380951382,53.2168493628403,696.209034915324,230.957260503409,1775.86057539434,93.7968438219391,527.398800659349,-33.1770385913217
141.181406721188,-14.7436892890922,945.960147286318,183.669991050415,905.317419061603,135.250396851137,609.400794683047,53.8841470297226,312.91089476324,41.5145305955511,226.363563575179,49.7462558889942,915.240503847612,159.5306131901,156.901895634687,25.0420975577813,660.334533171354,164.808457679375,355.82299152734,10.8657950214057,623.097978656732,49.7241669439162,133.820930202843,52.2193047318231,673.431627597009,235.079780473727,1769.19848821917,95.343706898524,520.45956651504,-24.7885629981634
142.000221585732,-14.8285101266742,936.287793912508,196.95870484975,911.242459150842,136.267551063613,611.943976258361,55.4416793870423,325.22304219395,39.4497618044697,229.478972610728,49.3971243553561,942.98560992096,150.196403089324,158.502464926545,25.1904385358234,670.648678623979,166.695412125224,369.000899847012,12.6839846447638,631.638293756404,46.8384133806811,139.331993357146,52.460396619248,687.206753803628,234.446240779894,1797.86523437145,89.0077521461603,528.062078018763,-29.9214937914135
141.296389821498,-14.9219050698456,956.574191239439,185.610498825634,927.528781491177,133.419965248708,597.995027245311,56.9980097299082,311.762036844587,49.5219971159999,227.694872425013,49.1831144692708,940.566037251844,148.448554770104,158.90067527116,24.4226173954762,655.401874905808,166.792420378868,351.020723592168,15.5942500610657,617.670317110381,53.2874284055054,133.191400179973,52.7745527835809,680.961086822165,229.305914489135,1788.81565315848,88.6734741308307,512.804717218183,-21.7740832128992
136.271571534456,-13.4899074454151,966.231932119767,180.89427347513,923.035149640221,133.959815636885,587.624695668888,56.1219374665596,311.742403018075,45.8642763676036,223.900897623145,49.2754929788768,924.13152475381,162.279886647474,158.210867800668,24.4841547815052,662.901120597891,165.520076320267,359.44750329036,8.78405430317273,644.372735385593,37.8577151613063,136.057580520793,55.3295636181201,695.538805018957,225.770920962616,1795.06060057553,91.6928363081813,510.933388735116,-22.1690603368116
138.307869865583,-14.1746354473027,973.63244848917,181.772524200787,922.90558240166,135.41908624519,604.663527895054,53.5089502552323,314.037188434949,50.4288955232489,231.0742245408,49.607424288613,962.145915496828,152.516202255792,163.234007052346,23.8696994614569,671.997096907353,162.563453872983,378.437762493867,7.47828599792765,637.886340096005,53.6366392979196,136.511473959769,59.0592221065626,704.62735083938,234.047179599832,1819.71882602967,93.0137940803579,533.059470915052,-29.913565034735
133.294490130427,-13.0126311171283,955.258675574999,186.869544689657,900.597287044025,139.781780367831,565.77246790528,57.8427306255183,296.352501716658,50.0728007143032,221.374795865034,49.4538888572085,946.662098992,145.939109066718,157.192862130931,24.7248232917194,662.395984175185,160.541439569368,347.057993666753,16.372158389199,627.775417246458,48.5260922189853,135.901579702239,50.6865851081174,689.194243532937,227.93214161455,1794.20205768153,92.9127069115381,520.952038712233,-22.5491234409934
132.420821069128,-13.2647237824618,956.629429507819,194.481090026607,923.190698342094,136.506435339482,572.775173720333,56.8790979592367,309.746948112464,43.6707541708923,223.168678639608,49.7644868691538,961.049067485553,149.334455671738,160.198821653465,24.4535681995795,668.547355795831,158.371273242732,357.368287064542,16.5604161949048,626.831262378451,55.7320611370441,134.914707562862,56.0792397982899,698.131754155782,231.939851644686,1817.81068724377,87.3634227433293,525.664887697353,-25.1223285051516
135.602540550745,-13.6178533644044,960.741927288629,206.635539395781,947.853541352451,130.0300202257,581.566007504339,54.9045478325498,318.649994911991,40.2651427035127,225.713689397843,50.0625073456542,962.158867987233,160.875734284969,164.459934152909,24.3209345675063,646.623054279175,166.05876309588,346.570904649906,17.3566198188951,626.846279951133,54.8592071813353,124.854324783285,62.3755425134398,702.758830460082,224.287017326998,1797.9122906375,94.1880127048998,526.697741387839,-27.5995093110553
126.4664505978,-12.2528303160172,959.913008307431,193.261776740166,925.795078232585,130.766601757326,546.4028222032,57.8321162520646,303.465706665502,49.3890404363639,216.924953263756,50.0869917087279,941.377582762336,155.674781732385,158.516444624153,24.1371414764086,658.925457112198,160.307771979101,351.652623209921,8.95946026342596,621.007502161683,52.629014831361,138.772254401068,53.1669031408245,691.551034024562,234.42267766541,1798.58252607224,89.7918021995462,523.359691175408,-26.2610233046478
127.649684807409,-12.5623522221208,956.622531639605,198.257323323291,930.057463135463,130.892971791934,559.415061787968,56.1240428092004,308.883498663472,46.6336500218186,222.54913494729,48.8742927533202,949.513594850148,161.852477289971,160.919018706515,24.794630810798,673.594664415002,158.714022682552,353.337146938619,13.1881461477503,619.284261981234,56.7013327034232,137.05991294843,53.8271733443121,705.391732409273,233.292271275216,1810.79111871365,95.6512452356152,525.074872324859,-24.6820215081676
125.784885730575,-11.9842846372555,936.465881105377,202.554859231077,935.50145716761,135.713399943584,538.024973179916,58.2997009436024,304.321369329095,47.7368205069585,217.646308166134,48.3342649896867,948.381582156181,155.771367933995,160.884273827116,23.7754017047208,645.095268076475,168.312987691555,334.074287081808,16.5242113766951,610.391156305937,49.5923479389622,137.568837873263,49.8667846613724,692.82716446417,236.070850148951,1792.08045677955,92.2781151369419,522.108433135067,-30.4708110966867
