163.135557942362,-22.2546468964838,900.036172052024,182.442435783366,896.416449341477,148.326443799123,712.595818978231,50.6893465515959,335.171281514907,36.3288806877803,237.523250983525,45.0215208521384,942.903422137785,152.35828680516,157.452685249013,24.438564670159,660.086733525805,164.447775945662,349.513581262615,11.7759800333708,624.548406907304,45.9200080029446,119.582285981324,61.2619876660016,639.502618208495,240.562792344021,1633.534372922,122.573904017882,500.894476361871,-25.5742311405105
155.282464646835,-20.0712747442316,863.723165755299,184.403926111773,876.827180604199,149.63822604155,675.825324626962,51.6542278419277,323.19428277778,43.6577079749179,224.963172478819,46.2468022605172,914.877451378782,148.647667972616,149.811151353617,24.915283207147,654.120585058819,170.967339636847,336.571781006776,11.3614683326933,608.020535125039,49.3383790806441,127.836642343806,50.6525793913243,634.150086070131,230.979284208512,1628.23213022361,120.329584422043,493.573018285628,-18.2726557176713
158.79891341501,-20.4900705611939,878.896013754985,186.157675704546,897.279059642377,134.041447063075,692.432107865221,50.1450653415834,328.086352836498,39.2753161205753,232.096989583334,44.6685066108375,909.845051664307,162.850622438132,152.405749440345,24.3393226887532,669.218317702527,164.114848729963,356.483914028544,8.7476801741906,626.348107086153,38.1830599760163,118.904533939806,59.9593404110435,658.568189395209,223.820583308504,1640.20487991074,119.591224605666,507.194198381141,-29.208572776839
163.145012651905,-21.7258264289246,883.275167888371,193.106245637897,911.953059294146,139.308746786682,716.465350463033,50.758994758352,324.707514377452,47.7373111390521,236.136821804593,46.804064670736,931.447753696452,159.180398304054,155.303150158928,25.8482166697315,661.793939153574,164.010563606533,363.393183406204,5.19919872405962,620.418850952002,58.8078108105307,136.018365765599,52.1439522295003,679.501384392338,224.005466284586,1667.5334732233,115.164194792214,500.641591005405,-26.4567159680672
157.682584929516,-20.6999128894776,859.029307869031,193.624774185258,896.521231280573,133.3211878589,684.171142081727,49.7356188521586,331.249982373473,42.4330260062534,229.012288626122,44.1357580688499,901.527009607798,160.60417287903,151.246296554441,24.0677986147833,650.901903170476,165.999907148743,346.743581830621,9.52071691625296,617.650973635212,46.2935235869423,129.645744439984,52.6006578589756,644.308392878833,236.669730473334,1642.30728166278,117.607976437467,490.247395738935,-19.1013102552624
159.761971912546,-21.1213173340597,869.88144911714,188.586660009806,894.092557489368,143.273272189559,699.02460216488,47.800389692777,326.435189994141,43.2326503037135,234.065421892614,45.1370431644081,923.203771038767,162.471427928626,151.794653784164,25.3171066588534,647.2930542536,171.861020706386,357.563384115976,10.8929958289725,630.468940085087,40.4176053402972,128.201470600667,54.1437983340994,657.186389205374,236.721426668128,1660.40945380174,119.348348837309,499.256716468642,-21.1806173460097
163.755699458897,-21.3388682526065,904.976458768814,178.922524344962,923.077553279685,132.782947039935,726.051731898724,46.6780817111584,340.29611574299,39.2486186157112,240.045525088887,46.8273038306473,937.990809800149,160.320144261277,156.412245832773,25.4743215360274,658.806068375691,159.261424169856,371.259079227242,4.77936220797873,642.062722866549,43.3826596075653,124.034622881253,57.2974347669246,685.890238325197,227.223787621747,1692.19518569721,115.474415246435,497.246778648915,-18.8687531360605
160.238605400216,-21.691364890809,858.711632385354,194.09235358415,889.318009321722,144.792429729324,690.23471609508,47.3962241989068,333.822640189533,38.073650761645,229.446456062946,45.6622572009972,905.932970766436,163.343818889082,152.595572576884,24.3100096338187,645.407521379061,161.672645493982,356.457965785092,0.0390753825150537,611.063599283107,48.5825943675315,123.925012476158,54.6479969829768,660.511648254919,231.137899794136,1657.64156239774,117.065331233742,510.262641819823,-35.445654656844
160.249253722178,-21.7796508101066,888.158378194972,179.918857558593,905.191592485218,136.732554921204,694.393030872494,48.5073715340498,330.838670204824,40.1269070149549,232.492914560427,46.1864058448395,918.77911628476,156.838105089801,152.373481594994,24.3320736476723,660.009717338193,160.664875036555,354.611677396279,6.15835985541454,624.462121268107,43.2899284094831,122.543490855628,60.3960338063762,647.396347485866,238.659192554486,1655.95234463099,121.747323916522,504.499008008962,-26.6943288849157
164.755221989603,-22.4452857922401,904.982074644811,179.432511141534,911.632619564921,142.292126125456,721.259721545388,47.6004698021589,345.55901114853,40.3413407537109,242.866031333906,44.5981866272381,936.586946699365,157.470569945744,157.569128306759,24.4891182466491,663.020205931581,158.919630868179,377.129683772814,2.86012090156156,639.061326903649,48.8034704939949,127.80294538434,54.1831318562121,683.740076270023,236.710707221789,1690.13445514957,119.136972626403,498.784182475508,-19.5577511727406
161.211603218689,-21.3308655079489,888.754388588068,177.904077699099,908.249519250083,133.652182529345,695.727488555482,47.1975884240498,334.22962875425,41.8375369837036,235.345954192549,43.7232832384925,909.587107341752,161.747052583291,153.780608940344,24.5564527875715,648.55454862015,161.747870389283,347.71373611746,11.1923077417558,624.34281044816,41.1305379342973,129.522892814935,53.2499958233898,642.367929455099,237.223152677648,1656.61490007232,120.030896480502,504.648035585318,-28.9926129489705
160.679145143583,-21.5171090356443,882.431003465835,184.970528234383,902.936933876997,133.462390426862,695.642211227416,49.0949321061731,342.156760033827,35.153631153171,232.492564073367,46.2674175994794,923.233080906184,155.140690705738,153.033277792981,24.7432645166753,641.662916286981,168.622173304446,362.787417213253,4.36798267269115,629.757117883242,50.5868071358016,125.111366516308,58.569696013149,649.500823214973,238.058681054339,1662.06005213626,118.691022053157,500.289243705547,-23.8720839815788
161.99619521122,-20.9422991309934,888.288096542363,181.992110276964,920.162729736761,136.222316898685,722.836327734034,45.6065905903258,332.464823566845,42.4136775929363,241.614250774989,45.3885983632205,936.068645627068,152.984062756409,156.48904359701,25.9416432177932,642.771915133536,172.882420836064,372.710118675473,9.74807141514587,645.676353594669,41.1580945365949,131.689057228791,52.3364518744449,676.191173411639,236.956051101775,1684.97144015297,116.666816466487,497.571605591817,-23.6631797151146
163.642616481872,-21.8373597744225,899.348391637967,184.134656356864,901.813542030781,148.836525593234,706.312867992321,47.648246776516,329.183434234877,44.1031740171663,238.720440826643,44.1376855253245,921.099335835578,162.154393088658,157.029479981405,23.9101839205543,638.567932474554,166.163455091153,349.637612028563,9.92785596340325,624.693529601208,44.5157125662352,135.350915771085,48.1766813727344,656.440924343878,238.175540896887,1654.87664822774,122.223382444291,501.236496199642,-24.9482246151987
160.31148194507,-21.943582231964,891.046420980436,184.912465265345,891.598442409361,146.60535895906,701.967121326548,47.2299463880261,330.97113216569,43.0487246457482,234.583760795654,44.9236928682533,913.313244150961,156.744420656274,153.133289693508,24.7559828549684,649.617924184962,163.826918162054,350.728784010735,11.296003961756,627.375230205816,41.7702754665302,123.700868100613,59.7592320260236,652.70775833806,236.596526504429,1656.25777216709,120.478405064266,499.625739865782,-30.7847713143554
162.541023446826,-21.5382869774476,902.869581293705,176.43422043769,894.18902358195,150.527093817614,722.287522087739,43.4574552405205,335.530329948296,44.9130919683536,240.789830394036,45.9586273129355,932.163137413503,159.287171268142,157.239535623357,24.1790585812191,663.436606974742,156.454700322625,372.788689515799,3.26160473399143,629.863316167651,51.1459884317723,129.638210735371,54.6752380097065,674.987262253669,236.964491569669,1679.5079244856,114.910950120152,498.704897188185,-22.9855750968692
161.902121951035,-21.4213912292193,880.034164625109,192.423944007659,908.156661312991,145.130480507889,708.60216928973,44.2596793021061,337.144955718799,38.2228090750335,236.961288166554,45.0081462498341,928.961629917082,153.190637342843,154.748149189596,24.4024554949075,645.155334868232,161.458269786707,347.984212952543,8.76131078207613,615.64332059898,45.268898720558,128.867030881355,54.362233977806,663.997320804233,226.687784262827,1650.33040147115,119.089800895263,496.921434687061,-24.2981225071027
159.261926248724,-21.5144646665036,866.96553733009,188.612750438426,892.953684678583,149.476924584755,701.691654558116,45.0690639232915,339.878546433582,34.640463076942,232.655954543758,45.4179940521599,922.920116452336,153.551893999513,153.65448274836,24.5095635594036,649.636406365189,165.361990894272,351.747560773912,8.59011628046198,625.886794372116,42.2899657506829,124.688575041281,57.0386817787443,651.530268180674,239.21119679826,1647.68206577261,117.914134369151,503.296979162647,-24.4531818256472
161.883295469058,-22.1133737530347,895.665323492215,181.686953069173,916.121656825887,138.309122859707,721.403415963446,43.8743502855376,340.770728225362,41.4913267760024,240.412986936714,45.8684730218216,936.906006717744,151.60034549484,155.582640462657,23.9918139414446,653.003414835907,160.584399719885,373.900701405532,4.77581289037838,639.82392377004,40.9733261555165,131.22600366832,55.2502941571537,658.471442794982,239.226779862846,1671.62207173055,112.143461229681,505.065412270983,-25.9746798693431
164.151638234323,-22.9058248529376,903.443497364633,181.059002287881,918.849041736892,134.675590877447,711.879236855763,44.0489305911299,326.481896957296,48.2858447462026,236.884734846443,46.0139655183771,934.572360323389,150.315216081861,155.885014185861,25.4619245136544,654.712638954251,151.573662356128,352.034196900954,7.1489793981314,618.949054417164,49.0120930736516,130.889574586456,50.8115420046994,657.994519144891,234.159104676864,1632.82344061642,122.879847952514,501.756227931948,-26.701754784021
157.70621879371,-21.1487132936864,860.52785040419,199.360110978082,890.949604467506,136.00743368067,699.569423930756,44.030766104477,328.411261657328,43.4193181140699,233.671425637724,44.8425834045054,919.39501533755,152.703594427644,153.613001143988,23.2880172108287,639.748787283334,168.136322141038,352.555772743463,7.17871281966106,627.305190445487,36.2932968746374,129.236321463152,55.2828598646348,644.602011173292,237.156893724485,1625.89914917293,118.847187024463,493.357457465223,-22.2568791321086
159.556362259606,-21.2700191764255,896.211801047852,181.093541567991,904.444151241994,137.460823226787,715.985828463756,42.766048060024,343.683707428762,32.1454364916789,238.44764045211,43.9819367795078,921.534018821574,156.458106457855,154.120753896384,24.8987577562128,659.789626135574,159.528165544873,366.749995856388,6.3125929078815,633.219255110259,44.1100054648378,134.253925692591,48.7177220130749,675.870805991735,229.419245291189,1641.78547356358,119.230517021199,499.53088732251,-21.7997869826634
162.987195459864,-21.7798937853281,898.105306181894,182.89992677141,918.917959616034,138.762362093267,739.314317924426,41.239711633853,339.18282705416,42.7450599367469,245.711353310572,44.5403498908632,940.889144920268,153.573804999733,158.343684771372,24.5105076894754,664.335318019363,147.202066209172,360.611336109756,7.64813104737932,645.060922700368,39.4812668229074,128.240057121854,57.3483931407192,663.618121209085,235.673335175781,1623.24456069824,123.087338312869,493.484715598356,-21.6479913025027
158.447185900776,-21.4581798256027,879.533126627808,182.425624861929,889.128233062883,139.107746858214,700.237979683317,43.7517157337084,342.363816886247,30.5593231761289,233.607630899269,45.4089556389585,916.421438970286,152.738026091049,153.016807650714,24.5319892941733,662.409885658353,149.980942746808,350.137819673629,11.0161067424145,618.368463007079,44.9621719227984,129.606108788794,54.0423192343568,649.819829021161,233.543686464353,1608.29150692263,121.340921429414,485.451852965639,-15.3204189906831
160.203679786139,-22.4657208809318,873.656997428763,184.419052157119,906.095765304331,136.914856808897,717.194045205188,40.8418506224086,341.423096295782,37.3038747891133,238.203441752799,45.3186944451007,929.580093228888,153.719582926615,154.842976474968,24.153506076978,640.458170438185,169.090595258275,360.026441387652,7.45727585669173,629.436586111127,47.7220821382947,128.637596316124,57.3603612782895,669.68929684863,227.650133779481,1615.85551775271,124.938034591528,495.66516196314,-21.9979735922977
162.669923600657,-21.6848194940788,907.654801576931,179.702805734334,897.687455765295,150.003703446193,738.169951540808,40.9044178052063,338.62442935611,39.6072552837109,244.258140948357,46.3093442142673,933.755609782432,162.548347018614,157.291464855276,24.9605627772386,657.624639606078,148.284203774281,374.290670363666,2.89306619375066,639.709855126112,49.7274988102853,126.254698585786,56.3662265926561,669.800649099512,234.983183781249,1624.94161195152,122.460735968936,497.243436090909,-21.8407505802216
157.401919425208,-21.3437901788476,886.852880306191,179.390381988587,890.251110321886,136.253348026591,705.139207058312,41.8641021255404,329.173057496934,42.2673620596193,235.696101477576,43.9534574608901,903.472245603787,162.651734372799,151.904637914752,24.5943082282665,644.464388459942,153.064228482733,355.136644051973,12.0863560443621,612.652456349277,55.2161532122658,122.663296080881,60.4131543568402,644.769954542013,237.135113370232,1599.22838145672,122.151234333302,481.788958495972,-10.9545903954492
159.257082769248,-21.5479111789874,878.329249348626,179.424988564044,893.968078618385,138.479680120606,721.412429656457,39.1142253090796,332.363219309276,40.4137276507684,238.923080002361,44.0993127853588,928.735871415153,150.932704077172,154.879598862934,23.9112600402794,659.967223236602,150.23511941471,367.787306376809,5.89278642810215,622.105619104533,47.1377847150638,123.126956549139,58.793363642085,665.217692648745,236.184448999474,1617.53804239461,117.624056387516,488.763380620965,-14.5083479838969
165.155624048691,-23.4302843515522,888.441563580787,189.105496937527,903.728980772015,152.417373815162,745.978417991128,36.2691646412045,343.306039303474,47.4705486976511,246.318632919119,44.2532431154997,938.168132922273,159.866268136216,159.415312311421,23.9826997287892,659.135169862891,154.265065937275,379.196193992008,6.97311819493893,650.204838897297,45.0084648764157,128.974316832709,56.3274217474758,675.151010851916,238.463040893275,1638.82729469259,121.988569201521,502.381104849495,-27.9358235072304
156.640751794508,-20.9100166510453,873.849113508115,177.386914544869,898.85503933718,130.819499446425,704.157843053916,39.7173254778791,328.202025540287,39.9173936426806,233.969812965957,45.7517226108286,898.880936168241,164.780744639627,151.546923577367,24.5848755857623,636.707693362248,157.041285514112,345.381096997379,6.68677693040982,627.9712187495,38.49030968376,131.664327925754,50.4559803129556,641.182541248442,237.580156758367,1583.76498478506,128.898083022544,490.753324781704,-27.2169797817154
157.593232439608,-21.2701926822121,885.436625913879,180.918794358742,902.481698140204,132.814498512591,714.900360429178,37.907414770618,337.262323289029,41.9437563306937,237.075182294443,43.7268289887062,918.933868731211,151.565648926436,152.835027667349,24.2342568081948,633.809098515498,158.035940501486,359.545839097744,7.87968962168636,624.23821468068,47.2513228874873,119.89230624644,55.4662205643244,649.39093729571,236.789940128701,1589.63679950086,125.203772896753,492.156528288549,-19.3906684428707
161.718841298093,-21.8569028352982,921.639211136992,168.398570535147,898.608490624767,137.501905673851,737.348201988079,37.3893809637336,347.221358632496,37.7423590404682,243.298846724688,45.6059534499716,926.497489566679,156.126124476218,158.152835013151,23.6270436026566,646.549739877022,153.353068579188,371.795301804039,7.36932822333793,639.504357935341,44.1067514981211,135.053058858226,47.7778733663251,667.452127683369,241.922082444269,1617.56507476981,121.599850087146,499.493631864302,-26.6580223288202
161.114861671071,-21.5713463740225,891.059472869901,175.908664624719,898.035646588254,141.190201753923,709.601176168082,40.6227966372495,345.352462610199,34.0927731645876,237.836014558565,44.1677589776611,911.168866405152,155.145795953181,153.300211847868,24.9595861307654,627.86733402991,155.41417251257,346.284981054413,10.6862294528887,617.112769792746,51.2324764638619,128.237149169591,51.8619037109565,643.510008837241,241.208602902507,1585.26347133954,124.501050743625,479.188118467603,-15.7364287832266
159.561124493403,-22.2465486733034,888.633635367565,179.36087875689,902.200018691485,138.537165717284,710.039128774505,40.9348468160695,331.007394475876,44.0132898328199,236.918118965583,44.090201036875,911.770994845113,152.361729073517,151.641043586754,24.0619146853509,636.523435480501,157.056867016664,356.679004864645,7.76767972257726,627.946544342967,40.6557034579733,122.272744941637,58.1117349321876,659.756087070272,222.393474000015,1586.0355616202,124.347589351364,491.133457717577,-28.6223928106347
162.118673600423,-22.3263257614323,892.935382047164,181.936707853255,904.154949412098,139.6831348348,736.322716706873,37.3447052379805,342.622257060609,39.540851596933,243.141186497943,44.5253056815029,932.97784469238,156.255196711292,156.37174831709,24.5193269456603,639.197033131075,154.300077654969,371.725364108254,7.31307492894369,631.503216028514,50.3360184565527,134.804621077731,51.7970345514151,666.199488608264,239.716547919745,1608.72351235305,123.07786956537,497.332106758643,-25.0760333010934
165.273283732495,-22.4498360402246,923.677551795285,167.942723411552,921.550444201388,137.833928327219,763.813065634696,34.7623170128793,345.751123601354,37.3993589134921,251.527963166081,44.185366714823,953.382879282708,152.833363882415,160.259018013072,24.4959870959587,636.893567998335,150.301057454832,375.539337498386,4.85622074083994,647.961850325494,40.9801724155932,121.038750185831,61.1499373189602,680.148936105765,234.976985811832,1612.81919173039,123.07193425758,492.374869627149,-22.4807431870179
160.699509229143,-21.810191016764,897.803190297801,179.757075013163,892.35740733075,141.931409521165,725.875025395904,35.4395833122024,337.916811309535,38.5404154316811,241.054594217952,43.9166538394011,916.040696295241,160.967211604443,155.322699681378,23.7920760769257,626.929659047492,153.633804164814,365.267924213592,8.19522231191265,628.860758161993,45.0263760853751,123.7102564364,57.2704668274519,661.871048080569,230.448703676312,1604.3202361067,122.360223295111,498.942774241369,-27.563420231138
161.003517574409,-21.115680074,896.769404459344,183.160688536494,895.460194649679,143.106167576476,739.180190737511,36.5867094072617,341.445218254248,36.9221618659093,245.334205702115,45.0076955478653,929.632415374385,160.179562662977,157.178202182507,23.8071688821468,640.800127112911,147.937726635777,370.25058460156,8.05351339039018,633.730142039206,47.2529110352417,131.3287641368,47.3508298872934,669.691503071063,230.49794438399,1623.9928168643,120.270973801934,502.052548755514,-26.219261596438
166.542492757612,-23.438414960242,918.9495842995,179.914780865394,923.897196931433,131.74965401631,768.674601158281,33.913738638654,355.139328537168,36.7185058712129,252.704988051497,44.2401235831427,960.384024856488,150.982694579747,161.870471945216,24.1682650599707,635.133184797865,154.936864375048,394.91405313284,-0.459601223326729,667.607275946716,38.625876096045,128.408393077256,56.9629449545381,683.145377873353,240.57792292104,1647.92359946218,120.282986252772,491.858755250603,-17.2422855931761
161.240541003761,-22.2484570691558,892.619700948327,174.260356417565,899.974606137049,141.571734231288,724.304163160112,36.4151065568958,334.892955286808,40.1721407927178,239.975241088751,44.2747936396666,926.858943694098,153.209227516222,153.642006963182,25.1318724562339,625.28596547739,153.881137132848,366.41748081242,4.19497542154804,629.86821863265,45.6087209915092,122.855694389831,61.8493729427936,667.143493059904,230.099432442718,1614.70135016678,123.364140390137,498.493581556625,-22.0412998127666
160.680112594398,-21.5175419611081,898.766401086134,177.604329496423,907.210659245862,139.780993809873,737.226396792014,34.2591392665258,339.896276457495,43.1554836880412,244.49839503904,44.6016096531016,934.095187302382,154.842319802042,154.895277282774,25.4920087267972,628.415774304007,155.499921769214,387.460007913623,-1.55414418801205,635.863538816706,46.8048909442916,123.303427988482,56.8987127902919,659.938672737291,245.156760176045,1630.69635360762,123.434110272404,504.287161974841,-24.498416870729
166.33627315632,-23.0351106594571,907.728060043738,182.161568797021,920.702426879451,146.39663447319,767.914045344656,30.5323648636945,351.144319127313,32.9888311364299,254.837709951664,43.1196611704968,956.679826987599,154.313638695659,161.017044062709,24.2619176836049,630.584632453212,151.451071206812,398.145437387375,-0.721410716113133,661.203912357022,44.3614799351624,126.268893203138,55.5749465791496,698.54908473551,235.744475194133,1667.22774969942,117.647871024645,499.701956686878,-24.3684681235147
163.971263011288,-23.0419596074136,900.454770176996,180.83881780426,907.544639353694,138.96126585311,727.368861301151,35.0419098081711,338.157423895387,41.1573698643316,242.596756872713,43.9019378214648,928.286304385763,157.214143402692,156.456166017182,24.5426966180971,628.526872908035,147.295898809902,367.234356922633,10.0334860849421,630.443582564851,49.2096150670479,129.818218877579,50.1255741028479,680.045656958158,225.971554448609,1628.84143516711,122.890202548277,497.657733110473,-26.719540267074
162.623579956704,-22.7341499382991,896.685607051804,176.166017438649,899.977709045702,136.071772496843,733.532313543355,34.7745569494585,340.078791261509,39.5549565962057,243.567070160863,43.5148243842932,938.333443404432,154.357395485425,155.139795657963,25.1117900188239,630.834401597947,149.482199753888,369.507870834897,5.31170464164576,630.994001717045,51.2404297670941,128.599218478595,54.2312508307687,656.357869446458,234.215637299866,1637.93719670144,121.876802708852,496.656862453933,-26.2435860227936
166.623569998096,-22.9906196814317,923.902798398035,177.223287155285,909.616113429544,148.862568868836,761.597197658053,31.3352087473898,348.115757584935,37.3121114437378,254.233040005867,43.003257765811,947.322672560404,160.458765263253,161.274477513888,24.1445784969229,627.628460134898,156.419353999342,403.092370856506,-5.30502836047322,660.165769826649,38.7602813237735,124.062968417831,59.0896939367683,694.417890594381,237.41844060195,1672.47363976386,116.111912466482,499.154237553313,-26.2434693574435
172.002741223829,-24.8767673599582,933.469231750904,175.12572336977,934.650673265537,143.105382268345,776.329410462009,30.0333005211255,353.629537653786,38.1305383022604,255.152623858295,44.7836613914733,979.852604853295,148.955686421347,164.559078800604,24.9800693472541,624.578681426336,150.763021413894,380.281252737743,5.64330155138572,651.00289300357,51.0981278904261,132.710872430413,52.11483208748,689.703795533594,235.234590813375,1650.07812399734,123.868967524596,498.38652277845,-28.8410404286846
164.142820076232,-22.3521824864548,876.531396542624,204.931766680995,919.093052233441,137.112839237742,743.281159273997,31.1788209369694,338.715324046316,40.1731312923326,245.709472711708,45.1397373273628,935.919488012695,161.027789327174,157.175244563741,24.1696776955906,623.547497873957,148.51914265198,377.373813972338,7.77153208800222,646.426316023788,44.2260828004215,127.213022520764,55.0967291311203,679.372075268631,233.682123642195,1644.42033242448,125.162235073486,497.1723545734,-22.569763635421
167.075687470496,-24.0974187995554,917.617456214504,175.683210031765,915.903298950599,142.416020877169,759.68462655237,29.9871074178237,347.877161135267,42.3171321639976,252.92481270709,43.681537289342,960.447988856195,148.802932662807,161.069555819226,24.5302688109653,624.735479089049,149.951339025129,391.211518505739,4.93752817014298,646.431010412191,48.0100035944265,135.833935313758,52.5776272919919,703.053839742562,233.883401078948,1677.71079137064,114.155429170941,503.28297920696,-20.8516431952079
171.36232106914,-24.46824177672,929.405838813678,184.879042362925,934.484709428123,138.932659390095,785.540672627699,29.9790942019374,341.871311143778,45.8973238061866,260.97047773676,44.0221091202664,965.503882672246,159.998624851198,167.146541703681,23.9163243255085,641.475903996168,148.544677441416,409.100895930464,0.267251097384533,663.325096081828,53.37018090939,135.646872550724,53.8480571246663,704.505750413512,245.593160077328,1704.16583678243,118.278976948994,506.209849614222,-28.878236932002
165.767668164268,-22.9359970729508,916.790539426218,177.477616436866,921.98283523301,139.062457284277,744.2473604583,29.9423301344637,352.175327059325,35.3613055209159,249.034756220422,43.6617985528808,939.620066261573,159.627309715343,161.235822073514,24.03263991896,626.473518769349,146.394571628501,388.925748409832,1.09258775247457,638.634428181814,47.8907214077429,130.434382335319,59.5037921216142,680.945388702928,239.631236453004,1673.73574796085,116.686941209668,506.543580331005,-29.8209524901163
166.718450409214,-23.4010345312576,920.099502039714,179.484133470055,924.185649744017,131.213077967259,755.494956913636,30.5887560611649,348.256652676452,38.9270691162694,250.813516455857,44.9416024987643,960.020731989043,150.89354218115,159.993742814153,25.6223925702156,624.03680470705,148.475131647489,394.32949206874,1.61932665399588,661.552042527682,40.044522202171,139.839477572764,51.1867424405385,701.180833935802,232.29220215021,1676.75070407574,116.930330508742,493.001581672705,-18.4427035422854
170.851145606475,-24.0384009908143,935.437922201063,176.646878718484,932.876029194473,146.10705782843,784.54150064875,25.9998653344112,352.750080430364,41.6803047901028,261.98835117057,43.2057912147148,991.571423793644,147.223196391749,165.732472868534,24.775829404164,624.882322472819,154.929856472566,408.517909268612,-2.10971189820453,678.880046395162,40.1271597983572,134.184619929558,55.0573441577852,707.018485268811,244.043278452285,1710.86793283414,112.479772217012,509.874359061391,-27.3245957894999
167.883220559224,-23.189745929884,903.786326865578,183.263454422264,934.712195087709,133.938191333877,746.367346136588,31.0433713117981,347.723592281788,32.6099900464134,252.679426690315,42.3894066018511,943.614302499775,161.267604252833,163.473545769608,23.2218361363379,617.483524048618,149.031671822769,380.005996647173,6.50203068717679,648.768128775532,48.4627655126117,133.422028071943,51.5427955227014,696.467928711126,232.26371673231,1672.04296156929,117.371379989605,500.608412462728,-28.2538945332099
166.572932528917,-23.8394108286221,910.568675393511,181.429187419815,910.939756686846,140.682078022524,751.491147859693,27.8540010654567,336.861588505685,48.3820663579596,251.922508088615,43.3897088335807,948.285204461959,155.678773694652,161.270472359045,23.8344272468355,625.504061036688,150.160150444578,387.292300311155,3.12651353124365,659.56676198838,31.3127761948705,133.136143904351,54.0496817584613,704.617970656544,231.654557666805,1672.92200132495,119.027591205537,495.773622873355,-21.8171043086063
168.963682143291,-24.0099463774083,912.909288364724,182.00019727435,929.384280716551,140.9451583293,775.771454586518,27.225951506647,360.704580969027,30.8059664308141,257.280696382804,43.9247081059409,978.199339562134,144.186431950551,164.49191499965,24.1846404352057,635.634311884469,146.776119281208,402.6059318118,1.73455043737123,664.288816313369,46.9951429126394,135.794211466425,54.8044009916391,716.813392414704,234.954133263703,1696.36552594018,115.43911164254,509.386078010064,-28.2310421842591
171.085475497764,-23.2586560854714,942.721330310658,174.045383131525,941.000646158854,139.718074380863,768.387008984595,29.1550100258385,357.845429601369,32.3304673224855,259.330346709155,42.239900976285,978.995069350438,155.605372987775,165.653117241017,25.2804851097725,617.104824071206,153.532408194944,387.597011364925,2.25877602199495,657.857898995212,40.9048774898792,131.528859157,53.0509341687031,706.912552255562,234.451582716247,1675.20367460401,118.79382555299,497.930904118359,-23.179147143194
166.413183563049,-23.2569827782139,904.789857907934,183.143537739569,910.158928220515,145.004151925885,752.966827236127,29.3369548614661,357.131348687187,32.7445756246,251.1983841486,44.3873062120811,953.515032702879,151.854776163661,162.262310652857,23.2959015723695,629.626539217731,146.122132123422,384.580355244164,2.96484305423053,656.002497677276,39.9895577150942,135.517776180419,55.6570135701407,703.313682121791,234.613237015325,1662.03066824449,120.303462162627,520.868199013058,-36.3658591869421
169.17299338278,-24.1433438012293,920.152998187908,181.68818387161,934.502916261787,134.633589807345,769.093681188483,28.2579217520431,343.710229876095,40.6349882946,257.906317551709,42.2450733586517,954.74022746017,159.180811803868,163.831087681559,24.3682899923654,627.105343949205,152.203953879285,397.083360177774,3.77819690300631,676.773405078003,37.9687271919191,134.369932463655,55.2830006785065,704.715115350665,239.168199376731,1678.71371036226,117.051366370841,490.014451781363,-16.0758690125008
174.011637708885,-25.3233464202565,929.104738391445,178.373154136228,945.045275765663,137.636972839776,791.493869485158,26.2345842062625,360.306424120627,35.1703482392288,262.235922972163,44.2939604464473,981.216716874273,148.980424785341,167.084095778609,24.3437893648519,633.849470507821,149.390179368474,395.037206949531,2.86504920422428,686.37725037842,33.1865854017261,126.460105775967,61.4385799261459,723.882498637361,231.780061449373,1664.94539478376,124.032159250869,502.688892782116,-21.3506953839582
168.023874461527,-24.1528877940979,911.654641518219,174.312413786713,917.989180797675,145.381528102686,754.106641730838,28.6471469460201,353.798861257914,34.1122454865589,252.972499562434,43.2717809957651,959.126474927521,147.145257877195,161.977943885561,24.0087661460978,628.70853947582,153.099486504349,387.659186995762,2.3950067583955,662.169655425516,36.8459738922905,133.596013342395,51.218745725751,702.045312258617,230.041573625558,1656.64628726265,118.45312078315,505.321592747529,-26.0358902896997
169.248948531082,-23.9436396476231,920.111125604703,170.014865869992,923.014167560953,137.22900609918,765.229246274899,27.3133611767109,354.041345591735,35.1022002110548,254.387592659642,43.8335048851028,945.807128428062,163.094533663136,162.544847666444,24.237601957049,626.240911667132,151.415456343837,397.728741097824,-0.483007053262639,670.383434723023,36.7499789043684,133.092825449656,57.6897136757096,712.237012038038,235.829456528482,1665.97592913702,116.610438196448,493.512818845316,-22.8332322861307
171.666922512223,-24.183677520199,921.517286868695,190.024239296025,943.347259112385,139.292725250991,791.394608012446,23.9274190198886,353.653898964873,39.321482099316,260.154339577482,44.0517962260861,992.866683635632,140.773777791274,166.631847780881,24.9214470854798,637.063276497868,145.681552989273,398.296801929416,2.62891252703854,678.728107550198,38.477787029063,132.893607216609,54.0225200957628,718.520445072972,234.24399107266,1665.7791688315,120.432128512658,497.276718214468,-23.4608200756494
165.970280909145,-23.3756880877605,899.751142692136,178.360561749361,911.058604531916,138.663995896629,746.470718567151,27.2338381496843,347.468593701081,37.3306963950364,247.734170368273,45.0559037678918,927.281252743064,163.554676213246,161.48892610629,23.4626930107952,618.43990416335,154.006242420897,376.283536776624,6.10163369902159,651.470199728071,42.2817794338273,132.893408960677,52.0454237636223,705.536386009505,232.559586729073,1635.28263948027,120.224048105197,498.204184109631,-20.3104921653003
168.424350614634,-24.1186200656376,892.074038495682,183.785013752653,918.925659914288,139.920518901343,756.20214895136,28.5663147879901,341.306380519707,38.9966292028491,253.381125645993,42.2642547042056,951.007881919184,147.035673584744,160.347949401437,24.9371884870881,631.531812068802,148.889912370035,379.600177844819,5.32754702880941,657.324764935233,46.4349137406978,136.300137118282,54.2519669259651,698.807342062345,234.039040714789,1633.45728032201,121.865150133873,488.747837499787,-24.1168203650482
173.427037362672,-25.9512297985506,924.520213650943,178.300777877431,930.32959688681,133.193168677218,781.449996734446,24.6580905092362,346.641196594828,42.9255169220132,260.08253718636,42.8824679277325,960.730918175926,155.766232539978,167.158127593836,23.3616195286449,632.240717368388,154.093329672285,402.317415905614,0.0545717649088121,675.766846452309,40.2139660539539,130.133803669463,60.7872359889739,718.541122762378,235.076513363943,1648.24619123532,121.253557443684,490.729566936135,-18.3424000588174
165.310805536813,-22.5802969541172,887.392767830173,180.558834267603,915.534095052655,131.289999419406,741.38326226327,27.0993698917031,343.811337209936,40.2880477184962,248.296200508315,42.8088091576318,942.189283867634,147.47696084267,158.316576086029,24.4514303904849,626.893478596306,151.826608787251,378.289686285848,-0.863514136769381,653.386114048914,38.6083849969418,130.845101616325,55.9694153936047,684.728526647209,236.574663220557,1601.81191543868,122.818227998852,488.562742160367,-22.2991009205965
167.647678073915,-24.4565960817455,894.40152566584,183.578838030353,902.354190808613,144.012696453296,752.441791765606,24.7303152859285,342.522392634469,37.2794482374257,249.274831227628,43.4704024456543,934.13690058633,157.554118930111,161.397081198326,23.1805728228426,630.64433036636,152.160648860515,379.056686003135,3.44585328074175,658.55094039953,39.7955450896214,125.344356765114,52.6945034304021,677.699604370377,245.048269200955,1603.16650988969,123.156002439864,491.763890974984,-19.9186650058407
172.09911150598,-25.1954716487077,918.359655457138,175.811057822288,923.245798343481,137.082791515588,778.710524787717,23.7522312929049,355.355032170313,36.4508585604008,257.702497789124,42.9107486210519,961.854158289608,151.336801580897,164.014946459636,24.4792163289777,637.195861069635,152.032238353427,400.397615138681,3.39689528381317,664.874965500434,51.0997231199671,133.601527496959,54.9003506472637,717.437267626651,228.72986926594,1635.68984703798,120.154047740791,506.955700865729,-31.4439460978448
167.690652557669,-24.3945491371627,874.304924400983,194.20813307581,906.354260803098,135.094589634993,737.746789091513,29.6554040247377,350.244134114037,31.7507704963959,245.829138399016,43.9378813034755,931.255936700294,153.915816169203,156.979625230484,25.0853130097947,629.360523519921,150.384242969868,377.367950392941,-0.618338714223363,639.986478341035,42.0047577610394,131.328099220363,53.7552189140142,680.004927077132,236.050834428237,1601.03754004275,121.588599067683,493.190947394703,-24.7734503481956
168.105087952717,-24.0119680386436,871.675793669433,180.675991614495,895.297952885344,143.068527153696,752.728670286506,24.3904387504512,332.624119805411,43.609027266192,249.119006687766,43.5376286638419,920.540527816934,164.830970969655,157.505538593214,25.0412078782517,638.344952379217,149.87662533875,376.150235599852,9.17100694207217,642.219626450546,45.3563546729634,126.036670264951,58.1795574335526,692.529836596421,230.440332089851,1603.46638037023,125.681376993352,486.827720805751,-21.263376753957
173.092023392383,-26.1433028857559,891.272535629716,187.953162687118,906.339649022568,148.010831586028,772.914535154488,24.1702443268189,342.486384059961,39.3604346318531,258.095071177043,42.1072380918448,964.166268164055,150.405394319189,161.7296027052,24.9108723284237,634.822276194963,150.128385790831,395.899893279118,2.65905756335986,665.784488293764,44.4803952396117,131.44853899125,54.0058396928002,717.109377901158,228.663578364481,1633.26977892247,123.392763429064,482.820676835167,-18.1414389078439
167.954792884236,-23.6486026220933,881.433669087774,180.681103795017,896.777561170312,140.288735302434,745.023886152146,25.2404754919104,332.452254788607,42.3857196446036,248.599763776638,42.2914103530469,920.316856950275,159.245561726893,157.29643050229,25.1336706709579,630.455612061693,146.717215441642,375.554987730408,5.66860688374385,645.608041877077,40.8693879159302,114.815391097597,62.5884697517874,685.467295268227,231.552464281336,1600.90462236133,129.050378006451,472.947949825851,-11.3092725040021
167.538720349665,-24.1816375687018,868.385470149502,188.270475655065,898.893075184475,136.984626749443,753.929433191351,25.552684955819,339.388791621008,35.1339416062453,249.732907852278,42.6789676504117,929.02304048916,155.136762029895,157.675062806224,24.709518456472,627.081877774902,153.108123390844,369.650712141768,6.72775886297107,641.678903027202,46.5781508700853,124.464039323988,59.2016020118062,680.588829700491,237.212554906734,1610.99688137694,124.098305179988,495.162630364937,-26.6030681626486
172.545713497904,-24.8000068226283,878.605804679049,188.82084033948,915.367761495506,133.172851068615,778.393365440261,22.1748126733372,346.544360550069,37.7739961522882,256.280535921218,43.2973989555364,948.843007894137,155.988377724883,163.468884768567,23.7553031053124,629.298742606805,152.204245723776,387.169662259711,5.27752685428956,671.70541633826,39.2813939048073,127.961812248448,57.1297031571645,702.667656082244,233.35944857195,1637.59172581288,122.398300151509,493.067110799026,-29.0458641001724
169.692604284001,-23.781186884365,884.793522400219,176.035718239516,889.280599525401,135.642687216672,742.018002398732,27.0202449704952,340.692971323484,38.90314839665,247.013355649736,43.9802960361926,912.461984151335,160.109231989103,155.682148947719,25.3251699568048,624.737146759027,149.786310479715,375.024335679384,1.0448263413917,645.158681235907,36.5344787677073,121.156473802946,59.8795364406174,674.251512329707,236.277069375314,1584.71122576147,130.236442052154,476.832734253047,-17.9629600672619
169.117198482619,-24.9891809872323,873.852572031242,180.27322805744,875.720704945024,147.190432263719,761.14840493379,25.7318067037826,337.723205357225,35.8635346179111,250.061463160529,42.8077429096629,924.701264210895,151.583284885922,158.153164213818,23.401213346189,634.09282192164,151.582285559071,377.070804637818,8.58323427579369,640.001605599169,46.2262753983547,128.576485937088,55.5175455541163,669.673983105913,238.780831046409,1601.94702747947,124.683010135838,468.263839195908,-12.639783087591
187.716097037071,-28.2511181341477,844.138631841617,190.805612365467,897.871894903435,149.567785568677,857.642983473653,29.6980624957111,353.421304623478,37.3270489783316,294.561615024043,46.3881807118718,910.00120526792,145.398687687182,153.309951895429,24.0023588757656,626.167919948773,157.315668724882,491.938167251308,-7.70122281128449,661.808723244238,42.1173615945222,126.302177819593,58.3512266241063,679.888167157978,240.894129480979,1626.04202443582,127.1311575698,496.864175620404,-21.8283756771363
176.350602910354,-26.6383054981758,816.729944013582,161.581478715709,877.41190835245,138.931231462446,846.993360516363,31.0772780827297,340.853026933543,33.4626476326858,313.719521326038,46.9373796619147,843.408559115188,142.26711034709,142.510463571776,23.8547696230527,610.775793854797,152.643699385836,510.614156024221,-3.59421381675374,643.09875666932,44.1826961206436,120.082705827464,56.0647826297245,644.702290244489,226.974959791415,1568.96328692577,131.259011416454,484.448881160161,-16.6441127281227
159.089304734169,-23.0124590930714,796.720579111627,174.839733100304,882.390311733106,127.947907157748,860.966058730869,29.2265848338472,344.075233447912,27.4745785561644,313.928726455465,46.1568613472804,817.256846540401,139.729238348848,141.177871838078,22.0828464298935,619.828010825932,161.327243369472,508.931735272914,-6.4119177553022,646.843703389945,51.6279745987752,113.981907708616,58.5183881043297,644.14018224109,226.412650975982,1585.3345720967,121.520575687677,487.867492177146,-18.8452316066272
183.384875968364,-27.2392839013033,842.327968190378,168.679906323083,865.750765327948,153.660453261221,916.754983322698,31.1016516945607,339.819912215777,33.6655168843898,309.519642731816,46.902839812933,881.666582195331,153.606241430323,152.779685671702,24.2144408513532,643.229517871149,155.942669746234,507.938584337822,-5.23488034010053,669.740684744978,42.8008830719164,131.983344901615,50.8246343618932,671.870064224826,227.95628523637,1612.53701212491,122.898434591878,482.531130481306,-22.2242849272819
172.845951498662,-25.5511930782134,834.52340951638,183.32224608435,859.584503565055,143.317949348136,778.127520598693,31.4812470893564,340.994607501588,32.6686694523963,252.581296962745,43.3988787371572,871.784804416244,155.801821746295,149.564340202706,24.7651261207398,658.92958158683,157.118296754265,377.663132411585,7.32381852806813,635.587971231167,29.0773625121755,118.388423466408,52.6073579746304,643.187970806954,224.298055123379,1567.66835801325,128.789160700007,467.874713658952,-16.7948901291762
168.065348955874,-24.2543759264325,848.165227918848,176.938736371807,864.066531857219,137.332972146872,778.017916986778,26.9693996735792,331.93547885024,39.3493074807811,252.689874351077,42.0581904714722,891.649143960286,148.122458212136,151.553796432543,24.7648465566489,655.793836510704,168.992225705089,391.555131473153,1.59179125209781,622.728378830124,45.848102968561,117.409002634698,54.1956357530693,639.326772313209,233.684336911379,1575.88226722991,128.832665554323,467.304331886261,-13.96622653759
173.418429227128,-25.7942261909163,867.118842347602,176.700552308872,886.416133385164,133.338103645998,815.978429619136,25.1276537567601,344.649234893521,27.6887765991108,256.865482840981,42.9910742738806,907.096448653907,144.451340371118,154.92705833643,24.7244885074673,651.938456862469,167.004218019568,437.049565103442,-5.54686153131904,657.958769272348,34.8643691566035,118.503949574737,55.9470688987432,666.254701517401,220.962514355403,1595.58708121893,128.348392090276,480.910855176235,-12.9168309867694
179.931345647222,-26.2545038183299,803.720459132154,186.65020196433,858.737245004917,142.462738795363,794.580129559025,27.4222893001186,329.135038392917,36.0677181864117,269.208546966532,45.2360708108865,839.279948560861,159.990749326046,144.611314536027,25.2896120211408,652.639804569939,155.962986612735,454.376411648173,-5.97332247819735,612.933134106331,46.4667913750402,111.396653708101,56.1735044784587,624.800637381915,231.011790126863,1568.73924000536,130.087412078512,480.868561079162,-20.3290383662643
181.977628930972,-27.0348838488201,820.530019562224,182.421025213645,862.058265120588,142.80168403364,802.766966204621,28.2543080116841,322.89767134573,42.3001083847802,274.69836247993,45.0801003487787,864.270049509245,151.997250368142,146.697907223691,23.744268116112,625.112381274462,166.396591588587,474.822530995427,-4.88379423346699,634.72103413557,38.9087466392236,109.196787860397,61.6721713918583,628.241517532078,221.879122522414,1584.75603943793,127.385806286478,479.337122555335,-15.6931154258603
187.109243795129,-28.6825572204573,853.243028834007,171.16234058066,880.612682862067,135.610506247683,823.997083160453,25.703887341738,337.944428497524,33.1635935185305,288.396426865149,44.2536549048697,860.850931244642,155.92702624009,150.99482088533,23.5899652847168,630.709310036211,162.076954237529,479.304509205036,-4.70346701817481,643.961622843299,35.5595054493427,120.292809406065,54.7590910038571,628.107885504836,229.264550735791,1576.84455931031,126.123192260179,480.641250340926,-21.5182773816981
180.637755489305,-26.5253020519075,816.901324860342,183.689737589742,863.575296808331,135.667773957809,792.789805298853,27.2835962456936,325.749157523938,36.7076082589987,277.107940435209,45.2638678761919,859.410440048122,139.008555210485,146.243104976044,23.8291899897429,619.372485965507,162.08578654224,468.99248434367,-3.05640662201013,631.833881494576,43.4904706706385,121.252255373468,53.5464013160134,631.875578845273,221.662196764981,1586.09860762783,127.620749544899,465.81134385673,-14.8857879125528
180.974018251552,-26.5886754599751,829.888771657669,183.187722459473,869.457416267059,140.166798405129,803.35261891768,24.256478280504,321.491317394331,37.984004004751,264.745027814011,44.2361639055042,882.181848178993,147.736857448792,150.640200019852,23.7249291306273,632.284883779535,152.38266661735,486.532060188529,-6.79891939196731,654.383833887625,37.1961842303932,116.571180337056,56.3466138866289,644.027618900549,236.178067497292,1612.09097493263,123.632376675494,490.661500164946,-21.6611897433029
180.990771084322,-27.7172077719795,842.697870718108,171.040576787974,869.174242933141,143.475322181233,778.644900840685,26.7257475808267,325.495727734541,33.7256870423181,263.255755920442,43.9248862059125,873.212470905346,150.428219551676,152.862041935837,23.0673114622746,618.647208600474,153.939371547431,463.427131525431,-3.58486329793932,625.18321092433,52.5411022179428,110.674259486504,56.0851518978551,638.729591325486,223.954818039217,1595.72286704562,128.404141743973,484.326760909219,-19.3094630772152
176.22831773008,-26.2979009044569,846.48093724322,174.787108139091,870.491684985001,139.090606518818,772.577846009846,25.1267949001148,321.887406291951,37.1494118769723,257.921672407615,42.6243324374148,859.828519370289,156.212706719043,148.886406821585,24.0993908962983,609.355794764032,158.048284133727,460.054720448612,-5.65051127056218,614.581873064863,53.2297831195365,118.419269707368,51.2867223724785,634.632583660114,225.074050682835,1596.31412729729,130.546270593169,472.5209406147,-7.71308133458467
177.356224934631,-25.9550643771154,849.597401335869,168.651477097931,871.50747276133,142.338056860779,787.591905884361,23.9257898220698,330.069826317828,34.5037710516337,264.34745950228,41.990208237079,885.594163110206,157.632749319225,152.955394184883,23.7838771336308,624.157324218022,149.016110417933,469.900432382779,-0.374253659763855,652.90521085613,39.5803126901823,122.212670744392,56.0198565472169,644.837425010812,235.278663147784,1634.01456182928,123.00477464184,476.280789326999,-14.6795786156761
173.000440866496,-25.1142741287763,845.438550352498,173.109216942792,879.668057163045,131.670571821128,751.221163158049,24.3298058659038,320.791457888139,34.5255479976115,258.184291343428,40.6666889796945,857.279042510462,159.47216304578,148.364295503555,24.8859053118142,619.210613702229,144.508413608096,444.970884431644,-0.837880083099881,639.158780346684,42.1200398805224,113.910328613943,56.2507058919132,634.656238758501,229.791578662797,1609.61093064076,123.840145418642,480.05711453114,-18.5885202728241
170.954282285415,-25.4305429600915,842.888260461091,170.851868626555,863.801033317997,140.633397250613,750.32684609843,24.7796814764783,319.18779299253,36.6573469453125,255.799022336648,42.2871173526526,883.741056942384,143.354007436168,150.829791681942,23.4395821227372,613.963081037029,148.645174573014,461.246944952845,-6.53579031551936,648.738775871212,35.6624305365568,121.081151483952,50.1741396823467,648.328771437008,227.463838507451,1621.93744509524,125.164603037966,475.582065600073,-16.4595568193678
173.184103997339,-25.562830215359,846.996131743452,185.105508425334,890.510894813337,136.30873682973,774.704995266668,21.8790217604661,328.230971794821,35.7508042944326,264.41236303172,40.9810501820348,890.321374403739,152.798538603106,155.350969540887,23.1416487662074,628.789466041801,140.42719973658,469.657174598541,-5.96499000542495,660.588369136448,34.8092036381653,114.557754263489,55.0343287970332,668.539327805344,233.908736077648,1659.02271601052,120.969861737521,491.12175603339,-26.762132393263
167.754250214415,-24.4766133470245,832.551856911284,182.655693831105,877.180639528229,136.609183430506,735.261535970851,26.0253663425806,326.30737518887,31.2927221460074,251.894697014774,41.5460581236687,872.305964551116,146.361905570816,150.019529341658,23.3341747237607,605.587401532241,141.5293078033,443.703040011081,-1.89508792495391,637.464635969719,44.967871847226,116.397235890129,56.6462622643921,633.926755567565,237.547482488358,1625.92029563384,122.96293479657,476.108119637101,-15.5327418510475
167.956161277727,-25.3157385103339,847.082730323202,179.471083837363,883.707242201505,135.518482716103,738.251811795355,24.8137409045284,316.542622527522,37.4756227661122,253.791969307244,41.66105105355,888.356975988258,143.643930885031,151.188246361992,23.6675449933714,617.955279892802,149.170704186504,439.183754852355,3.94709371145187,640.495031350704,42.841851892685,117.955343734137,52.3744353748085,653.353000370955,230.448897178757,1633.70824297056,124.74529883029,483.503817780679,-24.2478535017347
170.481545633677,-26.060200493784,859.136310194011,173.248671934431,909.833699482338,134.702639222474,761.280182171757,23.9303524311845,328.783508759754,29.749976667027,261.236418311874,41.5387714188308,908.560268847128,154.075306724865,154.496200212515,25.075317968228,606.519801984583,149.228873818023,460.189916184401,-9.68918163823782,665.396132949322,37.5679163463934,116.69222274132,56.4231528916338,682.134435338412,223.358128778819,1652.00645669599,123.73262558551,488.19945671215,-20.9840404190649
163.458955821053,-24.0952298411545,858.71399023304,166.354949068241,873.621396020349,140.059175779473,720.766689275673,25.7582125367774,316.324129021761,33.7138016241556,252.491556338213,39.8332071971742,885.751233310774,147.621857677136,151.132428345467,24.5430704605119,591.743510981347,157.136386408997,436.136034725398,-4.61036153098212,627.183912757546,48.4846783878851,113.366967136029,58.1295870482097,655.380572563801,230.205362342707,1631.58843690666,122.784903867693,491.740177611819,-24.0270658223652
