247.14789627689,-12.1630776519605,347.624204125091,38.5068333976483,322.814133962604,-24.1613802791867,1175.6987875152,40.3026160771357,816.424319358968,28.4321659928422,372.168626252077,23.8312358416231,258.862738015813,-21.8000593314293,465.907268018244,-20.0205919839881,468.707070211998,48.9890150054535,234.143062711174,2.20896006076562,254.45526526067,9.56134692339772,593.247294466517,-10.8493165756835,1197.84738881094,30.3774759708682,645.453571324422,-60.3363181582676,450.527583847225,-40.6412787169648
250.410518694474,-12.5035255382259,347.48158213286,39.1622390943566,326.724388728635,-26.2770647489581,1194.67189914684,37.9424998235941,825.210506779215,23.8800379454891,375.057788009247,23.9965517416131,262.348551315973,-23.5927071697807,468.227475265755,-17.9614566113643,460.790442378959,49.8449803592905,236.75025060216,1.56844515916398,256.284792951469,9.53150564536763,590.980871438404,-8.41601121210039,1212.24196099026,22.7384739058317,648.896600543256,-60.9833136748234,451.130942247777,-40.5059430219947
253.198315034504,-13.1797806182663,349.514214663886,38.4162259910378,328.657028821665,-26.6987073077753,1188.13327172877,38.0683260637488,826.709820243099,25.7707516343035,375.759965397466,23.4633326137463,260.679333197718,-22.8249846859945,471.165602569412,-19.3804666004009,458.681663815631,47.1353968974947,233.37095844022,2.08714574230746,253.395568330492,10.133560077366,585.127459716194,-9.4144026010886,1196.92383298622,28.3924247938128,643.538476763388,-59.4303970944012,452.224715742241,-41.0635094649463
244.993652665394,-11.5476392027431,345.69199721051,39.4312002423217,322.704952594046,-24.1540708727409,1163.65877086934,41.192150816844,816.317459331121,25.4933049575477,370.047806471542,24.3302993289703,260.980992729147,-23.7708332255865,463.843747464475,-18.235978736033,466.636789982256,50.7934976189841,231.901561556225,2.47990260283115,252.080472537389,10.7999667041253,580.368971866378,-5.44895670043189,1203.89288573344,21.2751676311815,640.340277566345,-59.4388484227725,450.439336902059,-41.1049561767108
246.377993240627,-12.0381677486361,346.043911655781,39.0536998569469,326.12235742188,-26.2982428636328,1169.81814637112,41.370409645858,816.874470164242,25.4513755388337,370.839798431058,24.3512960969231,260.081695801899,-23.0879290893492,464.291550089157,-19.0613337045259,465.337873818409,49.6319569717269,232.891965686642,2.64853126597016,254.028569525683,9.83252360935529,572.554172720092,-1.32442591163271,1192.10401399452,27.4384590991376,641.588599034314,-59.0985094385921,451.223158638747,-40.9941967855957
249.164606532961,-12.159593944382,346.769554919848,39.0035752464139,326.509020790113,-25.4047617668345,1187.34626358373,40.3456455006308,825.144779625993,22.948381473181,374.836330136292,23.9098298838042,261.056676515166,-23.6084289287326,467.609436203427,-19.1597254493742,459.27478801706,48.0799446444974,236.111878446683,1.77941947007496,255.365939269228,9.91078854498798,589.694848065053,-13.1369956077062,1216.97857181882,17.7467615713897,647.967705408999,-60.9638508295041,452.650946544227,-41.8113349574215
253.134595672007,-13.2709938184611,348.424764185514,38.4317868504258,327.626542997562,-26.5299604216682,1192.6297699887,38.2923390533974,829.956714067608,22.5794149793624,376.74617871986,23.5375983776275,262.604745580743,-24.0622124760174,470.831727218111,-19.3144915913895,453.700480072646,46.7627713478035,233.760849015353,2.20466436624174,254.124192678689,9.96043849389464,586.92351405318,-10.3347008248697,1219.32530239023,14.5520287260835,643.214181996727,-59.7749802497798,452.889467332882,-41.5061312221332
245.979502084331,-11.9150306583056,346.187640744835,39.0974728743415,324.55234658963,-25.1025895712173,1165.57370848962,41.8865343835398,815.146429294086,26.3844933251615,371.156784519099,24.0101572538445,260.204297059938,-22.8663167077202,464.082084548702,-18.6631978821154,463.555084645185,48.486659982618,232.369330546,2.46057499788391,252.532438919651,10.3882371143433,577.100435634496,-1.94872483665087,1196.21161826617,26.8448318903124,640.40060042415,-58.8292728414306,450.939993729966,-40.8527343648934
246.686727819757,-11.8121625341051,345.377924248409,38.9937317725017,324.241176050159,-25.533601876724,1170.24654764925,41.8391486732258,818.821404976757,25.1168300610553,372.271338352941,23.6587886733851,260.669690967886,-23.7070898987991,466.214285195176,-20.1676507768257,461.058624401011,49.0449531490946,233.709343631299,2.49182449753948,253.148367572171,10.2897822335817,576.922843966645,-4.80551354630577,1208.48868632818,16.1293163244735,643.237322456047,-59.9685287643583,451.633111776562,-41.6063829540486
250.133679875393,-12.4085178638018,346.501516053478,39.0934593979838,326.814240818661,-26.070856998588,1191.04039794046,37.7826045341424,819.19867813359,27.3907810958491,375.267197759079,24.1875270796391,261.891647944664,-22.7864770347657,469.171969059449,-20.1153291931562,456.053237077148,47.9221596152126,236.34387643698,2.01121145497116,256.249408302184,9.54735217086839,582.342480102757,-9.53865188713495,1217.84583602398,21.9836351423984,647.494388724689,-60.9821603302428,452.66437650891,-41.0391832437392
253.073549919577,-12.8466560521613,348.114341585861,38.2629777191367,328.766017441863,-26.7163119579992,1187.24753700532,38.9057277560868,827.493460682039,22.9814795142113,376.464086521309,23.8556567044669,263.346786955169,-23.9479894596986,472.225535275892,-19.3595810655954,452.586511420149,46.403459252047,233.424901953093,2.48427196180412,253.968250947515,10.0489235898031,601.325600581443,-20.2965590130332,1213.56967131021,19.4062453377883,642.533516998827,-59.5020410059387,453.816615772653,-41.4122078376064
246.478857651541,-11.9205868706913,345.543603303179,39.3957788720262,322.542579152075,-24.3702430792734,1168.25826793473,39.9556719874458,820.385528250381,23.9212814412959,371.370310341007,24.4282500372055,260.422576504784,-23.1776795018962,466.466240055995,-19.0624511912706,460.132674951996,49.6147516164935,232.915455188653,2.337495463148,252.707725514937,10.3363675964518,574.012495921837,-2.34153429710932,1200.61601446723,28.5523856066213,640.645147018042,-59.0872857908446,450.944392324772,-40.7543412017478
247.878093312614,-12.3304912711914,346.090838037963,38.8480951254684,326.248587130049,-26.6601259733706,1174.54318796229,40.2595028418892,819.588787715202,24.4555428494523,372.717030786449,24.0732230310403,259.674488394724,-22.4988718788096,465.640467442223,-18.3253611288107,458.050866685256,50.0993075462553,234.9963305258,1.74394156392301,253.919423902211,10.3687685976678,593.26624648469,-16.6483223964094,1207.08271557119,25.1543469476443,643.091608416504,-59.6822734917033,453.040858902218,-41.7143420776192
251.408314892944,-12.8106254109405,347.860012154736,38.4767845524992,326.812425457059,-25.7453555272712,1194.61088025786,37.7874014740719,822.954826902825,25.2046701374166,376.479160949937,23.7856745335385,262.144357522067,-23.2809706436116,470.702383872604,-19.7000243259477,454.241181806768,47.4002351898624,237.210824803653,1.68360350031806,256.863996605516,9.65816956657219,595.644140664894,-15.3278944738878,1227.90281044203,14.9596126239074,648.205548091092,-60.8293076476214,453.793677815266,-41.6070973049615
255.337335570458,-13.6087849183437,349.205533790165,38.0992413428127,327.440513029288,-24.9255682037125,1203.27139796343,36.4261066354498,829.837724510006,24.3684912477261,378.563474828848,23.3560195769953,261.790388750441,-22.6856681747664,474.461625290253,-19.5095813421374,450.013339738153,46.6046906255287,234.876172603658,2.09336325672908,254.942142607502,10.5076150193684,585.873902476582,-8.23081451616081,1229.34796873413,17.0146099500139,645.770395130489,-60.7740242462234,455.067422814664,-41.6044310529987
247.167947370763,-12.2413579590288,346.131799396856,39.1121987729449,325.092590110972,-25.9176762944381,1168.09708114468,41.0233163199374,815.170583893214,28.9560281170678,371.852832056938,24.2866868579091,260.757872330374,-23.0821039588275,465.649952984488,-18.5511321246176,461.958824515334,46.9954460253836,232.902275017898,2.57333614013297,253.369565092954,10.2656575564444,585.7210234849,-12.5894760711365,1211.51023577214,24.8263557715838,642.173837701302,-60.0377182416762,453.236559971526,-41.586140917521
248.06613419917,-12.2122244245274,346.637983820533,38.8158953216413,324.779282433538,-25.9216230406316,1176.47552344398,40.3124440740044,821.274956991966,23.7970734053043,372.962227709374,24.2143876769069,262.885718379281,-23.9963950221906,468.382798346386,-20.6906257227833,459.502309011701,48.2988868093863,234.92741669538,1.98904667803135,254.407649200872,10.277887573444,593.322931700321,-15.4324758532028,1214.84315186752,23.9197650947357,644.851529490658,-60.3776267434133,453.059118740602,-41.3001758967493
252.211203147863,-13.0186434114561,348.172846157387,38.2290187197786,329.351155308432,-27.7065648884569,1199.44382686186,37.2640488280617,828.044685065666,22.8375444123692,377.439331284354,23.575225364051,262.261275744711,-23.4177582635271,470.909468762243,-19.8504846422291,452.161681848217,48.1898109463865,237.616488400551,1.72205533592495,257.5726491733,9.67617352409149,593.89924815275,-8.32814210634323,1227.51123802411,22.5061699154399,650.672337984056,-61.6437801192226,454.982083720443,-42.082430829751
255.871993252589,-13.6592380183273,350.074694178804,37.4339731391648,329.261899481832,-26.800782366818,1220.4912044039,33.1989980100257,830.372771776093,24.5094773620788,381.415153075906,22.8330637539708,262.924673632299,-23.2897800711353,475.827200033882,-21.3205952144389,451.130685243081,45.3380761263967,238.05581323425,1.52145949010387,259.036572668295,9.2836501964362,584.710358571382,-4.49557325763703,1234.57219147215,19.703297648086,649.809976424625,-61.4731258678204,456.594862301567,-42.0495198336275
249.142230166218,-12.5007130329167,347.800194829994,37.909896707895,326.840082859575,-26.8940825969485,1179.45556933441,38.6217989854975,825.891172661704,22.3295137351714,373.895017723867,24.2067922369443,261.34192723226,-22.8498618097497,468.172969972915,-18.436294969208,458.215888790849,49.2553963320284,234.694802172239,1.95366290799766,254.614296551457,10.2104207632509,588.115605350393,-7.54323142087578,1211.93986256671,26.7979347374229,647.468305961415,-61.1672376097476,454.96478038836,-41.7483129335771
250.0509308345,-12.9010492772665,346.53183569329,39.0446328852351,326.592195157222,-25.9461858958402,1186.46152813582,38.4543183049412,825.845971088647,21.9319060637793,375.324954746007,23.5487754871257,263.790914516376,-24.9125904510355,469.604590980728,-19.0523732232598,456.796721950774,47.9908846098713,236.388088154589,1.47838558786963,255.771603359052,9.91691863083989,587.274228764817,-6.07313480881461,1213.68800768064,26.8306658799314,648.747682358191,-60.8907935420837,454.591550630996,-41.5613324795335
254.475146417173,-13.6614298293379,348.687745808836,37.7831639355595,329.283641710208,-27.6881493086435,1208.63067467295,36.0730669512959,828.942481497202,23.1602787402157,378.851530785124,23.8312995556586,262.532248184949,-22.9228173736003,475.202945617256,-21.4304279224944,451.531712606901,48.4218223993427,238.879937540309,1.48748172102393,258.868061853318,9.2935676674464,587.458867879486,-3.35885911100696,1230.15562139783,24.2248212462154,653.446726574965,-62.0317996996272,456.224431429712,-42.0079675247641
257.523870092202,-14.2769342241782,350.5551423785,37.6313710105023,330.295165592509,-27.7197449418636,1213.92167372447,34.0674106917652,838.730747545786,19.2962518141989,380.97948416011,23.1596052411591,264.336147896301,-24.1315996262726,477.209578615018,-20.527029934727,448.016778443376,46.2335523068123,237.415201968139,1.40988654367212,257.295398777081,9.52466144129362,594.122096353271,-9.80122976335053,1240.04288701151,19.5831487171396,649.835289034901,-61.0615980268819,456.949258938983,-41.7263451472937
250.81078623456,-13.0406652223126,347.433632974699,38.0739661621983,326.595973205898,-26.3395329903265,1188.81859686152,37.8080448215531,832.933753571919,19.5288883884348,376.476829597791,23.7379441687778,263.114664190799,-24.2069919312703,470.927782669133,-21.1992376547085,459.066949305678,48.1093024898655,236.096825185316,1.49399406104236,255.755719400598,10.0710208199725,578.912653112602,-4.70914707328886,1219.70847826123,20.7124264941266,649.798639663261,-61.4366334605297,455.396815500913,-41.7720827508068
252.532954604303,-13.6599719780088,348.84457219472,37.5560901757761,328.874541888713,-26.8496987311687,1197.01746158811,36.3548057122712,829.14109564491,22.0133608039491,377.545616092028,23.7464820633316,263.480901724261,-24.1383648595251,471.87798397635,-19.9404182745942,460.424717358634,45.4234153041145,237.910058483317,1.31917070435894,257.784860162756,9.22609400391149,586.471574927435,-5.62879726163392,1223.65108784686,23.595768588589,652.065052986674,-61.9938307748812,455.065403445144,-41.5541144840648
255.001730938816,-13.7339510531345,349.840594213821,37.5808473861453,329.507039843057,-26.7805780758861,1216.66709453095,34.1960264521224,837.302056966101,20.7389618346152,380.855421143883,23.4387195397687,264.513203111596,-24.7818680652047,476.241019413339,-21.2707196722616,451.704995994059,48.7691566840483,240.568166617642,0.978036849374304,260.380699455113,9.3096001469564,596.042669230757,-11.0620271773054,1258.64279710191,8.84166485127234,656.323352288915,-62.5324498480091,457.377471807491,-41.7186512170251
255.593841125588,-14.2300331266041,349.916396358636,37.4630204845397,330.197340304446,-27.4427640562641,1197.09106424283,35.6603383338244,835.284608155077,20.3279962715658,380.250994380448,23.1409697410162,264.167654282313,-23.9515416240769,478.830406217613,-21.5893527006155,454.852401144901,46.0010394799866,236.24089023152,1.50729544421477,256.333931613659,9.87604324396537,592.273060488773,-8.83997969945493,1247.73226447894,14.0453321508292,650.285930274242,-61.2940597904099,457.776502065151,-42.5361103681347
250.75203915861,-13.2693987062679,348.782895198189,37.5397317419073,328.744418789477,-28.0421505910489,1188.40760916806,36.5088557734856,827.094955661864,25.912233383273,376.233099303543,23.8630404769963,263.934922882136,-24.6556597546429,473.499320685742,-21.8255412588039,463.734159843418,47.2152417017807,235.631859152999,1.83171334228225,255.557584727577,10.1091592105516,592.006238632444,-9.10197682260199,1232.31237476712,20.810737291987,648.312627675055,-61.1574204949541,455.72489506181,-41.6404938084266
252.429181598763,-13.9235165286615,347.336286535019,38.5178054847676,328.425753710813,-27.1802757510024,1198.02831625812,36.4497143960226,829.346266730752,24.2390505723557,377.845181167792,23.5927644696513,263.391332268126,-24.5377261440791,473.318487687736,-20.187052871066,464.006551280747,46.1297783923049,238.105984170868,1.14339860326774,257.23233220072,9.59428294216845,596.304489074239,-11.8047634832903,1212.16764780371,35.5687640987811,651.569456328925,-62.2546390607964,455.984400740148,-41.6977214532157
255.271809076395,-14.0447584793845,350.015848974999,37.1236756544775,330.339647657217,-27.5944095559253,1217.45138395534,33.7398566217856,836.955628813852,20.905148544935,381.98003081855,22.6913243989523,264.897754590299,-24.6237976055934,479.854456451654,-22.7634020144408,460.836850613343,45.0705340498272,240.956604187527,0.566312819521976,260.180774323685,9.32867665247726,597.851799947979,-8.12798664449643,1258.50204874355,9.63647954313723,656.305166813154,-62.7973057264345,457.79834099306,-42.3958367374358
252.864738534487,-13.7765072906185,348.417700172565,37.6574501099401,329.350613254182,-27.1184422135794,1187.43121554689,37.5980874046881,829.776155369498,22.9137478499002,379.522185384915,22.9771280298662,265.744682595686,-24.626995494278,475.153475621947,-20.981977682689,463.239086265805,44.9402042108725,236.572359112784,1.36789428389495,255.639994404457,10.3147555828864,589.066011454681,-5.98751268417262,1245.28002766461,11.1064072720641,648.491449739838,-60.9683401019778,456.102253522155,-41.8783508250846
250.0606791749,-13.1105348615441,347.75203513936,37.3081917916149,326.990783298185,-26.6624612756124,1186.3472938434,37.310071742195,829.145732737737,23.1546911140869,377.02171765192,23.3466589589235,264.9845154334,-24.6373894342735,473.199082097207,-20.5395714530616,468.609063161741,46.9175421473179,236.050127918447,1.39199615058413,255.93055491806,9.68466115954428,594.54468025282,-11.8897117427328,1227.19052215026,19.8638826988762,648.492955712993,-61.6331440302434,455.793055249039,-42.0481742932562
252.028857600499,-13.4611237750966,346.533085274981,38.455628209644,329.400393990736,-27.524967695036,1200.70056235869,35.1563269598731,830.563463897108,23.4918942785743,379.09720089808,22.9587420407278,263.421035644544,-23.8608130514221,474.437540053035,-20.2853035832381,467.409535513827,46.3468636565301,238.593649200079,0.914620652162082,258.110581458948,9.32706177668956,592.843505519348,-8.34202206301753,1232.53902545896,23.6828736915773,651.448553344066,-61.634323191329,456.201902812151,-41.9967024382144
254.839291633163,-13.7558007006088,349.790805971262,37.1081476497201,330.878036218264,-28.2585800536931,1217.21245048129,34.4806284961936,835.003346727212,21.2547419976293,382.174445081016,22.8512808367737,264.058568233619,-23.6034307978387,480.153716492757,-23.0370800595038,463.501124937799,46.7507257604128,240.700866336773,0.635762453933441,259.49187300948,9.55144224529231,596.806886784521,-9.84767417767858,1254.5213770729,10.2132897127669,655.831579926461,-62.642363773169,457.607475971742,-42.3793549148848
250.407156444303,-13.038526939683,347.96176247895,37.7652980406052,328.140120475207,-27.3439970816832,1186.8111846389,36.6819409373,829.868988972321,25.0445030018728,379.269651534243,22.6911993227418,264.991267235392,-24.0712365642511,475.680598767978,-20.9970441284603,466.864247066161,48.9518342310835,235.912946709293,1.5850267078267,255.76214376438,10.069135465626,606.130166991985,-16.5050455317997,1241.36938717079,11.5879650700673,648.598763967837,-61.2052606558412,456.293962877534,-42.3251620649081
250.570253031489,-13.1640572017049,347.397161579472,37.4697327988637,328.771248573044,-27.7435806059095,1188.34280085904,37.6309531566983,826.852098166742,25.0869107387769,377.887726646841,23.2206257550564,263.504802535187,-24.1873382893933,474.368200716264,-20.9756371768024,471.972764476341,47.408902222931,237.14744348211,0.950551284244704,256.05231366948,10.000989717699,581.280524561364,-4.63101620495947,1219.11225248224,30.7384661113224,647.90640618964,-61.1488537699164,455.096450158887,-41.87377903907
252.713458315588,-13.2294898583348,348.783338191902,37.1740662742265,327.256077207356,-26.1861354411464,1207.21157762754,35.1509454757391,831.858134976447,22.802760136175,379.046009993144,23.708920715193,263.938522673825,-24.0486407450532,477.720164631147,-20.987862574145,467.991294264503,47.4043458141754,239.006556985746,1.01053327504578,258.539178310968,9.37572690037046,612.236513727301,-16.5287893335417,1221.73809114808,35.4411696287893,651.536024564714,-62.0461729609732,455.879820179305,-41.7193712516346
256.066487379804,-13.9417765863994,349.211655595751,37.1668946748251,330.127362134346,-28.5760261799925,1223.94890672954,33.3533193904043,840.12720821079,18.7156206706793,383.616406241579,22.6785007733908,263.736339737638,-23.7724006336193,479.897903474319,-22.1645541822999,462.557808535087,45.317292736321,241.400852857038,0.664998178980395,260.297650288334,9.48193313922405,596.426410169561,-9.22916091136748,1258.67680035306,10.9425673470078,655.718230116878,-62.7235719221687,457.67973113669,-42.2055106801213
250.140009772567,-13.0156745160182,347.063493567348,37.6289331969116,327.098878241896,-26.7773545630691,1186.52052249207,37.3016437436619,835.804534128497,18.4456519966482,378.719653024368,23.1974789591158,264.451555044383,-24.9594596072904,477.787350304671,-21.768550974056,473.979686690995,47.0681294148479,235.772864365926,1.60783617454626,256.120319175188,9.66952075670018,607.102068900373,-11.4300390233341,1245.02995385073,10.1912535455627,646.649492385415,-61.0712748616306,455.606792950993,-42.204961754692
249.980763154613,-12.9425826024921,346.56602399078,37.3385496968753,325.849190942431,-26.5622351277015,1184.606100917,37.9583421688414,831.086370400851,20.6521992248122,377.336691920116,23.2309551257945,263.675123938085,-23.6964507239088,472.872785668767,-20.3479057371124,479.026135670992,46.5231514127498,236.161424061063,1.5739832490884,255.450501315792,10.1990764264648,592.415346502826,-7.11953768721472,1236.34969247949,15.0762132547488,646.491819195231,-61.2225322086657,454.788368785987,-42.0533162437768
253.104095576397,-13.3196539693826,346.175317987991,38.2687361162549,327.156962826623,-26.5234586119391,1205.46357590715,35.7030348621746,834.271621197582,20.8774364898632,380.411236423916,22.4453012033375,263.421590700695,-23.9709335680365,477.280119215407,-21.3289842536195,470.666941411725,46.6080569929379,238.715949445488,0.968564675148554,258.651978291664,9.45147711642883,586.488053804083,-9.2322127812403,1237.58143484036,21.9033551923964,649.149136107468,-61.1792021600816,455.870024962493,-42.2556187471346
256.326446243762,-13.9436010819681,348.24429696695,37.3500839380534,328.337621112306,-27.2529284181316,1224.15997344197,33.325123791669,837.133695859001,21.9439203931193,382.833634656562,23.3545131035266,264.0899915298,-23.474933058111,480.417449286753,-21.2217561285641,466.487483259935,45.5737006782954,241.120900763555,0.864149094116106,261.70456008764,8.79197043425733,604.256842417722,-10.4413369202058,1242.72157765274,17.6250872792487,655.328414248945,-63.1013243096762,457.019314824476,-42.4045414682634
250.627906534362,-13.0065377751266,345.171458517152,38.2121182977966,325.076010873195,-25.4070108309951,1185.52319317007,38.001468660028,831.798211373652,21.2730781695958,378.864462284106,23.0342162332275,264.020814392124,-24.8004575971677,474.844330706385,-21.2414718425348,478.342389641436,46.612818654962,235.589611289329,1.52250237062989,256.491163833674,9.54555728063442,590.008242988763,-6.75192036999218,1238.26069704567,13.0879173996916,645.385330165089,-60.6813156218935,454.791318660391,-41.899343109556
250.448964663773,-13.0103158049002,345.799913261286,37.3287413434303,325.278678708644,-26.5946773105881,1185.26376889448,38.280640472314,825.072252639042,23.0683009998655,377.300463332764,23.4706156838908,263.339478130015,-24.3086688415511,472.667994001229,-20.8493048000482,482.300582516255,46.9653653036605,235.964784660647,1.48369261641286,256.167129304827,9.74377237533775,600.529347859373,-16.4458335070617,1225.35707246226,15.8892418740688,645.072729006098,-61.0579435917476,454.542125941741,-41.9438126504559
253.551620139196,-13.5606367269531,345.541261266501,37.5127859599726,324.53253531938,-25.3975946323922,1205.88353923624,36.0931514112314,830.315451409465,23.1611522577469,380.041274043936,23.5328672897882,263.339358574262,-23.5285231898824,476.902505482939,-20.7624084689491,476.172637545829,46.2782740007454,238.54054571027,1.07102319816414,259.204123037668,8.8275481878716,600.844832894212,-14.4906718516993,1247.09909256211,16.5638210800294,649.06504513823,-61.6056432316736,454.534318050365,-41.7789788695658
256.883816051503,-13.9592179451692,347.511005847288,37.2892398811814,328.09124132238,-26.2462133878734,1222.59541314859,34.8928514636859,834.679525758949,22.6636380389683,383.490447266701,22.8685992951103,264.418239325895,-24.0587141906221,482.131407607422,-22.6924335251455,471.042316354605,45.0903792614215,241.317122249946,0.407299296692083,260.940175134099,9.13881441083674,596.859584626241,-10.656262007434,1247.29970850146,18.9111416888797,653.994612522965,-62.6056206658427,455.467825661108,-41.7943092948539
251.552413854999,-13.2043196054334,345.500345632191,37.6138019401417,325.472526408943,-26.5907291062628,1189.55968586506,37.6607501585388,829.594163952562,21.6463883928825,379.860380947437,23.3672832777162,264.569490822934,-24.8420759044419,478.390122381613,-20.9471164445977,481.367311217056,47.5192897826,236.564413369979,1.24221149115732,256.339165268689,9.87251628579782,592.722700632257,-7.2278027240842,1241.93898858583,23.392789508555,645.3004341688,-60.8585036263326,454.487965560628,-41.5215376294698
252.025828404249,-13.1591002051451,344.598199393821,38.0363088643525,324.494744075778,-26.247917110738,1191.20589914139,37.644884722299,826.533888213328,24.9147396637492,378.885758939913,23.1217646630531,262.770987480854,-23.70829725839,476.350265133005,-20.6292745845452,482.213410118969,47.4408900896075,236.890662307837,1.09957396129521,257.085827626377,9.54647859822556,603.474227456633,-14.7321430616988,1246.0273671932,8.98230125011149,644.631553490925,-60.220193030861,454.03022414757,-41.2233634302383
255.05013684503,-13.686053387991,345.406212411638,37.8009106475091,326.807086211654,-26.7369388988508,1210.82444278643,35.6460069519611,835.079631155595,19.9128584116739,380.971588733943,23.2918293967379,263.620626860537,-24.3167308050886,479.81138636912,-21.5178270071858,481.083405909481,45.3083907310209,239.484794358222,0.740956461797807,258.982128692533,9.66038182532566,601.957790661671,-13.679605822785,1246.32791495976,18.2844434620574,649.783793300466,-62.0048351378581,454.938592074491,-41.9665103430323
258.539285400583,-14.2949024767295,347.160689120437,37.0582056656166,329.948470471165,-28.1679207085703,1228.71617090643,33.622918917185,839.785463863392,20.5957351670353,385.095068619354,22.1392841877789,265.061259848581,-25.0191496096356,480.289126890835,-21.0643267201022,473.395930351368,44.6864329181766,241.809130246457,0.519849849229157,261.471188875189,9.0154583693048,599.3098006193,-12.7764918906581,1260.18768947713,9.82125285272804,651.786762671879,-62.0401169687982,455.499368681216,-41.5122669221231
251.99249818427,-13.221389118146,344.51428530476,37.7609412900036,323.192570217892,-25.8331925541285,1188.06359510299,37.4550673547961,828.823038595545,21.9083992067611,379.005765091079,23.0412752352206,263.721179115466,-24.3962435694517,477.349078852962,-20.672906785231,486.309207585854,47.5223940244808,235.810383159902,1.62330486984642,255.920894959086,9.90381321363965,603.678573610125,-19.3747920339129,1233.83333017388,17.2209617278171,644.106101432501,-60.4025738852931,454.127205564254,-41.9334282377286
252.03482965625,-13.2538454394818,344.689197371748,37.211329316505,324.995972264364,-26.9319498633767,1190.11330401632,38.6621348874545,826.839311478588,23.1137219874429,378.486237463735,23.1300107131158,262.219823641271,-23.8875167154617,475.34337938377,-20.7931237696475,488.588861581964,47.0800300421176,236.730603817042,1.16642503612085,256.395030563589,9.95471184143376,598.629048825706,-10.6479596132275,1237.01699936508,12.9812207405996,643.485841600401,-60.3829875562092,453.450886759703,-41.3372955205925
255.482683032499,-14.1313071594084,345.345537272884,37.5107940630235,324.396195054407,-24.9524236587313,1211.85909489669,35.4009016233064,828.88678864381,22.2239056580484,381.113683048833,23.0470973724653,262.717428864011,-23.6793454296437,480.022886578184,-22.6717665621276,479.531076243594,48.2422634191561,238.862760836594,1.23299437379396,259.234662465633,9.27736659572659,602.447888955169,-11.7763386618376,1249.47216090539,15.4540347091689,647.552319854388,-60.5484206527758,454.697307208482,-42.0092077671783
258.391648913951,-14.5993774451692,347.034433859568,37.4981880811367,327.370907561844,-26.395315280749,1230.39433308125,32.7604609320929,837.535167394737,19.1220620286121,384.50148447956,22.712458216223,264.695978902253,-24.4574518045675,481.859855007524,-22.2411526267674,476.544941797185,46.0181941633194,239.98137179239,0.563194917180244,261.122821757087,8.74213064778107,600.721626476532,-11.8600468843302,1261.50087512289,3.51496013228003,647.171132863951,-60.8223039097783,454.653327721881,-41.501924688407
251.292606847199,-13.141214510473,343.934175904847,37.3838177132543,324.206138884254,-26.8409178614248,1183.90844524118,39.1166207857677,822.368270189638,24.6944356562975,378.084586549038,23.1901441480431,261.377808184718,-23.1467724219617,475.559721458181,-21.4475317420848,492.362706225112,48.1022064995229,235.389594707847,1.39607219416536,256.030258468572,9.67613057648248,596.989454564633,-11.9903994935131,1223.22697146266,23.1464405034562,642.035250130644,-60.1979320496605,451.930824896381,-41.2511564071952
251.21561586935,-13.0623004206619,342.851199556056,37.7631482148455,322.707418974005,-25.7426636076502,1189.71922379574,37.9957480803901,821.702481014907,23.2316832186576,378.184268410377,23.1741316136275,261.477400333274,-23.5427126049016,475.529639630857,-21.810102317451,491.043805371522,48.3116802883741,236.045697295487,1.3636051335932,256.766541060789,9.40041309465108,605.981665228666,-16.7961413415991,1228.4873296675,18.273937004358,642.887770855201,-60.7183442659849,452.130807248999,-41.3525640235024
254.554191361222,-13.5523629843793,343.168045498828,38.479713146296,324.579304355509,-27.378197979834,1208.29856983012,36.1968710191448,830.025270151608,20.4889464944119,380.439312000802,22.9307636683686,262.986337940177,-24.4726666307073,478.070596495203,-21.547676294138,484.384911177678,46.6789033656489,238.285606029763,1.02370863999208,258.711784034259,9.29148767819094,600.05142022129,-15.1248877394439,1240.76770784034,18.3984966128168,646.630882380559,-60.9781531732223,453.04506443681,-41.4798450230442
257.638486786549,-14.2377222520013,344.917917356982,37.8756207179975,325.326176014953,-27.0214897798805,1224.41964368367,33.589451730337,833.431778671467,20.3354125123679,383.172582155881,22.5451592703315,265.050426345882,-25.1858325819161,481.650207340588,-21.7831887420609,478.924649825847,46.7204199015107,237.645208222753,1.13615935119161,258.929261026519,9.26022021971914,596.629587447101,-9.0052051972473,1230.68418605147,28.6384982731816,643.855539126403,-60.5920017124378,452.655199971441,-41.091576156763
250.6372771926,-13.0142933495484,342.471542175814,38.1121704329976,319.913680466953,-24.9914266015329,1186.20145363925,38.4413794382215,823.999067490248,21.47187786859,377.283281975058,23.0745098016978,262.063315962942,-24.95276535746,475.15080916543,-21.8383590703489,495.40832115304,48.5359194842291,235.226755845551,1.39922969744099,256.072886227547,9.62434078580139,598.975001070555,-14.535809363319,1233.81624892455,16.2337877054472,640.280470758699,-59.4227802923272,451.228835993482,-41.1330907737441
251.270668288916,-12.9998796164151,342.741721668647,37.5198302193575,319.756548421411,-24.0798648786278,1190.80215953095,37.9313336181758,821.027978841434,22.3286775441602,377.063914456979,23.2542385434419,260.636073967532,-24.2508167111811,474.43205587524,-21.2420559833332,494.782975254425,47.3323222284472,235.562241325367,1.78963785342364,256.397348007433,9.69076360358398,580.78658033274,-5.08385341074975,1223.66240889094,19.3760340321556,641.282449164844,-59.7127792692359,449.358789536972,-40.3197606786025
254.932185879578,-13.8171465744212,342.87376873866,37.4137408044724,321.569128303597,-25.700255718774,1210.46096432727,35.955701421914,827.633855224922,21.2646714291789,380.422283060753,22.8841681831383,260.899265530031,-23.4445690441162,478.611677320042,-21.419699434049,489.879872061257,44.7154232319107,238.120983967618,1.09649616328907,258.040293708159,9.59417237491973,605.704026508985,-19.4537407058818,1235.68225314669,18.8839799727178,645.573999042978,-60.6407479393344,451.227090781552,-41.140292017265
254.46559285296,-13.8967523381709,342.800123729194,37.89931683709,320.107315829932,-24.3274008754231,1189.90063797042,37.4055536384598,821.463064720935,24.0058371687016,378.773004985378,23.1554944030406,258.797125956366,-22.1254791950274,476.694248983101,-21.7177384207824,489.66221355031,46.8819180907063,234.374189011083,1.7353600751087,255.472742699154,9.76648914761166,597.404227231259,-17.3983895642082,1220.88992045455,24.2439503450705,639.334087642214,-59.0824795663409,449.690045069721,-40.769350946894
250.286722876169,-12.8226350653456,341.688571841119,37.9123243252211,317.959244165507,-23.8579093047382,1184.48978675045,39.04884914978,817.333827994372,23.3665525938394,375.367016733877,23.5433298613454,260.162718794155,-23.6686534447979,473.975303609374,-21.2809709969455,496.21005082792,48.6793175422238,233.5492306221,1.94003699852803,254.628875044233,9.95256651698589,596.528491377754,-12.4023006903343,1237.89873287191,13.6127674045644,637.848918908151,-58.8209254011634,447.794898673385,-40.0040555660949
251.798063740361,-13.1329098925948,341.360879039484,38.3228834930756,318.706793818747,-25.0946744151578,1196.5243677809,38.1306373213774,817.075601670185,24.9091408781452,378.226348067133,22.7420632207353,259.020417121583,-23.6407725677411,472.897842392163,-20.1132181283207,492.870049141835,48.2905169659461,235.577124594691,1.88075674969958,256.111406737624,9.93887559594582,590.416699074227,-9.89136668067719,1228.24927759861,25.7937059895991,640.753587816107,-59.5254015214144,447.236292790026,-39.625425351726
254.896615938171,-13.6100501346215,341.948854458803,38.106333184766,321.214403371206,-24.7358173455294,1214.44423263043,36.7811389867524,819.802345319723,24.2811044769382,380.356455416957,23.1218337222257,260.586383771869,-23.8833810759066,478.777231953846,-22.6255113075864,483.642850359781,48.3670150729279,238.49663606053,1.13133810529081,258.704195356228,9.54333108675254,590.21709076176,-8.74981445271031,1235.27307597601,18.9295618074648,645.980100329235,-60.6596729926418,448.808111901751,-40.727558726208
252.475490437523,-13.2113318233419,342.315221878129,37.9522619610142,321.292564631168,-25.6045549870794,1186.94993066149,38.2549359213201,811.696856867885,27.3552495196348,378.178157049896,23.087562412937,259.69682188314,-23.0916112474642,471.491043493253,-18.4635829642271,491.986801976814,47.0487244287534,233.440040702137,1.99953152868094,254.34248360581,10.2814440009815,586.31336913446,-7.81276916851236,1213.39030070671,30.3140982555175,638.131633960377,-59.3789917674993,447.287895286329,-40.1569149949351
249.831932773657,-12.9536797574119,339.817870507998,38.3545360973654,317.6268279457,-24.2967242818507,1180.80866788405,40.0391016683498,811.48059630382,25.2189513794337,373.673062004833,23.8929458782193,256.245437330078,-22.1314253394553,468.881723584585,-19.4166354211226,498.238720819408,46.9059057836313,233.096764523885,2.06495764108877,254.379640689212,10.0866350171842,598.590669834169,-15.6756916137574,1221.8724117676,22.3145213778744,636.702651322024,-58.7298547252051,444.686588925616,-39.7757184420057
251.207125325087,-13.2073544464943,338.971093689161,38.708271029048,317.037803337143,-23.6473994406227,1194.39625783616,38.5108003697439,811.234883718571,25.9757981380744,375.58009441093,24.1909483950587,258.520066238699,-23.3012471008752,471.646780551928,-19.080499718147,491.418323775408,50.054947183597,235.673699590179,1.53524816612385,255.933218126708,9.80772981760744,582.797370203986,-10.8436633986664,1212.01658915019,23.3254966541546,639.110957456562,-59.4559330392182,445.559164389786,-39.9093816344824
254.759857328034,-13.7717776638275,340.730015942166,38.2600894572313,321.418672739476,-25.237384274799,1212.69179493365,36.9942782568903,817.276412310434,25.4782412054428,379.841358425152,22.9486320344204,258.152690695595,-22.2271749201911,474.242216753714,-19.019346564389,486.998956905768,47.5993646415911,237.278958814496,1.56541182830817,257.885551499137,9.86950081537804,588.64350190319,-11.4122602305115,1252.14727867124,9.77476921501682,643.816519656532,-60.1067108292639,446.55289192608,-40.1665557408409
252.876982492181,-13.6142985093854,340.163362602586,38.4442104324668,318.80693267039,-24.5783278618887,1186.50630681746,38.3022621937083,812.139013113726,27.1172111822514,376.733358297105,23.822291716642,258.832428582083,-22.903784836666,475.756526847385,-21.8286949649393,485.268140353105,49.509253788336,233.448885372717,1.96010326157272,254.211427039707,10.3897117250675,588.131353269733,-11.3136713563157,1210.42174690123,31.9863991797733,638.312165090227,-59.6932853196937,444.821195623685,-40.1220655591482
249.309863973353,-12.5918790811521,338.266427517617,38.744683023102,317.412157756576,-24.5794522898167,1182.0121416971,39.4723182859432,812.437980672684,22.8392450778888,374.196002600631,23.8666856467619,256.723019519199,-22.5625395184543,469.134846195963,-18.5660073200748,495.009014320468,48.3132808362575,232.409592204693,2.33355399562178,253.797084709287,10.3239178156232,590.962781817707,-10.9158609203671,1216.39536386471,14.9532558193449,635.075001813713,-57.9406370162469,442.199371268021,-38.9549175764704
251.005706568504,-12.953131720759,338.901528930257,38.5172462762964,320.03660512774,-25.8305714580526,1194.44087760901,38.3238986676814,809.4709732517,27.1530988996441,374.940225432451,23.9867237447445,256.960580806731,-22.7024136343951,470.502093286981,-19.4303950538825,489.733127395757,49.2812858247695,235.451171522224,1.65714336445545,255.28182052423,10.3339533925582,587.520245234124,-11.1072959207878,1197.34715089414,34.1389314812907,638.455986170318,-58.48352358874,442.58326199482,-39.472787587051
254.730074324792,-13.8306649237272,338.606130127809,39.2989467591266,319.264474196838,-25.4128806447379,1213.73720992666,35.0371883415787,813.955755310049,27.4613969072512,378.915337629245,23.3945847419003,259.113340227976,-23.026094617959,475.315567963194,-20.5725994587656,485.47708694466,46.9317843722926,237.903827330065,1.41326856410685,258.300779610287,9.4076344609723,584.183420765246,-9.40768144667482,1233.38304259305,22.1017819801311,644.640491911425,-60.3204301212722,442.973308218822,-38.6473299791948
250.850593472538,-12.9573077734784,338.912449451468,38.5270081800912,318.887020551577,-25.3023082184355,1184.8769279524,38.6236099179812,811.46917267628,26.4188402653759,375.974030530889,23.8180504571758,258.02769996025,-22.9747041170485,472.531466185673,-19.8492309329265,489.234698590001,48.1571083279635,234.111527474,1.84324375826695,254.907030739499,9.85512821526734,582.437685040474,-10.9548097039873,1224.35184811037,18.3661821576581,638.927649920241,-59.4320194906614,442.444880520546,-39.5915906053432
250.682424082907,-13.1074827370248,338.195468938396,38.5416445781492,317.638679020282,-24.9865045734649,1186.94380787097,38.5791518462149,804.701498088371,30.2238127885666,374.73462395604,24.0406906017858,257.794976402459,-22.9126019611873,469.910256791406,-20.4892583824997,490.545257758333,49.6509555135885,234.131787670872,1.97522444189791,254.777555243933,9.8743794810057,572.00688036879,-3.79006847261228,1200.96014436805,27.40064070031,637.051254094775,-58.4732420879006,440.583360231067,-38.8764227357824
252.655877503921,-13.4243875324902,338.505122952681,38.9139292342699,316.379768153924,-24.1270579394868,1203.97103093806,36.7158376593735,813.081067973359,24.1677028533129,376.851213201592,23.7044754852912,258.028426642343,-22.8066654041683,473.525569106393,-20.2982087465361,485.820077437339,47.8859383998729,236.759992056025,1.58032711733723,256.468108853549,9.7625921089835,576.836963140257,-4.85894553655926,1223.1868204621,20.5020086725567,641.10803884837,-59.6680809458916,442.184770162707,-39.0929273010933
255.827571250665,-13.9541960097899,340.131654109171,38.6958449545867,319.516300767306,-25.3356517350836,1221.75221093902,34.123733685285,814.775108239534,25.4671207885368,381.016226928281,23.0717177158295,260.4588458905,-23.532203851359,478.824256569535,-22.2675901928243,476.013422602544,48.7716244269913,239.558973508676,1.33595428490475,259.333993550721,9.41060972511982,581.784293340486,-5.05622514587289,1240.72539190089,18.6499949581576,645.227556993492,-60.5721920550344,442.90026560464,-38.9429704463354
249.319931393243,-12.8614203206798,337.876565634124,38.3914730857582,317.466546527094,-24.5679345066704,1181.51727869224,38.8833179476635,802.863717676384,29.8236155417443,374.38100524814,23.7157116051041,257.372740449314,-23.4746844023284,470.030675585309,-20.1209576090905,488.594969286371,49.2067126085965,234.177300332856,1.58289027100336,254.030509295564,10.2690590984558,576.076052721087,-2.62576001474598,1229.64785091573,11.2004974961021,636.947373126003,-58.3087135021324,440.037901461738,-39.2516520056247
250.089929810705,-13.111447864431,337.38905185352,38.8625126437115,315.433830386242,-24.2168303238616,1185.52613431684,38.2948407914131,803.299780694914,28.2355643256272,374.278614090694,23.6630230910757,254.70800302217,-21.6208792145675,469.757884395274,-20.3655552165526,488.691788993507,49.7969292862977,234.383757573311,1.9184259634604,254.467880385224,10.317132778734,565.378241901878,-3.68231128222083,1212.26111152846,22.88478826459,636.670084398286,-58.7515906671251,439.45772018254,-38.7562230238501
252.897906692678,-13.3932346859614,338.959163923548,38.7228906599151,316.573832732582,-23.4675907500159,1205.5606150001,35.975781819545,808.786003933143,26.7335830622398,377.632754519897,23.341377535758,256.670929356934,-22.642436277474,472.821487008759,-20.4899192927904,481.375406029669,48.4689825448669,237.213675919873,1.69181213627169,256.845205610217,10.0257755138813,583.853712946114,-10.462645016916,1233.45874522686,11.621574450839,640.942018392103,-58.9817687586168,440.597246668377,-38.7794759238362
256.486695513734,-14.1490361283506,339.955517661126,38.4609705991636,321.151261502105,-25.1300509841544,1222.75698936824,33.146100821841,818.183580592271,25.4125188238584,381.016315080284,22.9541116552733,259.720531971019,-23.9259764742611,477.518667113662,-20.7565433951815,476.040884065927,46.6414330986481,237.551074634909,1.21975658703655,258.400094877861,9.23587737786591,584.864091507542,-11.3766788981482,1234.25282978007,11.0976774568375,640.762325894308,-59.7118896884643,441.137517054376,-38.5110364317861
248.784496019247,-13.0121263730218,337.598887853569,38.6080705234688,315.15256716333,-24.0119367668591,1178.83190057308,38.9437135081193,804.294168197641,27.2735461925376,372.599154706666,24.3577434014149,254.51165365327,-21.9782997731713,469.028503721482,-19.5132460752691,487.184680710636,49.7471280015798,234.05226797539,1.8249774919081,254.093890677899,10.2498950986038,573.935211882302,-8.1168125638476,1207.20256126523,18.0317256434622,635.79093786805,-58.3588292479579,437.956676302892,-38.5180222931222
249.514349372561,-12.8265490135787,337.245371720131,39.0272289943621,315.296449940031,-24.4456124542643,1187.99544972218,37.2715912442631,803.766597345016,26.1666126554425,374.388207196206,23.5254317763306,254.397565099222,-21.7327576399045,468.619773732225,-19.972482332538,486.057484814852,49.3317789840467,235.779823964932,1.51546716404363,254.651471659149,10.2136361228084,577.704335508,-9.16018711078832,1211.14780156871,18.3712864077518,637.909255215422,-58.8633272997399,437.983618663807,-38.1627691226376
253.459788073729,-13.8182097588159,338.24876493618,39.058489835505,319.606987317003,-25.3726241251911,1208.65900873211,35.3489056252536,809.043343563922,26.3929487439783,377.596002540986,23.4458700505107,256.083116233492,-22.9665651835353,471.257564374801,-18.9620938395722,476.730873874254,48.3872320922659,238.409394464844,1.36333380007579,257.766525791919,9.50620059431679,581.544529194557,-10.4841866230198,1214.16219988738,23.6830268621309,642.735977265145,-59.8695924525437,440.574422935342,-38.8976977093713
254.991827708425,-14.1134660996872,339.426832338096,38.6819707839587,319.131450327678,-24.7613521497399,1196.03783461647,36.1259096190813,810.469378480996,27.6971762205522,378.032346906803,23.191523621052,256.638979466388,-22.4642454386053,472.081652858316,-19.5588021309757,472.042169872757,48.1301307790937,235.161184209779,1.68950789888101,254.676187770551,10.1605286629318,585.841112900042,-16.157117784981,1210.10495811192,24.5508239240819,639.119134178192,-58.6971956023297,439.210469678724,-38.5192409973179
250.001727170829,-13.1895873868233,337.196934881428,39.2559613465318,317.886782867763,-25.6621730654474,1187.95632184689,36.9083096358158,804.056913971154,27.3059452271381,373.279662498165,24.0466711688972,255.742894077167,-22.5584002442059,469.523343252669,-20.0606698918645,482.023933181117,49.396821179174,235.143041092257,1.61011289264392,254.517819175077,9.99905022195172,576.702078769902,-8.81391955118464,1204.15865681913,26.4849128108159,636.763395673153,-58.5395637558782,436.84693077756,-37.8042059467711
250.723347704771,-13.2714368119588,338.078978051084,38.8476483024923,315.88323939917,-23.6861749148623,1196.98950201353,35.8346490306962,806.030420367325,28.4366290132508,374.981888159954,23.8472550040089,257.721555200188,-23.1328184067849,469.503419137425,-19.0600557522257,476.04238758888,51.1377432696096,237.413547216268,0.988562978963467,255.657689194018,9.80456722878234,570.616029008541,-3.8386294694111,1209.9259532235,21.0712230781749,640.517749987797,-58.8667932432841,438.101790851611,-37.9879571637522
254.918795595665,-14.3049220164058,339.9542380571,38.3792606796877,319.353881040066,-25.2626584900251,1216.05179276518,34.453647098825,813.523238214722,25.7013645195873,378.521316812381,23.1444049537925,258.507405152345,-23.4323327422302,473.094229308749,-19.2938304005138,467.066128489572,50.9680779245764,239.879441727057,0.932913263209981,258.849245304192,9.36882124466442,581.400639152193,-11.5132516893167,1216.96687465946,23.0385909867055,644.960156466159,-60.0428342642389,440.474487258835,-38.9309919062986
249.098951577495,-13.228610583362,337.723868486189,39.0600747882021,318.561524612829,-25.582827781627,1183.1593653345,37.5760549629512,799.465232634391,29.8301549941346,373.241086138404,23.7449043926354,256.887200334405,-22.1743859175833,468.30685654852,-19.193957716362,479.8511510042,47.6347573606647,235.667911608293,1.06457411895961,254.41096102807,10.1929463406129,571.771605910681,-3.76108706141821,1206.59882536179,21.5738554223319,637.484406748466,-58.5640838367792,437.335335811249,-38.296589364624
248.988057236694,-12.9821182619634,337.839402927621,39.4081066091793,315.174105803177,-23.825663344732,1187.7417740433,36.4505897156906,799.961135221021,28.8162075906456,372.47613976494,24.271398268876,254.020541698926,-21.4112968125284,467.67294947072,-20.0036099565998,477.515495402704,49.4576789870948,236.106340900433,1.31479782157407,254.301258337558,10.1737869096555,578.802124138627,-12.5317125961969,1204.84839359728,18.6437208566306,638.61868901908,-58.6581741106849,437.271462333765,-37.9805830161996
252.052293644605,-13.5424890955954,339.188770589552,39.0778289774124,318.457903117517,-24.6686228823642,1208.86206923293,33.9450487419333,806.997160970923,26.1675373526352,376.741100104028,23.255506837597,256.378366368142,-22.3049207960011,470.197112506452,-19.220210573866,469.449232874002,49.9587229546777,238.613381633963,1.10098969468184,257.328463414803,9.59101572565755,568.522629296331,-7.87079073278198,1214.85320775001,15.1216362543506,642.601534531239,-59.7823024948642,439.017125285386,-38.2076036166841
255.602181495055,-14.3402302761842,342.236539922979,38.1100652442188,319.776540999937,-24.7557223028317,1208.57084943008,34.5143067090585,810.712465311027,27.5926977516727,377.908343679142,23.1516961485456,258.326299661474,-22.9028718872321,473.012027472508,-20.9903751876782,461.062894400211,49.1185122858378,236.19363889389,1.27294215145869,255.268059635138,10.0006794897573,568.391972870804,-1.77802238748555,1209.34798128695,20.8005670844379,638.675217895766,-58.8351279003264,438.848524278632,-38.2070514006935
247.318383492401,-13.0319382504064,339.68339222251,39.0783174917819,315.958524364994,-23.618199101353,1181.79096659045,36.2822852425889,799.67007392696,30.1181644988524,371.747893595251,23.6207918034673,254.780307633832,-21.4395730159326,465.072379691061,-19.4476843516447,477.456933835791,48.4025303025461,234.475587051293,1.51417694548136,253.99709119902,10.035553633607,573.204780558999,-7.1371867063065,1186.15527730806,32.9263141951498,635.297464515186,-57.9398581665085,436.563768118327,-38.373273200108
248.166602812174,-12.9266334941676,340.717987463115,38.8077904241471,316.48703503708,-24.4485868348467,1186.87089414458,37.4027521451499,804.398257674157,26.0200494972217,373.316593359576,23.7252697794468,253.539959570793,-21.5761055659008,467.253082017496,-19.3368451743808,472.685008134816,51.2761250232438,236.205216035621,1.25746942894493,254.834096579888,9.79722113163918,572.69037739547,-9.99558040247218,1201.63954301298,24.5757608152929,637.962112182622,-58.8648753569075,436.849521484222,-37.8826119423078
250.991343071504,-13.4985360861888,340.619831553313,39.1590954726671,316.859575940489,-23.0504296551564,1206.98357409529,34.3926796086888,806.097531518645,28.3025167507309,376.151935268082,23.9727611773481,254.879948029735,-21.1650861095006,470.338416923667,-20.9415001501623,464.690794399509,50.4595839047629,239.156829166229,0.969435224491914,256.477093703522,10.2700523761365,568.688330549203,-5.34899822385987,1215.68759688219,22.705633323416,641.525753897758,-58.7670715498443,438.645419309117,-38.5069561359516
249.940335192133,-13.3011250951359,341.724490612395,38.7296054666594,318.691080869575,-24.9740146330121,1181.85106462775,36.9407150646103,807.81041313083,26.0258814773736,373.662903853806,23.8032256122461,254.959343932294,-21.8283725231829,466.54004787362,-18.599820721938,465.29054378732,49.9400962205598,234.334514583899,1.73681003981108,254.223182248045,9.80690673124969,568.78778012111,-2.55246847758069,1193.08711780852,28.3160309801518,635.825161558214,-57.7645196191558,436.158446289786,-37.7161460430839
246.653594950025,-12.7814341530439,339.911611806796,39.5501698053212,317.876458919618,-24.8677128664689,1176.53987755746,38.7100965897534,802.005125508207,27.8963755441966,370.718718257956,24.1921938120265,254.584318420276,-21.4868945846002,462.765806201279,-18.0410456027455,472.121926777331,49.4554827771217,233.864405235984,1.8430836765257,252.973432334015,10.6106847120959,560.734495127222,-3.13716266796998,1200.15284272776,22.6126331933628,635.02934705418,-57.8876898530217,435.14185588671,-37.8855710542136
247.84191746685,-13.1170025666116,340.739661604012,39.0211787574908,315.57862229146,-23.2080964059639,1189.19013178514,37.7276374950279,801.769069101292,30.2141850476533,372.649981902809,24.0429171721382,254.424744890979,-21.3858980033824,464.709986712968,-18.8422789810676,469.048499595355,50.5311976253705,236.208237761389,1.43005029884645,255.188740792594,9.85840776779356,560.434694645481,3.00451808389076,1188.96267658098,28.5328479774286,637.896300039139,-58.3399679583071,436.227074472587,-37.7536710042333
