150.240297945758,5.17514367372876,738.673822909862,44.0172075106431,591.644641941454,-9.11228456465307,308.466496271521,-4.38157273863844,468.084528077608,39.0224137472098,709.67939983074,77.0099130624844,1164.89256286076,116.393629498962,210.160800799387,8.42238080602992,551.947293134213,117.827741141674,392.880906294373,2.99183109067798,1325.48639529614,84.0385979067197,90.2722992949583,6.36230505141026,39.735250665976,3.44231265284233,290.842324767681,-49.7919648633216,411.340168644898,33.4685117123281
150.30574028448,5.4169786903808,738.140328606968,44.8567092583843,563.696516592833,10.4414464883961,309.332601821001,-4.74593791329917,475.584814446023,31.4482761854435,710.22404746915,79.3885307601279,1170.51516602692,113.316966174224,212.013461193861,8.61652411784917,555.654802195866,117.630078181787,397.136714475734,2.48514116874289,1343.72973559203,82.6081293289902,83.6600192963361,10.2393010932414,43.0936414670016,-0.0112906637443183,285.5309324449,-45.6586276532333,412.791739583699,34.5853987664699
152.809133188053,5.69097922998552,762.744353164303,42.2765379127724,586.610674290243,-2.02752186291197,316.028189590649,-5.54524737847179,470.69058658351,46.5531938622627,725.079899779148,79.1356185378829,1196.58999022274,106.879364175462,220.71328164233,7.10487971107599,573.577050702917,115.655631536956,405.876015327234,0.833557037083286,1389.56310435989,82.2066783813346,94.3664522738907,7.41555198390509,48.3101573561008,-1.55949738237765,301.655846162069,-55.0680102540237,423.108986124512,32.4348354712959
156.890386295634,4.8591983619074,772.653517843948,44.4089944489059,594.173086247709,-2.6470689446745,319.516600507758,-6.15438220717107,481.780567083388,41.3934170050342,735.238229120122,76.5255743590984,1226.3536567944,104.357268456571,224.1980334748,6.59306116171126,568.894424562856,121.98115285039,400.647475623544,2.01638038364743,1380.72545046255,69.8092803858959,89.7889802186833,3.63730291941859,41.1020961031793,4.01190250758393,296.731149020549,-53.5455978959229,411.446603933528,33.6017863194463
151.511540713751,5.35489331946814,735.872618615458,49.550115368558,569.827400003643,1.53192410865243,311.175421635749,-5.12047317360951,480.670024445069,30.7976903332173,715.314316751971,78.004727334947,1163.92400517223,117.655275799969,213.612339809854,8.06195592835282,559.323033290774,117.036753627512,397.01360176347,3.128540226496,1347.41696808664,81.9158549918131,93.9644406102535,3.48535600308228,46.0939153533869,-4.4711592620849,282.106834543764,-42.7523747378487,411.044907082884,34.9684278628217
153.036815874651,5.47753170651251,733.992849612748,56.4446163230344,569.643048382574,3.72865841832706,315.671026308465,-5.57150525806879,466.407124183701,43.0295176499168,723.863534106657,77.2882285837906,1187.9521835647,108.404039119186,216.910674646943,8.428350163168,568.2176620363,118.569942519574,405.06514106073,0.956064539685156,1377.56680603721,83.6972354614072,82.4493958395887,6.85490009566923,36.4459604944183,5.13620065548979,297.92824682272,-56.2884407333905,419.884912730135,34.0228584907587
157.122298398889,4.75586845054561,760.495336170611,48.4908152357508,585.121348140031,1.20542902466112,321.45265933506,-6.03848723193577,497.953461720418,34.6864633951992,743.118894493776,75.4754013558673,1216.52024630663,108.409663913965,226.209714007034,6.79490739739915,566.713391213097,124.986247139867,413.700973182815,-0.18904579717006,1431.66308042875,71.8935134590947,90.8195831890957,7.1437428835217,47.363529323991,-4.77901530784299,302.719595750608,-51.5763136574978,428.012681500391,33.1542068831637
151.474268677221,5.18638698294275,721.90362462028,54.5069356321328,576.537399854901,-3.51425742533152,310.389379002086,-4.79491946777595,460.798408297811,45.7869033016426,709.564456482352,78.2823475608062,1162.18980734991,112.234113643563,208.021279214027,9.67478502721747,554.345428570413,120.140831305732,397.804212218678,1.58722355285428,1347.88185039576,80.6925585981574,94.2439812337426,-0.192725238765561,43.9199214464452,-3.58620913737191,301.667279589136,-57.2888449174962,409.672605720473,36.0360345756522
151.818723234957,5.57968181208533,739.532295274784,49.9914251111546,569.264779612471,3.00552252840129,312.466200747571,-5.15380074547403,475.571282558909,31.9421195141388,713.413145032248,80.2006920731866,1171.66572273794,112.490195959779,212.695456262186,7.8835842256864,552.389804659468,124.412753472219,400.239085327835,1.56168783031717,1372.13516355819,76.6039788880775,87.9042059976908,2.10007350233729,41.2976983760551,0.954531474072459,308.343846010181,-62.3604015053419,413.325620681117,35.6211019931747
155.529589193787,5.12152384143836,760.545517988986,48.1080415688724,587.503261543911,-1.88006890880591,319.787880639749,-6.38857661416019,470.684380760943,46.4058379965025,730.43231207104,78.3735443674798,1209.99315359629,101.50732682321,223.20669975473,6.39957625892106,566.458965808168,117.662762840549,409.140242334388,0.309556808621522,1416.37826241604,65.6369887040706,93.1061559490144,3.53659892088392,51.6401047387738,-2.97608414572744,284.562881542068,-50.637871262463,422.225730868897,34.0122990800062
158.764307128769,4.6428341289729,780.669859623886,32.3163625400047,590.835628987121,-0.428308095917827,319.989441158227,-5.86864549737494,480.818848605293,46.5138772999526,729.051463916629,78.7245441334723,1221.5768425635,105.472272628913,222.282763226414,7.55152250072983,568.146808958649,113.79798405077,402.674683600568,0.90973497084341,1379.07349558705,64.606284695009,97.850116594111,2.38418902687027,48.3907479296413,-2.81821560642902,284.80256662059,-47.0466147144557,411.000733578814,33.8537774928408
152.279905736998,5.56010720470295,750.900084389838,38.0020154275134,571.491230948338,2.24849257291778,312.193457613043,-4.78845420362315,467.759120020345,42.057359017275,712.456354718859,78.7749120027335,1169.41724542621,112.835455689834,213.678586532843,7.79256350652571,549.949843310864,120.11879865019,398.147714071913,2.84061408560834,1360.17347919453,76.701859458791,99.5041100192664,-1.3958095874805,49.2423712460641,-0.749553246412095,290.508836003341,-50.3635628107351,410.986947102769,33.9234365785387
154.369135968429,5.27689726656096,749.628423521368,47.0252114027948,563.854587996048,8.52962155187124,316.051443511692,-5.47461545266523,478.781571461954,39.6233306999522,722.706164723226,77.9202318336851,1183.40212153949,112.184316421149,218.534835034463,7.12856435007629,554.488231111706,120.528901950074,404.698097975926,1.39670899731837,1378.6792559907,84.1830873701105,92.3963361895217,6.50351241037626,47.0480644312808,-2.43470894141271,295.913063973877,-55.4107822105099,414.790901324179,36.7810430486352
157.457558062768,4.95894019373777,776.085967523088,37.7194474776382,581.112456293966,2.46320977221118,323.215100952142,-6.71012317753696,482.887099756746,40.4351586530191,741.001818207874,75.6338667142151,1233.87618478807,104.78904842586,225.324571666,7.6516880248999,581.533777951939,117.074562562406,412.343888074506,0.748731836686562,1420.36844081108,69.0110127203525,96.2820238925928,2.46084551563791,47.2510120479079,0.627296634266662,303.380120117291,-60.7366450575411,428.16811929928,32.8832390435773
153.144427351729,5.23381849811025,728.593866677708,51.1956388625381,572.551756928974,2.27939101082945,312.996034081662,-4.8542149989957,465.27722482018,39.5868536468329,713.185223438816,78.1930256144573,1171.42570943072,109.260722431851,210.684145581892,9.22499276433255,565.075383047355,116.306034459541,400.247388952334,1.65823658515162,1358.04538318912,72.9741189347093,86.1978197344956,8.65667482538327,42.0316330250311,1.40706549140118,289.860308672243,-52.4002943789603,411.096519696166,35.3499609504148
154.475144691676,5.01528225463211,735.945650775037,53.7157333635485,572.879909638035,-0.579419919337592,315.571458307101,-5.34303656204933,469.884890077032,39.6954209088966,720.150060868221,77.8592560051348,1177.29009761184,115.95564254255,215.663789759744,8.01982890996812,553.752397883229,123.117693649542,402.670631599452,1.75870918845279,1383.37262487204,72.7762403390915,93.2611829188283,6.38425930881558,50.449492396609,-5.71792497152304,301.182056880198,-59.0691918423697,415.208530324091,34.5850403944457
157.964814465995,4.78174782864463,769.059491851293,38.2992331438823,581.637443507191,0.574361035184101,322.218472899307,-6.18662471618377,469.19029203245,46.5716196948392,737.18298290349,78.8778495101717,1213.56752815281,112.016593285169,223.7804985866,8.56943055584462,560.19011595699,124.045640469426,412.892806717422,-0.196252663736717,1400.21774885105,84.0646798982931,95.2169495530776,2.19054578997968,43.0568068400429,1.65438110239066,294.24363792983,-53.27951651112,426.447865342973,33.8149847682203
160.852513192794,4.63523125306734,771.51074143609,54.318590004569,598.579780072558,-7.97572331355815,323.221773333948,-6.59294707981733,479.782390362568,44.8957411010738,732.168380310802,79.3899177163288,1211.05601956428,111.5237038589,221.247119710027,8.73593492639436,558.327738943745,126.562870616825,405.75929579645,0.838571924838808,1372.93896338292,76.0873965944599,93.52678806415,4.05890090106338,48.8513928987796,-1.95531932244577,290.43367871432,-45.0317767865601,409.145593328448,34.0495661808176
155.119226187624,5.0384793406622,746.669749289107,38.2713563296915,577.664149316233,3.19340906091635,315.869059310062,-5.29313200928072,472.228197464872,40.8940936044611,718.712065880707,79.5071325128418,1184.16449841571,118.282284126052,215.399158628006,8.2288410678881,552.194184474184,121.09283787099,402.294000514402,1.49652516480008,1364.84856634784,74.9657969407116,94.9951456540586,4.13785228099127,53.2431527058994,-2.72937940428351,293.330814198182,-52.6632096649265,413.574354276743,33.4618552062497
156.687652660517,4.86114971470498,747.701644368497,48.6187013189121,577.844115018473,-1.81194124128413,320.016268072579,-6.18469084554443,482.723692375262,34.2669525603182,724.387208589793,79.2302033063199,1188.52320028722,112.168736842847,220.1158903949,7.09191143902231,554.743518246827,127.492360898527,406.029301115295,2.82061964120646,1388.63212356129,77.1591114581202,89.4466745865082,1.49670543450018,38.6395270966399,5.80129212388338,304.04740421541,-54.6501430614407,416.71584149626,35.2831045253969
160.167335750511,4.58228396545084,764.232888922175,46.8364325472744,581.523001878144,-0.190054357903659,325.688345349755,-6.46207759581074,495.445844876851,32.362065183738,741.655419532276,78.9220514429634,1225.21781181666,106.360072764697,228.177545279096,7.06935236776601,566.343368249194,125.714817990295,415.907564188187,0.265292025760858,1440.84485056296,72.2951928514791,89.4954568318953,11.9375867926687,46.7174016707365,-0.347654559184451,302.000523606788,-54.0255388527788,431.169399369399,32.2637271885635
154.658408547781,4.91546189213622,735.435353835285,53.0636235527488,567.916726920423,3.57239522353638,314.473635056301,-5.38494201009397,459.06286011784,39.6410207767932,714.414808537864,78.1826000312496,1184.22202505716,111.613953507262,211.520162663043,8.74045393658299,562.284351838768,114.661551258734,400.272904907964,2.64395450549595,1356.50982768774,79.5443592970804,94.2362893176629,3.68763783771332,39.898700649618,1.95230168127086,288.965005190343,-52.2097427562465,412.280323524217,33.8136132025018
154.798689815365,5.14648199442268,726.846879111714,55.0353391485346,570.825792600798,0.307564991954381,315.314808076471,-5.26796368245078,473.847951926167,39.6266208210501,718.395979939428,79.3455436701193,1194.63523351541,107.659959887683,213.715492575424,7.98491957069129,561.843934452747,117.044049098375,402.112558203932,2.1420861650628,1358.9916911487,73.4713569855841,88.1547272735623,4.8614143620139,44.3275762287011,1.52563377474009,297.338709259764,-54.5910991595088,412.162477179745,33.4816826320714
157.714634425088,5.12077243049782,752.562434629858,50.1156496023814,588.693169459552,-7.72836958323883,322.263942972314,-6.32276664352534,473.934048269131,45.7075530845469,728.209254824996,80.3973445883364,1203.78491504386,109.174870120962,222.284097222367,7.74906560435024,561.048076971253,118.836803411859,411.083000229183,1.20777696893307,1408.58179866167,67.1237426362988,92.262508535619,5.35277395202294,39.8275007225465,3.27405162742515,297.973650036181,-54.7793580899614,420.616000244831,33.7895544141742
159.472458254119,4.75985136481197,754.290409434111,50.5367594117487,576.402882825442,4.04196886621164,319.288371675839,-5.73530335289921,480.535820686398,31.0696619406185,724.147661305844,78.0570966373817,1201.37585863714,108.069223787221,216.062886239794,8.26933995734121,549.300140023979,125.047819699535,401.401822956557,2.00747168372685,1349.93565324672,78.1262436396143,91.0354636484502,3.76430182544454,44.4158232317622,-1.2526489541526,286.33406765747,-46.2252511022979,406.977654691746,35.569063862472
155.283167472799,5.01492634962878,726.932528795351,53.4855381872742,567.241271944764,2.4667036643262,314.834706553143,-5.2296497389942,462.458830887771,39.3960131548245,716.89044535047,76.0914822972619,1175.72506320907,109.123954909652,212.818845458226,7.52759870263452,556.35342452478,112.88840354992,398.496641484656,3.35188563423407,1350.25417764302,73.7264315163893,86.9218556625286,3.15570573016439,37.1593489268903,0.053411886262484,297.639035491824,-53.7287734632469,409.238240657289,34.524919448974
156.909520309067,4.70135189202335,746.504523664492,46.8688111256088,564.765322958218,8.5006663870497,319.043382884004,-5.93495000010357,478.577739351501,36.3221592205036,723.312798989839,78.8240802094014,1182.70460768513,109.763512548855,217.497709882268,6.89035053956768,559.227200928829,123.323953514296,406.759017744706,1.19918121707055,1383.87925011432,76.2696100496917,95.2903071686103,0.473766604839593,42.4335346125296,-0.242744512246184,310.197258552186,-64.4908189925766,417.364402993537,32.936460280587
159.552286216024,4.81189420737052,764.192942445088,47.0339824562474,586.387913627623,-8.28822074880786,323.802490253241,-6.47573741463604,483.908875385769,41.5895886476496,731.859281310514,80.1463446423764,1197.25215081797,117.261835858406,222.185835554669,7.87336079969017,567.202864690465,118.440257945583,407.705754113257,0.948821260395374,1380.62053459375,74.4520935075661,90.8119638546513,3.31728235726108,49.4177140032717,0.298360151179312,286.253867969581,-42.8685294142669,404.987444952807,33.483787992928
154.472982574654,5.34651084212671,731.045574405601,44.7022854704587,571.994726173601,-1.5296837932828,315.050837154483,-5.40823868368164,455.820092578504,47.7159524809846,708.645810158436,81.4953215054163,1167.2688616198,108.686057323934,211.212002013181,8.73893066823612,543.995255601669,122.216454983612,399.256449011214,2.83383594949126,1364.4377171749,69.2401930411516,90.465297437673,4.40947619863512,47.6483817990796,0.132536259601877,299.103401870993,-55.6078038226038,405.08392260851,35.139802082724
156.286575170585,4.73650560747923,729.301342690553,50.1070527917627,562.654396897461,3.84226355048417,317.739456047433,-5.51345022629067,469.127192735506,39.9854475849355,718.655392468545,79.3491978197154,1173.74461932458,108.707554824339,215.283857176864,7.77256591960716,549.582822941437,121.314565921388,405.817765243005,1.7047116370853,1369.43319218014,84.6948318897068,87.4572925648524,6.10434716167411,37.3697390916587,2.85221425792759,293.255276691141,-50.3722900335624,412.463093077063,33.266553820466
159.05779567724,4.93093562145341,754.041476999167,40.9139165795648,571.912271007092,3.79742224792601,324.244813621114,-6.67573106814749,486.321865287326,35.9985359827464,731.189019770731,79.4289286656764,1200.40228461004,102.877252347968,224.439178025132,6.24752302377595,560.437388905548,122.711805952465,414.007347724153,0.0657152327852362,1394.81403852832,86.0698318028432,101.21258304822,1.32217747238595,51.8050478045022,-2.73580101177253,299.541397906293,-55.5418202575277,420.292468448851,33.9434339169729
153.697755931151,5.32002335477166,717.230840029424,52.0648402900095,552.300554955553,7.78646988662578,312.621229037311,-4.88265091509935,451.882256014713,40.7509027241633,703.332150517481,79.6018996573601,1131.33135920985,120.165001588544,207.764609717422,8.73708627637388,546.619065706666,116.091629460913,397.551362876822,2.66384961196195,1315.76706514525,90.2844083755196,89.3712718786243,4.06494735705944,48.8827735437665,-6.20817837062014,292.668890620479,-55.5183832256639,400.618117803037,36.0496853190405
154.782806921144,5.15342793110712,714.71601161362,51.5318788167167,546.425568923426,6.23677552563694,315.293656825501,-5.52583897148957,456.458081815374,38.0103584519591,707.104337479642,80.0182802863729,1152.70662708659,113.355895877486,209.610445257856,9.00345467286209,546.309261007156,121.824688069994,398.71262873348,3.93999155243928,1352.97904934411,75.2123667027096,91.5357971981832,4.28613720344565,40.0252768254549,1.29376527814164,271.039598592041,-46.420736787871,407.896325509237,33.2073964111294
157.493516257772,5.04983457285462,736.455813971519,55.8397195227454,555.385143510537,6.58658426248707,321.213128894707,-5.87862722038955,472.221774255731,41.0973303492235,719.879197729626,81.523503848211,1192.99228611363,103.26165430394,216.679126363956,7.95193966617288,553.291754651979,122.082146438331,407.059253020383,2.49199682872211,1385.35657712861,76.0796879555322,87.3293989158207,4.75669008578179,48.9606320893664,-3.50484430480908,303.093668440132,-58.1168377726548,413.593081452588,34.4785730916469
155.68454443976,5.01758280041032,708.176965147812,62.4224368303129,569.64257950571,-3.27931052195192,314.204949911451,-4.98614025450222,449.601247277659,43.2980773440182,701.654060626021,81.5458969798063,1134.47542376112,118.984996913145,206.805173071068,8.59964079409379,536.887447768006,123.851058660427,393.674742826236,4.875338595078,1342.42825392142,65.6124087365889,89.346356422148,3.66943618666655,40.1763703864525,0.607003801737221,295.918144798901,-50.9206102027328,398.312046249086,35.8269687725493
154.167082972685,5.34874896609389,710.569207104574,58.5180113359438,559.180603046393,2.69816709081794,313.630257697274,-4.82842727766688,447.568016825499,44.3758001855017,702.343300892173,80.6493607517809,1147.58253191973,107.26930818349,207.317951323744,9.41636448583515,541.956604973298,121.170196117451,397.660221196016,3.15892857363998,1328.39144311842,77.6535398672758,86.1278908034234,5.69494395294338,44.6906356217657,-2.58387326943804,279.082478844722,-43.6802211683517,398.723837560175,34.9259446242928
156.380607124982,5.08111058499983,729.668561942083,51.7885391909842,566.979898168798,2.94641694728527,319.837609675316,-6.05944487348429,457.906722688891,43.0669498001783,709.749683454579,84.3095169992326,1159.03396952248,113.091736845154,213.72422283672,8.39372404367221,556.97938163342,115.845313993196,403.191870924635,3.25613997291486,1382.30142884748,72.2335696574479,87.5709822769865,6.60088436942656,42.4207430540942,2.21574053229083,281.262938964196,-42.9895030679202,411.768353005181,32.8532381000842
159.505027854262,4.91804333606417,737.177020723005,48.5271510976952,578.596633993245,-1.85534253453035,325.549661339303,-6.74222200926168,469.352629397288,50.1909670489735,728.79000445653,80.6483755360921,1189.71363781521,113.896191539396,221.963083801019,8.59094948706262,555.667575269258,122.649966349743,408.772522721324,2.16798131641514,1406.42174101365,64.980430101124,94.0316920572096,2.77228830498179,43.5390985742402,0.109305090178261,281.773453412477,-40.6197647139503,404.983532541403,34.8788103271397
154.572230606331,5.31944310040979,713.386688937949,48.8927843904964,563.787399294586,-4.82828831530974,315.351059716332,-5.04883550678725,450.02340692939,42.2869833028613,703.539103236024,81.9685166667655,1142.84613405434,112.2039651455,208.051438407298,8.7371053244434,550.866877259177,117.829563619654,398.691970070668,3.33028600960503,1341.08063005244,71.8958525046724,88.3237318365563,5.29206255117792,45.8360252552201,-2.19212870231953,287.481412749861,-47.8915450630864,403.930105777955,33.1931569564359
156.414008304465,4.96503789855429,745.351823966362,37.5844584499242,568.391194845001,-3.01403031088826,318.530787099977,-5.69644441925364,455.675835348794,47.3745239159458,708.27006896248,82.9984944588185,1145.4592442081,115.201245485806,211.644796321413,8.40882050458338,541.881226514344,131.570574651434,405.321404331977,1.28317580465898,1375.43789702443,67.476555873641,85.2671482152236,3.8535546982869,35.6721710667616,3.77701931539813,299.355191667918,-51.5476305874202,412.223631588767,32.2487949211755
159.660186699375,4.61638036953186,750.164705324414,43.1792900358478,566.219146348541,8.5206692474877,325.057018653119,-6.48657778049057,476.348168290729,37.4305888968768,726.875750881253,81.1858201018191,1198.90459660125,104.724800945732,220.856491963203,7.38801791252145,546.091253591309,131.303724021813,410.223382186667,2.02839356186441,1405.41259081501,69.7543896864667,95.8402369678949,0.31791460321861,41.6786273664512,1.98590788987145,284.732462865747,-42.3642546908045,417.707230257238,34.7208056572178
155.873411005788,4.92265801946657,724.144616677851,54.008324241594,563.36597900505,1.02556096725917,316.040053203913,-5.30309812449468,456.531917273865,43.8387364022697,703.49330790928,80.675860445385,1159.92084180231,106.118159124368,208.44106486445,8.07320371719847,541.242288312401,123.073674306637,398.707128673876,1.9955581790469,1327.41883033314,83.4871526630442,86.2884689601837,6.2406743617854,39.6523058746201,-0.691765123353361,286.543991419368,-47.5333326593706,402.922777054123,35.1640825352168
155.598442535458,4.8845932997685,708.973097414592,58.6107205325782,563.574757866737,4.18316914282312,316.503740730261,-5.82183748948958,456.390488324605,43.8595424739165,704.111953845182,82.8126989863513,1148.67503214937,116.870756329431,209.616347011663,9.31894072924663,538.112285055349,125.004875584429,401.865515775221,1.87195493874033,1342.82485962491,79.3935469404867,79.2510989750408,10.9727890940858,44.1687260202303,-2.95144271960818,283.075386442312,-46.2157686689416,402.39430423328,37.4096548009575
158.460773326864,4.67437828642473,742.054026208299,48.3451180908804,567.04827283135,5.02503487329531,322.648698015221,-6.28839056954753,476.007947334816,44.5121601202242,720.95672577242,79.3603219054526,1186.18857743892,104.624614045897,217.23809580809,8.26207783273782,550.43779096109,120.188617901336,407.959580423576,2.6718614178501,1385.97391281333,75.7547431475423,91.6745832917882,4.22590302831072,50.6150364618989,-1.65751022272596,285.991578326393,-43.0585973663164,415.239544904008,34.4196436284559
162.33448710854,4.34101410110959,763.528772628387,50.7413556193595,579.802531694798,3.88583482023824,329.584858813476,-7.20376904762268,487.473111806959,40.8982932227771,739.884104157875,79.4331588072572,1205.54747560521,114.201165825589,226.899554467243,6.16579891696651,573.363015429568,122.164730304724,413.346744362848,2.00838133060239,1416.41565478838,70.265973380974,94.2766036250562,3.13340214603897,41.5521756983351,3.29076262546793,301.723080011146,-54.0489845938249,411.768870149773,32.8457763039481
155.918948089466,4.58356780759153,722.376575570008,52.1522046047041,567.981081917692,5.19193805588431,317.10603693056,-5.70428039039028,461.412304212615,39.0503430272359,705.240090647605,81.036038025757,1161.33182114937,111.355657021412,209.848548474118,9.59682628122007,542.815346634159,129.132952198035,399.960905829205,3.55487431614538,1362.7304571327,70.7926412809221,91.5620862773133,5.80545451279622,47.1788378111013,-5.18713054434796,285.988553963279,-45.7133981459977,405.079017721981,35.324739995715
157.526087069435,4.47450834585796,749.850739744841,39.8142795705566,568.14924060176,-1.39892603176207,319.973563248575,-6.1128513463415,461.087002993857,39.3563237121235,713.582709123279,81.721755414606,1175.84705805916,109.222349691886,213.44147847239,8.73462522731171,557.187415750189,118.093949071998,404.78078941424,2.99461691569692,1370.38727246904,83.5399302487326,89.2676676100978,7.21552171308915,41.3153961685926,0.908045343941013,295.797413011684,-52.3452041347857,410.467758731852,35.8020714894105
160.588365009804,4.38259810210644,756.135702378084,51.7047383574999,582.593049480313,3.73518064190138,326.654432190884,-7.17110812126993,485.516925347081,35.2785066412145,729.687380521064,80.9404086037055,1207.89452743262,110.056957587911,220.661097939747,8.47165970110054,573.085030105182,122.152694979997,411.44525544362,3.43628160077956,1427.58470198657,63.7640964743564,97.2870772108468,2.52907650221351,49.4521303798729,-3.20047198281317,301.92451094542,-51.6326306522187,420.998530163055,34.478966762418
156.447500999021,4.34893848290218,734.595747972352,47.6407535565664,570.653870428541,-1.79075916882312,317.350082519484,-6.06728063081539,462.236082524293,40.7229905681594,704.823370161941,82.5069573522613,1165.53231975812,107.128058229234,209.014967383236,9.08537695655633,550.335300619278,122.651222456986,403.02489738924,1.36800150845741,1338.88037998047,82.0455910377301,85.9852476553954,5.79006476478767,51.7375802087839,-4.81519777265014,290.965371548886,-50.5173778580094,410.862060165954,34.4539519165034
157.425985352372,4.61034324072016,747.00645374885,49.9174618604074,573.346483324496,1.07744338001065,319.650966412776,-6.33846744953952,463.610921413896,44.389380112232,712.888447331637,81.8614606242112,1184.27853629785,110.462218621102,213.399725969836,8.91024284849306,545.909791070929,131.228259022949,403.645225885947,2.21689232918486,1353.01364106631,90.667993574717,89.2279500910566,7.87901959548469,38.4548129661693,2.99674313745038,295.610554256482,-46.9476149500267,416.261086656336,32.7532801255376
160.486211642188,4.21819851666611,749.170805836805,59.1711237794359,579.977281759549,1.53007790547972,326.318325170168,-7.4935193140403,472.469885527817,47.9874434613389,729.601451411244,82.0481078977429,1204.84789077958,107.994896019748,223.84822932352,7.15723419595648,568.143749662958,118.372217556097,413.547244189828,0.752049925105143,1403.62191816418,78.8390270592065,99.0958903177985,4.38544368679523,49.4461501800106,-0.324571348890382,300.733702522849,-53.3698954291637,422.957080886613,35.4894059579861
161.742003085596,3.7277402792109,759.697145200955,45.3408070592085,592.494027465961,-3.16494362007775,323.185331843366,-7.06655980328477,476.14686169647,41.5601237853731,723.146750109047,78.7143468945258,1189.99675597222,113.711578625083,213.445862322095,9.51458518286738,565.958331145535,113.703202153673,402.990570789629,2.82096614937806,1351.72852244387,75.7100680394943,86.4354117348007,6.99436644525722,36.6881743567977,6.50274256575474,296.330386618611,-54.2497766598041,410.511230185725,35.0610362194535
157.58909572941,4.15372920309327,742.290805860396,48.7476870125723,573.19145499237,4.57834744255474,319.251159219772,-6.3797475165316,461.122625981565,45.5217083816792,715.364895972233,80.2530968673323,1179.58478913803,112.503141454469,212.720064851849,8.3065294852222,550.479610848455,123.6079412952,402.212154123101,3.35761736601324,1357.44445914733,80.3304641083745,93.5216900062441,4.91782281589539,44.1784935523632,-2.32735972138178,297.007076011614,-53.5927948214829,411.959861821798,33.506541924186
159.175656855964,4.12869520425251,751.108790163405,52.9003265221403,575.981138155737,5.51641966815413,324.023102166298,-7.22336795529473,474.675185903984,45.4214179868312,727.384440994908,81.2681373527689,1195.82810299103,113.013284342206,221.031417135108,7.14691129670836,571.152005797791,112.788358616929,410.989273631547,1.58080534895408,1405.07635272763,71.4466865349629,92.8272659147751,3.73860371047156,45.9110396411579,0.949056533112116,299.729099554827,-52.8092710515465,420.369481848992,34.8261254515986
163.121563576407,3.39209853679526,769.706057676559,45.4293835964804,592.130069705458,-4.73713362198147,330.412146231949,-8.18685566145543,500.972816268725,35.0107952596232,746.393790189452,80.3827391078375,1228.51380655201,106.891357594314,227.860947450388,7.5392884451738,593.305147792553,106.700556721566,419.2910066119,-0.692296814278098,1448.30669665694,64.5325747188233,95.5218403854565,4.91754285458838,50.3398462798968,0.0677754775946259,304.421957819763,-53.650065160632,421.292827746204,36.0013963340632
155.950123011838,4.30911252844933,743.472250931327,39.9906874114449,573.589326744844,1.73230328957943,317.704119174353,-6.51413174895606,458.407455596583,45.8202141423182,709.976953787942,83.0661743722517,1188.49656567807,104.022369526661,213.176744350241,7.61740650229808,541.26261494126,129.344245257783,403.107654575173,2.25294646248505,1345.16335700399,86.1836939098921,84.4487363640631,5.76543775177948,46.6225790920581,-0.912302850899768,298.912637414524,-57.8806830047563,410.055254727097,35.9648441824487
157.196188975995,4.04456822201644,755.987224009429,42.2478777988713,576.178561220224,0.0139234923238868,319.703506272124,-6.70664092755326,462.304725698376,43.308641903623,715.784795933654,82.8552387952788,1182.71869702208,115.173846740125,215.800375423711,8.72892119631364,551.618130947636,127.629448915153,407.573185684646,2.12438840702607,1373.94192892027,75.9251642858747,90.4500866524303,8.24913823367051,45.5102381898323,0.294487609857732,300.02838568034,-54.686346821544,415.797657520284,34.2944413661394
160.996064440373,3.46365960574554,746.338272087194,48.4037312050428,585.327247045586,-1.08447844937224,326.957804329928,-7.88101204214772,486.788175401157,42.3650851979872,732.440304980817,83.1624864752265,1209.91177773518,115.324691429462,224.341076345826,7.90097876884278,579.898565314333,117.32302805811,414.624985552187,1.22598953911034,1440.9018415284,58.6897069417581,96.523307645167,6.12423045530388,42.0831591370671,-1.57431006252257,301.726163024383,-55.2796592489638,422.25913957137,36.2808529240085
155.970999801963,4.12929190306995,726.727007836384,52.6157791374172,571.581805755145,-3.40094329462229,316.660953342388,-6.25695047253144,471.541004901819,38.1210621762842,709.726740304089,80.9244262158636,1162.71119579056,114.367998461712,210.886140523358,8.73721056983758,552.821010702133,119.462466473811,401.378034370171,2.98378455007236,1355.79103763383,78.0903040295498,90.7199690149383,4.08939793611894,43.4266610646685,2.56002579246108,298.111631945413,-56.9463970670114,410.00483809519,35.1484413014704
156.15606377557,4.26438730083189,738.389893799439,48.8633135602622,568.410345677362,-1.83698194711651,317.948594255742,-6.63235848684396,474.565589892242,36.3565948593042,712.073614814057,82.7964997997445,1182.76474152629,107.39662400648,213.800868093261,7.87193642738097,548.779628921322,120.937513101457,403.201268501441,2.84319552953631,1369.09813134155,79.2326368699919,98.6316141596334,-1.7040659422162,47.7733789269896,-1.42998941338271,296.996617061183,-53.7898534476019,412.133313061851,33.9654917449753
158.981260160471,3.96178532232477,751.366063618674,50.2930233694094,578.137609000992,3.59900529580261,324.160116214778,-7.52687938433894,482.112684744252,39.6176166639075,728.679219325556,81.1079763030955,1198.63839189511,114.996727708168,222.596689130462,6.61923436365192,555.990027127833,132.482885020756,412.289665979131,1.37260897643541,1400.43432647469,80.7795649713365,96.6579115209561,3.57240376402283,38.3808997722841,3.87823378285275,297.040279321529,-51.0654666117623,420.025714477951,33.5034733263362
157.202218040311,3.85005397215746,743.539689302285,48.8019859738612,575.655480655985,-0.47458607491536,317.170397116113,-6.45458991381409,445.84400889343,46.5934391622651,712.34708668321,79.7770206770316,1160.65801592901,121.497731800158,212.001685669592,7.91858053190688,551.526126571977,120.309118460589,403.189751982699,1.15701511590557,1354.16022928835,72.859020713233,83.1464212465342,9.67719711402996,52.4833142244778,-5.80106055538352,291.083170885967,-49.1152066491154,406.514569275746,35.084045617914
156.016668615798,3.92739409264692,728.963749184506,53.7675315209892,573.224113599511,4.19430989474502,316.919685734868,-6.52819822581963,474.030530142936,37.9813428547565,713.066048717327,81.9617140175526,1171.1734560843,112.572871976338,211.334268696865,8.89469365922264,557.111934378101,115.427535717708,404.548230537123,2.286096974768,1368.53625504657,70.6848651698924,88.1221469389361,5.22062159158068,47.6174245528502,-2.01607455852342,283.460898953932,-46.9483574078244,409.609646079685,33.5549631298935
158.476115779085,3.64947843020503,750.063703111468,51.3617706813086,574.323419432949,8.10988289658534,322.464648508302,-7.34619642870168,479.876760482728,46.4334565428693,721.76153760735,82.7056222046646,1186.98200439673,114.613206630806,218.245875808392,8.27611414351745,555.986834289234,125.188541126625,412.097271328987,0.986516483244187,1399.73313449598,73.3983823729802,87.6705474829118,6.863386006179,48.2492541337036,-2.18272525387374,295.650116942941,-56.8798990380905,417.809482147779,34.3484660983551
161.442607728947,3.33089093065035,774.479937112293,46.8920042289776,581.990604872346,-2.77698828040604,324.229985316812,-7.64620294438047,484.406453394416,39.4388940149907,728.179086421643,80.3384388245214,1206.83809466652,109.172889426921,221.490854609257,7.64901610023992,562.943999163313,114.899582191401,408.037393761801,-0.046036589051307,1360.2875090257,80.8531113810963,83.6068347552163,8.11495511222968,44.0166977925745,2.19319409868571,300.25969154252,-54.7543098593577,405.302973763031,33.9299480007843
154.854733553698,4.16390966351373,738.226293531919,43.0596651929056,563.587061287135,3.90330011472228,315.614470014673,-6.24813227898281,464.494722289825,45.2445936031046,704.912080769982,83.9864224841224,1162.0996808022,116.199200560888,212.589364571895,7.54587041901224,553.788786290184,115.130604152558,400.467917851041,3.30307295259681,1358.05333672537,71.2650574413472,90.4730254862589,2.68667722048059,45.5307353826957,-1.81666349137278,290.18153289224,-57.0580410090422,406.0115646863,33.7593551395858
155.898054579692,4.22431467954507,717.877896856948,58.3244130459895,565.851244312335,2.69520062580811,318.774528914064,-6.9531716973967,461.544336164273,44.1188257581645,712.001702851898,82.9263870613391,1169.84614856569,121.791289514707,214.557562367295,7.9774658109643,558.567926660652,120.907749239467,405.335416014951,2.91315427086909,1377.05323068846,75.3758817284465,90.154752790865,10.2158928701196,47.3884265494667,-1.35216200490932,290.066457644328,-51.4643061071027,413.544689987571,32.5288459061224
159.409119157912,3.55438651989618,765.721963749763,42.7285646092879,566.587727190929,8.52493324150143,324.849445252968,-7.71128725918886,482.036145502723,36.6766284017793,727.385815152713,82.5778591005937,1194.98005601324,109.653866680424,222.719844508563,7.02350424166008,572.672808048501,124.230974335844,412.541539406312,2.95600550175048,1430.87004116858,58.646541853367,93.0293615418082,5.43848585592339,49.7504648455286,-2.62938055816119,302.055321508594,-61.3927314052886,415.624916072221,33.7119375550312
153.333145280015,4.24680851339743,721.038727389596,49.7292653248915,552.574317310981,7.22667100549725,312.358414272776,-6.04227009243561,462.186625204608,31.7880250570798,699.167303789982,82.026790421558,1140.40389034926,120.103614398234,207.389690174692,8.42877999536289,533.820777617705,126.672397395599,398.6996754895,2.95974258818568,1349.60862462074,73.2654725444464,90.7491673086573,6.00799214540718,40.843670402027,3.09720262815212,291.797877060674,-52.0375280059875,399.666604510871,37.1643644066461
154.800110052518,3.89025143706639,709.789904248456,57.9089644293504,553.321143039273,7.01770842753392,315.499522214854,-6.90938818194518,465.124108406453,38.7674866987382,705.25027551149,81.550406137549,1147.62693524874,113.132502068531,210.180502344672,8.28153976485305,543.789603547432,119.276891862413,401.53964936896,3.03982238853811,1359.65053225258,68.0945100587619,87.9454723735003,3.55931078191542,44.2239723549887,-3.27992331637296,290.483724643607,-51.3582758551989,403.745764485582,35.1479321619169
157.362251800659,3.74492607771662,733.934444452536,51.5076409360947,573.486009324173,2.28616090850652,321.17771631738,-7.65171827074994,469.929054392274,44.3382354683727,721.240557004946,80.4332371846409,1166.90244733334,119.048605114864,216.3087372718,8.66740112671154,558.856675560515,124.476265675273,409.919867255613,0.35789948086968,1391.96478157823,74.8624910361345,90.384329848902,4.21939851062261,55.988698854276,-11.0539610853574,295.516197618454,-56.106774653998,410.017971915351,37.2444446995278
154.263355990915,4.00931718223152,703.198039826537,58.0174298004871,562.25012773333,3.52121604692529,312.82943847458,-6.11741823156601,441.26635309663,49.968659146128,694.553484540634,84.841490068715,1121.46425426854,123.129340489697,205.191857746178,10.0523818357638,536.930616947597,124.62674176395,397.000106174633,3.47187528932302,1321.78736677013,84.8428569921647,82.7804339540287,6.52682502171239,43.9075670766488,-0.300805215447098,291.275132083628,-50.028205478875,399.482211778053,34.3950060005065
154.142981968491,4.15028459304693,696.368869090525,67.9156909617597,558.138010699679,0.582531989223455,313.525736985853,-6.25661714977559,459.806637649659,37.8880255925885,697.665662560477,84.2074394174673,1127.32872879714,123.63229267126,206.553167330739,9.44506011395086,541.600588731901,124.722192444613,397.837205696478,3.69043351467545,1344.57993652068,77.8023544747163,85.1215163802571,5.86617882852297,40.9234683678005,0.77666624708734,286.804248637989,-50.343872282505,400.971352752708,35.3458022793964
156.66516851547,3.89653456150982,742.581217483997,44.1626724072626,567.267915879017,2.42053962791407,319.866411972781,-7.12739195454708,471.019348801865,37.2153012658733,713.653521851558,83.004348453081,1160.17797068783,114.365451824544,213.374585481111,9.51229152593127,551.671713271231,121.865732737143,405.435093428143,2.652398397845,1384.78023903498,68.1041929170357,87.888347635282,6.33795300040003,38.8011536437518,0.0680099916820288,301.240487972954,-57.6469073988581,407.840002846543,36.3974425912098
159.437804540726,3.51332991608248,747.728367935305,46.2769270248749,566.289558846113,8.98273809405489,320.142162324259,-7.24962155878198,463.542513854813,41.7300899020511,711.37357467681,79.8898447640422,1160.76597224233,121.318021659491,209.806066118807,9.94809019188939,538.758700274671,125.135960156757,397.065811252128,4.36046688528,1314.44334902229,95.8924850008025,85.8546935282307,5.38808053069281,41.362899582316,0.824836800142234,297.538593430805,-55.36974112168,395.799464509346,35.9712580844273
154.637393204727,4.05171921099419,716.235164180305,55.0012874764597,553.254637443401,7.45503194411209,314.726204552625,-6.54037786925124,454.332637380625,43.0280074650925,697.463480359781,83.4449359256441,1152.35839971498,115.062773720061,206.694767127714,9.65326609599947,537.08604128207,126.047587417544,399.049813187327,2.04568222211791,1344.61159217985,70.0747098593671,83.7227598125738,2.72566474874587,41.8576143139685,-0.0430266508208149,292.695423785341,-54.2353785150798,400.478065447619,34.3253502053699
156.646774499183,3.83353786571594,732.181465570486,44.3351406380661,566.422298050449,-2.16178330686125,319.10220904376,-6.9588354047749,470.782757375082,38.775061673453,708.091829653907,84.0161467920969,1172.58807769764,103.748113743962,213.57977917451,7.93399696190492,547.593330693234,126.335900697277,404.51712013407,2.46945617851142,1366.94112161681,79.6921397352338,92.4074250236191,4.92940704819126,48.0217928025709,-1.74973634299868,288.757886164642,-42.3950030812747,407.879671979222,34.5215956830636
159.869618516995,3.36134606242015,744.386084644872,52.9693445845226,570.508112331859,7.18020888528285,325.399662293431,-7.63378747349556,482.05669046959,41.0422267853813,726.380986688734,81.5387261575429,1182.07299121792,116.33443124924,220.335138981529,8.29452977864261,560.872902743948,123.454374862,410.840123140804,2.01710276508983,1416.47926938994,69.0465267378874,85.5085873254928,9.20017637560545,43.0165255312185,1.68207551673571,297.131929512704,-48.5066270249868,417.618557842515,34.6323864840806
154.974138806395,3.52498718929612,711.331814148285,56.9196378622168,560.888928312435,2.24785870219071,314.179956563033,-6.42867519202542,451.954510671991,43.773957381138,694.893299910637,83.6610408917067,1127.17959412837,128.127630668668,203.350604413195,11.137823955519,538.050519489192,124.791230878117,396.678783160026,2.80042048011247,1334.74775288277,81.5135556004348,86.3038774680994,4.68318232849988,40.9255685218904,1.32497536454484,297.42908900518,-58.8239835683469,398.241278770768,35.7135491123098
155.976869344992,3.57028411344647,706.110943715509,64.999822556417,558.888178220275,4.51443606730629,315.781587161758,-6.6228860485019,464.748235425109,40.4465326593757,703.005720179213,82.6471237403042,1156.30340365618,107.913537044996,208.1370982878,9.02440081516147,530.690533149578,130.69556457375,398.775368529961,3.60675254634739,1320.39382479791,97.5709120560361,90.6383852613264,4.58974274262949,36.9254392060801,0.241627001638401,267.626152083162,-33.4670671927648,405.220606111347,34.1643304840025
158.63208558756,3.51060902988308,758.086198001791,39.8565149912391,582.644493745287,-5.41268588002855,322.825250676441,-7.51075246398718,478.050147030354,42.4457834027092,714.926780424649,83.397541449305,1175.44575100355,111.242352085858,216.603598378666,8.08709187632632,550.023206375147,123.730511491578,407.916043700529,1.41139590977528,1379.35786807209,80.6937449116338,88.7840433634998,4.62475790324243,42.2965816482899,-0.287187084354152,288.454722704914,-46.4364783239771,415.532685298507,33.4939561260447
160.577287920476,3.10029418919528,743.910290949364,55.3896616116457,580.709089230157,4.34410627496998,321.203891817723,-7.62884642866701,470.08200148598,40.8569237018639,710.636611725791,82.073221062757,1153.88392942311,125.038155905281,211.220787059803,9.45792564187198,546.389580143193,123.981775487315,399.699257401471,2.23623117677013,1331.26376012011,76.6085158003908,86.6190535164758,5.14262216341847,39.7774216689241,3.53480342282915,295.003896095716,-49.6052222637293,397.443619386818,37.351055291308
156.499591121067,3.38229478864846,727.529736302426,58.7403828050452,557.849339642259,11.2799287281615,316.467333692295,-7.10578690998076,456.919073142528,46.4927851224536,699.271717726942,84.9052259123104,1150.41578950267,114.409596243659,210.135941895002,8.14088362463379,539.304341860587,120.315278838116,398.499807448436,2.04314440633749,1341.04916400239,69.972658116351,87.9737760533625,5.56566806994797,49.488935315309,-4.03426631475961,305.276372965671,-60.3236882886082,400.719354208456,35.3822024669139
157.435366269937,3.54293194976791,757.061641269249,36.5751805118358,579.463542787557,-0.996204607886259,320.841439962718,-7.50360430510559,465.846464486992,41.8669956890282,712.758226550585,82.4406254824301,1163.76379115011,116.27608629722,213.931115579438,8.65988829872856,542.034276868133,131.427690795638,405.83972980702,2.32708595495308,1369.50317158537,79.4707822757267,88.9154786313835,3.91676408722248,48.9531438166427,-0.113915161310933,302.623253120397,-54.9380630320988,412.313074126424,34.3013889373092
161.11019542591,2.98067956837437,761.95021769321,51.1913856606689,584.848279001296,-3.21881346648258,326.824530936745,-8.35365301967206,487.414331323069,39.5343550508002,726.096134513623,83.3850821482951,1190.8716692174,114.27407542126,221.181598133576,7.76826855968196,555.513252832681,126.995725600108,408.708627406508,2.0589277277014,1384.20665952568,85.6379248323924,90.9710886872731,6.74243438936727,44.1923254968605,0.513976255061454,287.06082861586,-46.2580159795308,409.304371555452,33.6459489407329
156.003686600734,3.44213683377636,726.058133753191,62.7996845749076,575.603507314134,-3.93273896269491,317.066671427571,-7.15857398833912,468.419096909474,39.3833775505709,704.196275266016,82.8314454515425,1141.02420473339,118.025338249469,208.747164613241,8.68367106414761,541.813570012612,124.024189151005,399.955878826249,3.30828399921552,1339.9965073504,78.8103037896789,86.8529634756697,6.89823139858866,42.7142054635269,-2.04129105397006,299.745724799228,-59.0474475023095,404.612359935183,37.3943318542176
157.065064118886,3.50753542689113,734.542481063378,56.9516475623538,571.942408133557,-0.703655248979543,320.128462267241,-7.74316330559506,460.453914417376,44.5190580226499,710.213768081859,82.7397947358178,1170.58928487223,112.963443075862,212.196746571172,9.44309162102965,552.857054163866,120.745446714025,406.134046082129,3.09001036362527,1386.84607533995,71.0649158722462,94.0413449814284,4.35032270747399,38.295770773364,2.96670471514957,287.431715592224,-41.586109463071,409.389957405862,36.1967174632138
160.298590149658,3.11328581252037,762.162351568782,48.8861824224145,580.751996854132,0.37584867957957,326.259260544599,-8.52310712488305,479.716213328577,46.1713591468566,725.22586083043,83.180103192219,1196.48475519146,117.00753860421,220.240786193188,7.59305267960312,564.560543443148,115.549469201342,414.348504839653,0.718639489743334,1392.7258994706,86.5166441065124,96.0500091339664,3.07120240922771,46.9992603593778,-1.41258733517898,313.195132277696,-62.7412058391885,420.335827413395,35.4475455329416
155.347855826521,3.4565272426308,728.062435323866,56.5130842402919,567.693705660486,-0.107605336379009,315.743064569802,-7.09503014207201,458.190313584063,43.5999738534353,700.086818373709,83.0094115808432,1140.13508129985,121.35007623348,207.989041803259,8.70800718560623,545.18736786805,120.713559763539,398.938600948351,2.96975306663145,1327.01780352967,81.3057460555676,84.8409998833085,5.19447083083379,35.8515133427735,4.87277177415083,287.512734857721,-47.1482546053142,403.9277729077,36.2106604682613
155.663101725441,3.27789649107444,744.631650404641,44.9267707385179,573.066881051194,-0.213798576254758,316.076218654505,-7.06768933767806,458.865637368116,40.9109143966752,704.344821152955,84.0934763886219,1148.14756601833,125.771679559839,210.085943702498,8.14532413368744,546.840097614948,126.22335883351,400.608828300276,3.17437914647885,1338.7623648442,86.7416637634662,83.4563319559577,9.61109624972039,43.5499300480722,4.89132399100932,296.232324895332,-48.074788437616,407.834331917377,35.0218893107958
157.984973250916,3.19436335504618,750.926127281207,45.8772953071588,559.522885935878,9.5711444797212,322.44496419389,-7.92592979571334,473.269949624038,41.6019641206914,718.98955723317,83.9763903030127,1178.42057328809,116.154867351527,215.881593536832,9.62537221844605,563.059362327329,122.652332535079,408.578164576333,2.94391245046348,1394.75623494387,75.6802882130961,95.5061325605755,3.81251537026411,43.6205913767221,-0.693852185439431,303.940579766944,-55.0157144132236,414.918998538441,35.209308306899
160.725382156988,2.58314693590362,764.121069410471,53.0425877524005,575.513860229108,7.42340943960581,321.073017146795,-8.02372955727398,474.664535928217,38.9063388520912,711.881393173908,83.104216568933,1183.54846697028,116.224398820486,212.692646264035,9.34315371167004,546.358186283752,126.581957887964,399.212698882761,3.25864439638241,1342.03324612941,77.873264860751,87.5729255292462,5.6602108366829,49.495961171569,-2.16955689134456,295.867986073261,-52.8851656661688,403.493267385418,35.2931550957377
154.857749030574,3.62722975298152,721.42309369489,48.7523961007641,571.243059060262,-0.897691973153502,315.121806178851,-6.97341608383716,461.368282365389,44.5233180560551,702.261777205949,83.1471948929165,1144.01240445957,120.441714210106,209.351557434619,8.18189989043967,553.218544214883,118.236592610425,401.136571337172,2.27422424562595,1338.18882242975,81.3479756627942,87.9098688317066,5.41525198370486,40.5073007513619,-1.54412073550466,286.803120917068,-43.4158673120819,401.93232124501,35.6115575709682
155.822476694049,3.61828682174519,748.007162533121,45.0733966498077,565.791231527436,6.56143857116461,319.429512260036,-8.03851634482671,469.001445603953,42.8407938024814,712.415474374055,82.5441099043068,1159.72790222043,116.294932823379,214.247518860015,9.23879876663534,538.809933979189,133.631611022282,406.443062579636,2.24576677961032,1384.54365496673,76.1699119727162,91.1295101712701,4.89268608166825,44.8477990417797,0.137539226799841,288.425774415349,-48.220429295144,411.136426640691,35.9804695616731
159.288108281994,3.1898565674086,743.148272076047,57.17791468431,574.234159323607,6.84987766481091,324.840960181198,-8.22825674235382,484.937608785876,44.9974464403986,730.663389005865,80.752060721322,1208.12581026213,104.747282165188,221.663872372898,8.44238782078083,561.839891989623,123.422855015537,413.557159015239,0.68194855329013,1410.94235014513,77.507218505605,85.7517060244621,9.91332572908717,42.8728832735547,1.68121631149954,292.696531462702,-51.6445046892645,417.607344094702,34.8936830652849
154.045908591895,3.46325721998509,731.196917974476,42.8302456124971,555.359003710776,13.1880704237409,314.430769493332,-6.97881103771684,462.088299854788,40.0286316749758,702.172169538498,83.597078841905,1147.20111329863,113.444164404196,208.2544297629,9.85271285214279,549.203911591644,121.445355655948,401.32546086503,2.86563566720714,1336.41821452263,86.1943211586746,83.4580738693774,8.65772530519821,42.3870262636045,1.87021993800992,292.427198069199,-46.6422613735433,403.286065380085,37.3184027538062
155.414158703605,3.14492494509332,731.762851920001,45.3246090465704,569.123095240265,1.57789921284313,316.299564630897,-7.08435590308172,471.753209065962,36.4994324844947,707.450820189917,83.6416562171337,1150.71095779686,119.611740334228,211.439132433153,9.3104824243587,545.169207606193,128.077196947316,404.634758560897,3.2432473519245,1370.32803945565,71.5534883292243,84.5237195340974,9.15474765423341,52.5388954770748,-3.98964247572419,294.730425585529,-52.9380891901846,408.783467186806,35.3041533476917
158.63318112726,2.69923573120361,745.280853622917,58.3013255306059,569.081790453098,7.84438417405516,323.14515835661,-8.47346747711412,475.727793319384,41.1457118685749,725.299135922307,82.1718636455514,1197.33174491822,110.429866429874,221.132971182735,7.84114301035709,562.037377486678,123.301977731014,413.679217030461,1.00686062402838,1401.63122586063,79.5103968761434,92.7366064904966,3.15870031628763,44.0700614346443,-0.569090917523758,294.406369232735,-53.9996349450064,417.912238858263,34.9671023649593
