340.1456136995,-21.6048553083174,202.628113619377,5.52914475650082,1010.15689571373,-45.9331187434573,743.194489195601,20.7739556948194,405.331557949809,-0.637063646918737,1266.01642617159,-38.9067687750084,1164.40197213426,-67.3678497846193,732.805700891174,-38.2911508547834,969.264879632438,138.122909592604,171.446081581649,-12.5018658228143,1143.84531106908,40.4132881918129,1055.64586516315,38.4452130094438,380.544731033706,47.8055845585486,3479.79424772607,-556.347290997396,428.665769960257,-16.0169874120175
337.374746124423,-21.1385981076866,202.973105462563,5.72285633828473,1003.62303351878,-46.1467256795315,737.790034706565,21.5670470549833,397.333972952129,0.0579800147435677,1245.11075853073,-37.946360509292,1129.16614716688,-62.7093080716384,702.563220201776,-32.9663334422865,957.909243826004,134.230015381148,168.027498453736,-12.0137321266184,1104.25099710198,43.4488896179967,1050.6318240496,31.8605682705649,370.667849141887,46.8914778751369,3438.48941422237,-543.39558034624,422.926788800252,-14.6063618350837
336.911938504091,-20.9525017410888,202.765160711001,5.262819909412,1007.02684586271,-51.0001446882365,737.570907792354,21.5471261562462,400.008466134638,-1.51186932791726,1248.15440714517,-37.0571073514114,1131.27220378964,-55.8730080129464,711.353281129693,-34.0504495085561,960.09386083369,137.199595510035,168.768368790215,-12.1307288907883,1118.49415056513,43.6607289278794,1062.88580283509,23.1398570872068,372.610231634051,47.0085065225107,3441.61548118402,-547.108301994621,424.050493071479,-15.5205730567474
341.307726214056,-21.6713217842427,205.249319578379,5.95003183413118,999.747034801609,-45.9040569267093,745.39530144732,21.5014825330488,405.350896400409,-0.0696214636926025,1272.65001073884,-38.4309463718222,1159.49764194988,-65.6749597384882,735.500112220532,-37.8642314752899,979.750115161451,133.331165136325,172.174665298818,-12.6249037430095,1150.3108580541,39.75611575788,1059.55538319351,38.8160150948381,382.066242222993,48.2536684728081,3470.77903243665,-547.555441993345,429.978664937508,-15.5798297812025
335.858557287055,-20.7563975808542,204.227067401046,4.54629100476334,993.265223454465,-39.4361131421192,738.000053105032,21.6293219656788,394.806673072613,2.39327949410907,1241.87156180055,-35.9048775055471,1128.20136861008,-60.649835901741,705.550045688358,-33.2688847050427,954.177779758009,138.393520419343,168.940306866483,-12.2539255503202,1112.4322726347,43.8105603428077,1049.24973295777,30.4510405790407,371.014836221865,47.4042788407574,3438.60474711278,-543.550447027287,420.58608462858,-15.3086375851737
337.920246156312,-21.0110777309361,202.328696364794,6.72523140519167,1004.37570403927,-44.1824890284093,740.418925834844,21.1962529631027,396.898469400413,1.34794318091787,1248.20470945312,-34.2819822448682,1134.75937456223,-59.2728545820724,713.669522965485,-32.4226842219308,961.17248836693,138.626945340381,170.211829475482,-12.4813981808126,1127.88915320681,42.6290636233989,1058.98115207787,32.1203940271464,373.754299931301,47.6710625197564,3448.92737055907,-550.673059611074,425.68695936734,-16.952703946551
343.126539112486,-21.9581038608622,205.730826929796,5.67795380134832,995.356667049527,-35.9338138557399,749.38720685506,20.6326820081539,408.709327677473,-1.90962957627024,1274.56947469827,-38.6254770813087,1156.8239995883,-65.766205292813,735.954320072208,-36.3447019373568,975.52854516235,136.725424754243,171.351193240276,-12.6067411774013,1145.89030031679,37.9185324023343,1052.70983817989,38.4330338593705,376.91802288593,48.9031118471048,3449.21736131824,-546.40390830056,423.821668274261,-16.0932886449815
335.525947677399,-20.4266706406367,201.391806146104,6.17789478480001,977.626473122615,-34.987384868448,737.893029321449,21.8859826257401,393.792209097023,2.58579640863938,1240.4512321494,-36.2573989251981,1128.1648665313,-63.4884163390792,706.464510427501,-33.4432491941357,950.414515057079,140.51524077425,168.597613691166,-11.9966209993652,1111.57982079444,45.0426198762592,1039.32665455575,40.1051894202009,368.681569151799,48.9771911086856,3424.40791220293,-539.689647194481,419.920296870144,-15.361504937288
338.189335961974,-21.0964712718544,203.235571490236,5.77023679411956,998.814320173045,-44.3673786834512,742.328935764585,20.5974137238744,399.358129100225,0.290500953729168,1252.01490235483,-36.1480900142163,1141.55541364923,-69.3018767157419,717.654289077782,-34.8052513895928,960.950765935341,136.89183683497,170.459085990868,-12.4675245977055,1132.30097046147,39.4625042004439,1052.92535399797,31.2297783676541,372.980290635924,47.5547111309403,3440.36093291814,-543.709085717429,422.922845762697,-15.9370665617809
342.251451334306,-21.7024513064926,204.974807656435,6.53525981328863,993.082368147426,-38.572878906619,741.948021245518,21.8239796756254,395.878488230374,0.378853596324743,1238.77450354893,-34.2428282596491,1129.36986882268,-69.5098403964309,699.704477305538,-32.1575645322219,946.88287069045,137.875603564061,167.920793794416,-12.2051407235771,1094.9633550852,45.0385686374391,1041.77395868875,36.0385845838854,363.581236811936,48.5648906454092,3414.89355559988,-544.448386125503,414.698544815132,-14.2819283595365
334.919666195754,-20.4586264128802,201.751978283295,5.65841458606983,985.022853356215,-41.9336402547212,736.063431781147,21.554334822081,392.297497304252,0.458595164666738,1231.0296614683,-33.9522148604763,1105.01067565328,-54.6544172197049,695.884857832788,-31.8356702434814,941.410539565552,139.644072353575,167.584908395509,-11.878183163923,1101.31288476078,42.1063252012305,1034.5082749793,40.3931021282646,361.546761951834,47.1983720732611,3396.5762799439,-535.402451702249,414.386760071204,-14.7791767224889
337.514002308409,-21.0374165469885,200.491560776964,6.33072433009863,989.009792428003,-42.5684875135384,740.861774069533,21.0599126242682,397.053228939098,0.275005060572451,1248.07390184014,-36.064691335108,1125.47031784149,-61.667174796174,711.880903904663,-35.0736425371396,949.653553530436,142.184793951362,169.987834739957,-12.2264497176235,1127.8202434666,42.5454368615373,1043.03672454732,34.2669377735752,369.304064940555,48.4212368319787,3420.65983376244,-540.686200986849,419.873518486069,-15.7106810395997
332.74231466745,-20.1480158166957,198.245451182433,6.76360425423354,983.022323729418,-42.1172727918406,733.678688432264,21.9103810390077,388.56353511454,1.58056532479804,1216.39649006279,-33.2881649473963,1091.7328121265,-58.9338091085271,679.454142695503,-29.4606820910338,930.949640163992,141.196720965937,166.317337097217,-12.0047326465909,1079.5014201095,44.4241425527095,1028.61289862362,31.85533649364,354.87899000104,48.2811113792913,3377.35679749749,-532.993457641837,410.993369003803,-14.5382505096973
332.832702688219,-20.2917341500121,195.397919253167,7.62338297364809,963.435995648217,-29.6445474597787,732.416860490668,22.6868015576583,387.15394560418,2.58938206342186,1217.42784812748,-31.3359427416307,1086.23294547172,-52.1611878073652,685.501233223614,-30.0628537151024,933.673794362895,140.784257894882,167.08315732418,-11.9240381927603,1092.1960200962,45.5836720269992,1030.42516279944,36.0455617445838,356.688600817711,47.9424977346977,3376.80375386593,-530.473905487811,412.11542978332,-15.5788177840758
336.990526694997,-20.6324542087977,201.392000201413,5.73076093582404,994.408140218842,-44.1243060281181,741.030428315585,21.8342526017146,394.735136981631,1.80498467728844,1243.08294959808,-35.067444169997,1112.69981573843,-58.6306842398052,706.299581155287,-31.8611913857495,949.267269803945,140.306782133856,169.980165861376,-12.3901225588067,1127.40277251709,41.032661475589,1044.14949316592,28.191858858452,365.141463517265,48.9573618663231,3405.79785460058,-535.737548691764,417.887053956148,-16.6994791118646
331.865197576329,-20.0383255926295,198.195005480196,6.11891551144416,970.874056542036,-36.2272662148444,733.533200181886,22.1730840559665,382.202200464176,3.45324433987754,1205.22763972093,-26.7429065402696,1059.10469261374,-46.6435262543766,675.416315060921,-28.9371535966318,930.639387589022,138.405034272485,166.219176429997,-11.8304106780027,1073.82468292696,45.6331513276934,1020.65308066598,31.1718186698339,352.604349576713,47.5470929351464,3373.5536603525,-532.950840502039,407.323587132372,-13.7286537057592
332.825979949781,-19.9851056290911,197.716384192823,6.0478618214664,982.909780413009,-38.4327963921902,734.076758506991,22.7605988737152,383.887841732301,4.79177277193219,1220.33492180288,-33.8037630821608,1086.87540605494,-53.2046742577634,685.976984495784,-29.7657365394906,927.727465715964,144.467339863399,167.404713574864,-11.8748053385025,1093.66826893037,45.9753016788755,1020.09732723824,35.109119293736,355.869985220875,47.0306487308675,3379.12562289569,-533.387001954291,409.27647551812,-14.1092561628288
338.754875066504,-21.3642068094769,199.311728247557,6.92679501710593,983.530459813276,-40.9257022684856,743.178962948939,21.6814205903658,392.559451774326,2.08014500848816,1243.80412232535,-35.4405595480612,1096.74689200753,-47.1470300540995,707.675248897585,-33.427487974839,948.072561827761,138.814130762326,170.347559142609,-12.26241995064,1123.24586715429,38.7736524221933,1021.7011251175,46.6783480382239,363.733157811141,48.7701323898653,3408.60784359188,-539.936432763641,411.334219794937,-13.1791171294561
331.357394227153,-19.6640831755037,193.832306871777,7.86262382277008,975.212852538431,-35.0577418111987,733.159095093941,22.4618550932488,381.413476915128,4.54207066664976,1205.56650815925,-27.5887537631907,1078.66974137308,-54.998755234301,676.98442688101,-29.4043073090573,926.924422005384,140.959527081756,166.539178941395,-11.5884239696377,1083.85214033317,43.3825449283115,1022.88751598173,30.3862201627626,351.221948183392,48.2852333892218,3371.64031580213,-527.653685608463,406.086353864532,-14.1217827308692
333.3691202627,-20.2941435983585,197.837036819244,6.58207403655878,988.342627981524,-48.7902415736005,736.767648223753,22.0548305923925,387.598317837011,2.09070610480757,1217.5041794106,-29.8895933003954,1078.55748551692,-51.7408613980705,688.198885984126,-29.7004443749105,935.51791509424,139.537949358171,168.273109614083,-11.976985815978,1097.28228949485,43.685548990771,1013.50857670015,36.2050074161961,355.629298618461,48.471122396751,3396.48985607086,-534.89538226437,409.020286192956,-14.8220602129112
338.593696822387,-21.224101390176,201.480112115297,5.24891311073706,995.23104774033,-37.3789630824043,745.380605817875,20.6911862452623,392.065702354537,3.04171618536079,1232.38604338179,-32.6381475161071,1101.24735024015,-60.3369982773084,698.868329720099,-32.181312087573,937.408784724805,139.930865048677,166.84941934268,-11.7065619454661,1079.05160859611,44.6443027333928,998.963290763235,51.8667399175527,350.843604707411,47.812538637637,3388.67604693527,-533.815332607417,405.728564760272,-13.7946088161621
331.88592011746,-20.1634314870166,197.00510067723,7.04405568614685,982.199839753559,-37.1441559513736,734.786670214665,22.596752245039,382.453895143757,3.11489944564776,1212.35041376343,-32.6591252553715,1061.86549678496,-43.6485866565534,677.838074189582,-28.1420467701224,926.252157959124,142.452145954853,166.586111672732,-11.766812752776,1077.61868658596,44.2171417021821,1002.80413447245,41.3700516890254,351.640389068368,45.4959497970851,3383.74712552303,-530.774470258155,406.366540875294,-13.6602234950825
334.393307406146,-20.7570253227766,196.06443618202,8.13463206778586,984.46749412399,-38.537044484235,742.068690711107,20.8276875796294,389.775847147571,1.91551908544006,1229.1934667202,-35.1792094922307,1079.47422574353,-48.6761279919539,696.618240082695,-32.4622557205248,936.591640123229,142.463503302377,168.793216886163,-12.0593502210547,1106.49289664121,42.2404567521739,1011.9297926346,38.5524438142528,358.302722127662,47.9283244736394,3428.21007422432,-543.537090562983,411.150954151108,-13.6451925108597
337.143841509199,-21.0646480620591,199.384963679868,7.00933468594234,993.171226087351,-36.5252371161156,740.418290144091,21.3461624672356,380.120389122871,5.59482995480913,1206.68402811663,-30.8637054288678,1080.49397965219,-52.2353002727114,676.797243472121,-30.1888707404836,923.513288695858,141.276858897547,165.99465850237,-11.6301878528428,1062.42860349203,46.2375274434704,1016.77338225597,35.5484800287536,348.579943910907,48.4751845885955,3401.33197304989,-537.951822852568,405.926953057374,-13.4114436102351
330.820202759811,-19.93452902789,195.975270368625,7.00899503703702,985.902071253473,-37.5811007702909,735.283695417324,22.2623164178159,382.582466811564,2.99552961931273,1211.43956047851,-33.2129592945895,1072.82630412002,-53.587810271441,677.549559276087,-28.2870714600217,925.552140677685,143.309681709999,166.323223856584,-11.8238147733017,1075.27998144096,44.5895794839495,1007.86494748424,36.7605912548788,350.577521393971,48.9303277167614,3403.62442485661,-539.512933529439,408.153997453568,-14.4936385772418
334.328294918781,-20.6930008485079,197.806736792514,7.1987636099813,985.772149038973,-39.8557353551649,741.46457521853,21.2035856361205,391.197831725472,1.23129992218973,1235.06349583414,-33.3931475043275,1090.62129321452,-47.3586737548487,702.458111753593,-32.7385462371823,945.089857800609,139.389053933468,169.334567961768,-12.1185502612119,1113.3979872938,41.6530951997959,1032.77222600324,29.1511244049578,362.339649386536,47.7575270707397,3435.01808707838,-543.95537019756,414.812850402126,-15.9352797870727
334.721828400602,-20.7121653513036,200.820488813012,5.57107179682293,983.691390729615,-39.1912478178813,738.468057043475,21.5136001728889,382.862680603302,1.91679453647855,1212.65989016034,-33.0814513873957,1062.98837727781,-44.8315638696523,671.670223760896,-28.0078752469419,922.938971047515,142.049196586598,166.451669650108,-11.8753619329843,1067.65567731215,47.1004006489791,1011.56939291984,34.4075145946867,355.172243876468,45.9323984138544,3405.41663067077,-536.305449591258,409.268859986966,-15.0490607708869
331.961499738161,-20.42876563072,199.033431046189,6.49419379087196,979.043976078558,-34.0998796124053,735.607879793082,21.7650386339048,383.420244288362,3.83176776966405,1219.43033842377,-33.3587714303497,1078.44055801512,-44.132627315089,684.458289347954,-29.225422847752,931.13838900436,140.860946502553,167.255643245808,-11.9504906097968,1082.89179426683,46.8038496932178,1018.87812027613,41.6891377969991,355.569431363744,48.1985644597777,3403.97309476471,-537.507514582285,410.116720698416,-15.2572291482197
335.932475054566,-21.0988110829654,202.834964402373,6.02036158931738,987.525048161203,-43.373895157822,744.569986760772,20.5714996435021,390.429976221638,2.5011600636465,1243.68172357105,-35.5911600715314,1105.47341928827,-52.4065631723513,710.766836865535,-33.1771492022634,945.97322310599,141.638896158054,170.535688567456,-12.2749476053964,1121.06067004567,42.6602917893774,1030.5278493573,35.35889831386,368.325228190817,47.8340153697865,3438.13705264115,-543.433652848048,414.572159494372,-14.8972214160053
333.835921083473,-20.9530118548135,200.079179758665,5.41942887014821,976.281388578677,-28.5014019103553,738.765368712021,21.8326437154172,382.123734566214,3.38249653882196,1220.47900615084,-34.2208821953293,1084.03015876481,-51.8951975310279,681.233054382937,-29.1128297088549,931.860947054361,138.963544237726,167.209086746835,-11.7910866150467,1079.92566888162,46.1021837647963,1020.39811336292,34.1001464505263,356.989227911212,47.1728034668079,3395.29910400914,-535.6123513957,408.434704773843,-14.192964149815
333.80111492662,-20.99523165216,199.668433885875,6.33743981659379,980.497089633652,-38.2026619486886,739.169593387251,21.1032193534814,386.03029519652,2.7482125632191,1228.22523186086,-32.8011278049457,1100.9649307396,-59.9154610875351,696.204840599652,-33.1369264136158,936.578747930248,138.489214410652,168.022728145375,-11.9953562864891,1099.56639854274,42.183699202421,1005.93840235301,48.3095515506352,362.656033261784,46.2715356932848,3392.89781575865,-533.821423125279,412.465555733032,-15.5396678839989
338.074958420352,-21.7073269197772,200.762460624566,6.65803643493224,986.730243684807,-35.7342706009476,747.309549878437,20.3536153881681,393.200336729507,2.49213339514906,1251.32862541136,-37.0362726480185,1124.21855433142,-65.4289870009684,721.375594891224,-35.706379771017,947.850281782906,140.608968396486,171.401581820941,-12.8511834792686,1135.84158120786,38.737479113171,1031.22436005205,37.0250472048622,370.917973506576,48.8489714943776,3422.11389006221,-541.848668436025,419.130854160991,-16.4626143489664
333.223670298005,-20.98825450457,198.617100375618,6.91429620929006,988.90286911403,-39.9146617943732,740.216142460153,20.2001086066989,382.185434976781,2.72930148588184,1224.62128543113,-33.1662415126202,1085.94246819395,-51.4754043526203,691.075699849329,-32.460982001129,927.579949794203,140.995046159873,167.262439497675,-11.9969612989157,1086.20945104488,44.8945049950229,1004.91663332417,37.2181371848841,360.547639520547,46.3659290862589,3368.70651992329,-527.576287726754,409.997362903478,-13.2946457402553
334.596090015536,-21.3336219678686,199.823095577579,5.04599951338054,971.061921635847,-33.8099948852242,742.095458157599,19.6686488841931,387.949773275057,2.33349934059397,1234.78246969113,-35.7451846898926,1091.95183104756,-52.3891157893053,703.7284065643,-33.8935409397323,934.777253744441,140.878943151898,169.180561208503,-12.4456041383917,1109.00275807339,42.9940739816999,1011.74847576077,42.1833182471417,361.303334104057,49.2511513719265,3375.6787417548,-532.594010058941,413.269930667694,-15.3149494797565
339.249873191937,-21.7966787082785,204.084447570423,6.31181320472376,984.353646500348,-34.5897179543302,749.405586152087,19.8469034370973,397.139299753801,1.40359971599025,1263.35150824131,-39.0502690320264,1133.42845148163,-65.9464121036284,729.320484305048,-36.6564507240218,956.731382375302,137.18444867404,171.804971481875,-12.5717305958294,1142.38852797502,40.5430400004163,1024.51197372646,39.0882512195366,374.346009635124,48.6664327528352,3400.6350072433,-536.119202481935,417.316188800023,-16.1014429546702
333.478447755636,-21.1744710163741,199.720900628251,5.74664694276322,976.221440239037,-37.6716461728283,739.360579582319,20.9295483626299,383.31911328489,2.10224038431491,1226.1649564494,-35.3677335503365,1083.26886150796,-48.8538074080952,695.91943784826,-32.7540305860545,929.45456097128,140.962219961878,167.39455321024,-11.8231861923764,1098.53036524255,44.7277238949986,1006.9405986203,40.5634090071012,359.360306401329,49.4313846247353,3352.58520363966,-530.575682548292,410.739331310768,-15.0966602337309
335.352330652419,-21.3512651907209,199.030342765293,6.76892194613432,978.572386456174,-40.1352783866546,742.546467352043,20.2847163558421,386.202677762841,4.15795672466325,1242.51195826283,-37.3401445531156,1109.1876308954,-58.1049252130271,711.146115129911,-33.1919659066789,939.510909032757,139.208498619707,169.214528386011,-12.2202553596802,1119.62192932897,42.1191701914398,1015.69554817579,33.1070172509264,365.990330828664,47.0386206237537,3361.604233862,-529.590132496816,413.701592439162,-14.8840301546112
340.744395576421,-22.1822394414718,203.240542287086,5.35621202919563,986.961387830426,-41.6086816250458,750.208881960719,19.8752010210503,395.452690381973,0.571091908787837,1261.30742483686,-39.6896507093132,1136.96760562492,-65.95240592668,724.417624500062,-35.1085349447991,945.149883729861,138.814147011543,168.57349192333,-12.1885452474673,1108.3111708614,44.9592021413243,1006.10061702942,44.0758418929324,366.564487354704,46.9927707405377,3339.5394724005,-521.500599424745,409.602361178134,-14.0879725141241
333.30637313669,-20.617780384785,196.810416634633,7.35149980281229,981.780674427368,-40.2213189951253,740.447846383848,20.5577718345317,386.868619891646,2.4616145396928,1231.34977928933,-34.7842406276231,1086.90516582469,-47.0934717793457,704.261273053465,-33.5223463989948,936.37738548545,139.544733620112,167.559472588141,-11.9131913962869,1101.8659784936,43.8620497286705,1014.66137749013,36.5511824885824,363.659887915455,46.4098081448061,3334.49275247233,-523.028755488624,409.728301387678,-13.7492182172801
336.281261632292,-21.2955466767348,199.507648163533,5.63183156457375,979.969025987283,-37.681747068467,745.297345671895,19.8103775489372,388.583032091255,2.84536733797752,1245.10072778211,-36.0440336626591,1126.113506163,-64.7433012553317,721.818218553603,-36.5516099570122,945.960238882574,137.683627402545,169.33456790136,-12.0031571670641,1128.87541322535,42.9445346000418,1029.93321875688,26.8661033389155,369.35145617724,48.0051438114125,3356.94096677359,-529.152785040549,416.014258678522,-15.5612315295438
339.821916112216,-22.2177483907288,202.339709730924,5.57521759803767,996.928849206682,-45.7755301068537,743.23099065007,20.7768292405786,386.560893126024,2.96259339067087,1228.86315637677,-35.0634913341341,1097.79426301715,-54.7924502565882,699.273501737768,-33.2060505110488,928.134568123264,140.656949555084,166.683621421416,-11.8772785510645,1091.06112642128,45.8461330896648,1010.13624698006,38.0672769100295,359.950459747313,47.5116618217536,3326.66368959572,-522.15645933375,412.826444384366,-14.9486750233898
336.126799558899,-21.7060163973463,200.749468933848,5.45422056445442,986.479366403972,-43.2965268924279,742.18365270761,20.370848110504,386.636825118944,2.07018594660822,1231.47250641038,-36.2217194929651,1095.47047286764,-47.0845714844897,704.294056597399,-32.5941589841953,937.829273814419,137.761937511038,167.612875279786,-11.9533118407355,1105.04693347536,42.5710585369824,1018.51023734562,30.0510916886443,362.545845682633,48.9956862264619,3329.16869867178,-519.475841427078,414.908172885394,-16.2236406355086
338.744857110865,-22.0304572840915,201.627761287456,6.30586289124614,996.732478871699,-45.373003239422,748.589897437602,19.7273474704903,396.061847648878,0.324252208860518,1254.27350112429,-38.6372415144826,1113.10186562272,-49.9447856163295,728.547704632814,-37.1835539061359,955.9210945029,135.7699748516,170.719417905691,-12.4465720120641,1143.83490267034,39.4018738272039,1033.93784398012,29.8609758809003,373.640918397166,48.1994649032399,3372.13011160942,-529.917198998095,419.571497728536,-15.9621947824845
334.470524656348,-21.2330520402384,199.749624910644,6.64749145801075,992.38085626055,-41.5627698454364,741.508788260654,19.9551078289279,385.441641798829,3.80783204247467,1221.3976529323,-33.7302736460067,1100.13839685719,-58.0599313447077,700.567973716679,-32.8835709270815,937.774116065085,138.502549672747,167.082544187619,-11.892268511346,1101.15235986181,41.7466309802129,1011.37237356206,34.5802792588366,365.503337614954,45.6614931780923,3345.34115378756,-532.212494993604,413.883662442636,-15.403070707538
336.386010837769,-21.793952452461,200.417230959172,6.29957542128343,993.635322320384,-42.0969641403322,743.017796555928,20.0407134082837,389.520360120489,0.783462106679795,1233.39522900491,-35.6073299667863,1122.78708100567,-61.9462602310427,713.597857209099,-34.4626174088418,946.603741558016,137.997664475766,168.708485187598,-12.1478903582118,1118.35298895205,43.363295490131,1013.03200834087,36.9716947869442,369.333225899509,47.4402925007384,3356.32753876629,-530.931680642388,416.938744820986,-14.925869938863
341.198766761461,-22.5496919764408,203.1738415547,5.58662291311361,1008.30556060867,-50.6478700421956,750.944598797764,19.3461466102849,390.724405964767,3.35944722028159,1256.41126746989,-38.1057625494827,1136.60658543284,-64.8689900185576,729.344924894586,-35.3110059186861,959.197956717314,134.336581809134,168.786198634146,-12.1602607838366,1120.56109626623,40.1533178620252,1018.19467970415,40.1319269748478,370.196771984642,46.9481235633853,3349.79033042971,-524.484565618658,416.056717794246,-15.9479891308283
335.070242477849,-21.4082175422787,200.05100720295,6.01952413611251,991.135976150857,-43.8825415253209,741.671223328394,20.4241200997093,389.227176821458,1.27196543414987,1230.55359417658,-35.7380172885171,1102.5900131449,-51.1462426791762,708.569103783286,-34.3061829253037,949.030164820086,134.519576429708,167.898758757519,-11.9979545104738,1106.91610395666,44.6434296176394,1000.4679882515,43.1540682480668,366.796865623751,47.5417247150896,3351.95955042242,-526.148658955684,411.598199906541,-13.0049273857713
338.028914387667,-21.9854345460681,200.096912712454,6.70571983311958,1002.86373525596,-46.3950494841119,745.171314563321,19.9147714993599,392.449464549869,1.79232559965607,1245.10283888895,-36.783556913017,1130.9730430115,-62.2778887922079,725.190467019381,-36.9832367109373,958.82809016923,135.650743441724,169.903991129251,-12.1795536540664,1138.75492739456,38.8844001422547,1025.80844514747,33.2294015863911,377.061532306657,45.9278891724501,3381.19048255379,-534.997359325003,422.781008188109,-17.3331562343751
335.453477330735,-21.5335993007985,199.258763052852,6.31951025163114,990.03492657092,-42.9863680922926,741.025226872777,20.3414045291352,386.22045215144,0.592803437153122,1216.36307623752,-31.9305430732531,1104.48322229926,-56.9769667799706,696.066710933803,-32.6322472346288,942.142225181366,135.921051947503,166.860101895958,-11.6548122504987,1092.96333092414,46.4068063581592,1014.76149652368,36.2132810643758,365.056288494672,47.0877605017033,3355.74784124194,-528.429042342625,412.797955232359,-13.9026540926066
334.552799187441,-21.2432731083962,198.423169170825,7.02233084489044,976.80332600924,-30.3974740240516,741.222646616092,20.3987416020845,384.707165181531,3.58180822683605,1227.51600621223,-35.8020428385487,1109.09963154553,-57.2356744137743,709.57952467721,-33.8729932676548,951.486533490663,135.748473930306,168.082571402023,-11.9342807393907,1111.75342122091,43.7438921753865,1029.50770250427,27.4431842065294,369.560799443933,46.8828420921289,3369.02597475469,-531.308044537391,416.900504635429,-15.5554607827004
339.264807519618,-22.3812332952765,202.339488499171,6.12485630840809,1001.48010728071,-46.0401599911312,748.17422223414,19.3918830250642,395.171493836836,1.96332146651623,1251.29746881614,-35.7635341182926,1123.49795345686,-52.9400551160208,735.130141854969,-37.8458119920699,966.820373382091,137.767189215241,171.382260844117,-12.514797876938,1145.15733980894,42.9709380133487,1030.0543579186,34.9568807510381,380.531478998363,46.769503586231,3411.05090423503,-544.744793194389,421.740769371562,-15.5367892412705
333.675175617155,-21.2112331002679,197.780804954328,6.8484022824025,977.469790389974,-40.3598596393201,739.616038903552,20.6924868240461,384.926807181985,2.34847978144537,1220.93096145595,-33.4697215122577,1111.72454925275,-61.166285409959,705.184669632504,-34.4196522753985,950.608898168085,134.44717611871,167.655751123654,-11.7206436012766,1108.09099024862,40.0895619080063,1020.37236501322,33.4530450519999,370.898430357806,44.8035907979606,3372.64134884519,-528.396388196425,415.645436502188,-14.5085140076644
335.648319436054,-22.0399730864647,199.635106474872,6.55477025244243,991.857902837072,-41.2339827865485,742.211358242786,20.0223740287417,390.528795424406,0.496003071930517,1235.99984498734,-36.9848646150578,1137.68972516841,-61.4957784819096,719.161624053156,-36.0611339037165,954.680805578459,136.92229257152,169.435394479958,-12.188443728124,1127.118560615,41.1990690684816,1021.8183227948,40.1888849361161,373.378289569133,47.6915520269022,3384.27132394442,-534.863124074926,419.552541398012,-16.2960512286174
340.153408180162,-22.2440370344115,203.057170311327,5.97940024855132,1005.0461972007,-41.8418523155794,751.573214504954,19.2407336629062,398.729535941263,0.566913839803005,1262.7872006452,-39.4635762071487,1154.09222037158,-64.8597927478787,740.161983534672,-38.7654974261049,971.606316235004,135.921754939948,171.628068408316,-12.4394388099465,1149.03794908967,39.2381102536021,1039.67543481808,35.8059381958888,381.828088694472,46.4166953817151,3404.81235257403,-539.681077670063,421.686789749949,-16.8597557646943
334.429000838703,-21.327252426133,199.3375294512,7.07970522618725,982.935629565441,-42.6722171355734,743.047736867311,19.836039552639,389.2874452174,0.143537593643892,1228.77345396356,-32.8866745877923,1128.53768084558,-63.9702979897966,713.887009628772,-34.4011136936429,953.108074361993,137.36080463421,169.230678103269,-12.3407576455023,1121.3949985133,41.8258823401845,1035.74916569453,27.2440565193023,374.252332826567,45.5594673145536,3385.6491715018,-538.928770098108,417.369288058922,-15.2080340623565
336.417030034502,-21.4922520664021,203.346416302481,5.20327621616077,997.993375538603,-44.0700662328433,745.998683989028,20.1150431000058,392.139027594132,1.1068086664171,1243.74438641897,-38.4640319158742,1148.0250061402,-66.4697527765314,728.89762982207,-37.9411471951779,959.819549230654,136.646833919145,171.119522595326,-12.7369614652803,1146.72802361263,37.940725350845,1035.19779843558,32.4421274775684,379.062920215399,48.459812246812,3410.22436048206,-545.998896483251,423.481541077525,-17.0421019120614
341.641189099665,-22.7647565939812,204.833593337845,5.77180996446626,1001.43201226951,-45.398956110852,750.626721820739,19.1680380865291,392.786193790691,0.460292174496191,1240.97347573503,-35.4540012852886,1144.68891590151,-72.9047687979155,723.061562447007,-36.7736633083832,956.644002629455,135.674341794855,168.583988285098,-11.9956742685642,1113.70186227438,41.7147554018731,1033.95151163281,34.3711896151017,372.003988813533,46.941177414725,3390.44652530518,-534.911636087025,416.734873922507,-14.1853611586911
336.211937563046,-21.7447160743911,200.446112345612,7.48149877859699,983.278682461005,-36.5478652387204,745.168736992775,19.6223685482523,388.242298703791,2.27091392593226,1234.01289154675,-35.8105907819604,1137.10552482321,-66.4279790326674,718.57674675631,-35.4515966412929,956.59897130669,135.033282172098,169.62636274138,-12.1598172869371,1122.82077675067,41.9137177392842,1047.29673229957,28.5849549459629,374.84796831434,46.3804825546976,3396.97598898889,-539.296979710067,421.580853322355,-16.9161508975107
338.485600589606,-21.8861773222762,202.611862087679,5.93092743289491,991.618311138141,-39.8038285707818,750.205567394103,19.3415463714042,395.882319447482,1.25456069354217,1253.68608903152,-35.6172982200553,1147.5868229189,-64.0571109287434,735.648239340703,-37.3612321821102,968.930748345476,136.745001853756,172.248942652876,-12.5167722184133,1153.97450107188,40.9997743439901,1035.18516658558,36.0779289378345,385.777534132366,45.0372490788841,3429.88757790438,-546.360418065229,426.991707070721,-17.7426964845421
334.121491838001,-21.5831209398327,199.919758785956,6.89438154488804,986.819220137519,-37.6167133483358,742.80250963532,19.7311542772048,386.941955648084,1.69330873179909,1222.92525624151,-35.4298536658586,1118.85658149622,-63.2037247105085,709.289923061729,-33.694754131856,951.389054544237,136.163110547953,168.947834084469,-12.0834505775388,1113.32363757643,46.3689389030282,1036.22120830431,29.6095270915521,375.298632907719,45.6992710184447,3395.48286265623,-537.49128719822,416.25290958793,-14.5465011430853
335.650335267898,-21.5778941199607,200.347893472742,6.63284712952473,984.566447956079,-37.8163695041909,744.21072003454,20.196810229435,388.949969857923,2.5686795055266,1230.92312756868,-34.3721444467851,1136.03485420659,-67.5292045103325,722.126936573067,-35.9727791446688,956.349708000083,138.991333178423,170.56816857552,-12.2722718575496,1133.87212351805,42.3067863645071,1027.15702137966,39.2544226282628,377.427778617017,46.7850954875803,3400.19721562495,-532.96094781923,421.207845821458,-16.2756596211281
340.380857409187,-22.2743842704165,204.073763389565,6.38677251723737,990.508613470109,-41.8678585129729,749.278257145851,19.8169332528114,391.792503043258,1.690503085843,1235.52383564119,-36.8507889039527,1131.07531893207,-59.0750425997609,725.903921178962,-35.7717358139716,956.083140102563,135.343674930775,169.025480491334,-12.2199417404198,1116.71210569146,41.0120523343827,1021.8175498683,35.6342265112082,374.226619424092,46.3136369764409,3396.82751193635,-542.243531256483,415.365200833,-15.0172248908359
333.923582240986,-21.0551403141131,201.115843064582,6.64529790160482,986.38741873274,-39.5057114397209,742.203060528765,20.3106342847131,386.774659027918,3.65190223657633,1223.62003173932,-33.9617912082855,1125.54314462602,-62.8679072722217,717.430226574519,-35.0252319646722,950.208796812939,137.488438385961,169.363885200975,-12.3115875304772,1119.14339247177,42.7537222567744,1023.63492911634,34.6504508105433,373.807050759737,45.6097799895238,3391.80413366206,-537.24927799351,417.781635432967,-15.3967148390925
337.21387190473,-21.9032439823791,199.655519618793,6.84749164267568,999.350912403193,-50.3753783278218,746.982325500796,19.3310904278172,392.863165642739,2.54702069606071,1240.57431508555,-36.6011861768571,1140.4590197266,-62.827083466141,728.790195385257,-35.6020627297166,962.755586284572,137.052968775365,171.589402643766,-12.4118441744482,1145.61301593257,42.6299399373787,1023.6620541216,43.1153061053179,381.900369847044,46.8964017646378,3410.33959340972,-537.138572154838,420.442287740204,-14.5533407240209
333.62671787399,-21.1080377649611,199.365633030317,6.48234278573812,1001.77961334065,-44.7503951223867,740.262994430723,20.1387038843397,383.943197007723,3.00724071877845,1209.16014698364,-31.6755830220437,1111.1338330228,-57.1793950365743,699.824087122157,-30.7439387975012,949.495839373394,134.260771300602,168.014387141622,-11.9668761673969,1106.65675022661,42.0041610634077,1022.35523514321,30.1109613308273,369.767570356189,46.8418571866623,3378.13704178126,-531.078407037291,415.921146758342,-14.9678165167814
334.074569258598,-21.1096050222601,197.756758908495,6.50364300921695,984.813912371101,-38.4886440902395,741.142164393505,19.4124198974123,383.455477452517,3.1032402954625,1212.49104200126,-31.4772758662218,1126.66402380115,-64.4778499826298,710.523497188735,-34.3559409081833,951.412174520417,136.851624512586,168.592883222016,-11.7726641263597,1115.76026437564,44.4820797910417,1020.13187905455,34.1161261170032,373.952116905369,46.5948964056833,3380.39870149607,-530.932538807894,417.419599566375,-15.7114001767834
338.293507215312,-21.8066688828556,202.326328896366,6.0750702138622,990.987600786736,-41.2262176097606,749.038160890655,19.0321689749902,393.250530185889,2.04892560736424,1240.45950345417,-36.2685317769602,1150.97318170138,-67.2534736835712,733.072886630705,-36.2194031588797,963.135844861231,137.67452613053,171.343708938963,-12.2709594893125,1147.37106620553,42.0495187643056,1041.46795381868,29.9353816390711,379.765679291195,47.7800121001732,3420.78324009602,-542.580692944307,420.43718072946,-14.5948855543362
333.012763070405,-20.8633402384308,199.218230154596,6.09052208651007,993.580116516953,-51.7848410283283,740.490914698561,19.917853077859,382.177579610635,3.88271423663845,1205.62142089605,-29.7788824668286,1120.35738426613,-61.1369660495788,700.227202071457,-30.5717965831848,946.329211565502,137.140880033104,168.437454640847,-12.1159510304239,1112.55693127264,42.1164619791803,1026.1838007077,31.3735378738919,369.488425663961,48.3116811402732,3388.41438904995,-535.444834005165,416.413257669868,-15.0635156077652
335.833302194187,-21.6792057260985,198.381385789074,6.97047468203293,979.058257608897,-30.7276613060837,743.804509504005,19.8930103767873,384.151996600732,4.45821279124531,1219.96994430641,-33.1923755988396,1125.62529539519,-62.8056011459248,713.764694797726,-32.2228809397995,958.665954151226,134.298332862546,169.57100392469,-12.1021855108822,1125.41305991247,44.8915347566593,1031.54523917472,27.2612064407069,372.877840680282,48.3161758803233,3402.87952792794,-537.350060340946,418.398343711926,-15.2183080917141
340.694884451771,-22.1866886735148,202.33125282212,5.35150430050576,991.850771156063,-40.917252394662,747.672462685246,19.5213153085802,387.353309403094,2.49930431990447,1216.79193021028,-33.0582738034648,1119.19521213581,-59.6869472785578,711.689567247,-33.8896391639578,955.095288286087,134.450000061596,167.946551913113,-11.9369960881714,1106.21182372047,41.6673122290464,1020.79596681792,34.0956554045596,366.82556104845,49.2340259523708,3383.80250815934,-533.132199582752,412.203543891524,-12.6855936817333
335.899391524913,-21.7607428743783,199.460982053469,6.58439334689567,983.060824674933,-38.6734308428367,742.963216427777,19.8639377479404,381.734274142811,6.05623442112211,1210.53193628077,-31.8121027436827,1124.01418131721,-61.8746961133083,705.334364697403,-32.4224250527426,952.18903621814,137.213101388909,168.378974763809,-12.0266027657345,1113.92902272344,42.1625756036855,1021.48322600381,32.8742406725898,368.54646809206,47.6957068914632,3386.48625500774,-534.932048233224,411.883234428412,-11.7514114461247
338.286230835682,-21.8781490719324,201.980895776973,5.1007262646181,984.586787065878,-43.4237155638933,748.882853110105,19.2694714723589,386.283436271057,4.25128091340198,1230.74684363103,-35.429057881832,1127.00339417779,-56.9836321660601,720.390099038891,-34.1638490157293,964.351769914819,137.093836197765,170.885953370857,-12.2653101476119,1139.4218772172,39.5868704245665,1025.92930441038,34.9241102801903,377.528855720394,46.5137964494183,3429.02363398605,-547.450751400316,418.294153944109,-13.9342336080292
333.667686523458,-21.2054590827457,197.003431820604,6.54520660934949,981.778926873061,-36.3418782911669,740.308088513951,20.4600543880839,379.169955583129,4.37463544195548,1197.09340953509,-29.7386404254809,1098.40735583015,-53.4364201643035,693.201418145293,-31.0242111303062,947.737457546231,135.738385090742,167.165020284109,-11.6642293861383,1095.250682649,46.02860468744,1017.21930371758,37.6079791388099,364.584841743224,47.5966590169591,3393.92998147863,-536.103781630366,409.704891210835,-12.9065449917349
335.483034353596,-21.2042178619491,197.218152696979,7.00457348350889,971.547940972257,-32.5630247268939,742.216409641179,20.477472052167,382.188423445724,3.57935525877306,1207.10829512356,-31.746041337794,1115.23523116721,-60.9151212613842,703.489678771458,-31.4194233626533,951.699166127316,136.18852924101,168.511572772303,-11.9369331629587,1110.30534988486,43.6865066310741,1027.14887725525,33.3642283688726,369.856548612694,47.6440215726848,3399.35121878095,-536.822514993212,412.997994254422,-14.14475952286
340.102844744593,-21.9581687996817,202.15082019835,5.32631250267797,994.998673614704,-45.3156699133655,746.52153985371,19.8972591194456,386.410964300907,2.10968894911383,1204.38310253554,-29.144851699491,1101.50513661176,-48.2807180466245,698.034982227815,-29.5737291127186,943.765510312077,138.097854796488,166.696727175975,-11.6547260010071,1088.0036036034,44.1129425787155,1022.58841899026,37.6075848183083,360.252588410724,48.364530872477,3387.72401255475,-535.120411673865,410.168903302702,-14.638036477638
334.120931488142,-21.0736960364506,197.237722424014,6.26869841285945,984.450017814362,-41.4493653105551,739.606486091451,20.2046122054989,378.937110088127,3.46500238610043,1198.26928392035,-31.2315596952878,1096.28284535638,-54.5831697478983,690.108614252484,-29.4584078669767,942.203344169796,137.672155455279,166.807849124822,-11.6882916518936,1087.98409473425,45.9022418563879,1010.68304885748,39.4582975760456,360.267144774902,48.4356226285095,3387.30448872638,-534.436755787215,409.957494835437,-14.406279862223
336.273110095516,-21.3420401867309,199.77329159652,5.33624071887875,973.768482629058,-36.9549775140772,744.613841251093,19.7949807743271,383.484436729003,3.72151446484127,1211.94596735908,-30.0656512157155,1104.34633382729,-47.7145651766021,706.749190498984,-32.1928380936763,953.292357164908,137.713426542441,169.352712931809,-12.1289580914012,1118.37744931044,41.7750657240479,1030.24519925107,36.7581509671468,369.874067277254,47.4729135235882,3415.40106535536,-542.351477839553,412.25320661399,-12.0129171275333
333.000748882028,-20.9173923249827,194.866118545303,7.30692422609629,983.124805069809,-41.651331147193,737.920129248304,20.8023336696358,375.901781532422,2.99333370398585,1183.87080373309,-28.714372736597,1078.93374567438,-48.3085610801096,675.577211194946,-27.7964224348624,935.891947103469,137.489701976395,165.440395022087,-11.3819535937547,1070.93976415102,47.4187614514409,997.577999313727,47.836848548797,355.628088974406,48.6427352742407,3386.27457818697,-534.323455234279,407.924247835162,-14.3432063859677
332.682464561183,-20.7767665561224,194.551121792559,6.85167029852099,979.609673798584,-44.3010045235799,738.38904622598,20.2754004231173,378.081826411853,3.38061616727287,1190.26757918051,-29.7392745725584,1100.83669313701,-58.3166076125695,681.03785456898,-27.7720672653342,938.881135432014,136.691652680769,166.321260613439,-11.5737105446912,1085.67760338915,46.2465701996141,1012.09063248852,41.9090144915405,358.448149035265,47.6744372567784,3395.09443343943,-534.625803520758,408.522338783191,-12.8876170856766
337.221461574731,-21.6111855847202,199.081327025166,6.51567709394752,972.068220202831,-37.1449904193765,747.390714059285,19.233756976026,383.718373716869,3.55982002045089,1215.82875061921,-30.8425863641756,1114.66695723129,-61.9356492784768,706.351671510785,-30.8951077404496,956.764777372865,136.452923459379,169.550717084444,-12.0672470835542,1114.2561970469,45.9318005482885,1020.9192735759,40.8413151814847,367.200969917104,47.6952924699504,3420.96694307276,-538.008499412105,413.085071656377,-15.3298048676702
331.474624579781,-20.7016818430585,193.111585158867,7.45615652921941,959.55486234069,-38.4993863555689,738.100714930997,20.2505936413676,373.453020237532,3.8101434006471,1184.75483415741,-27.8977048314615,1080.84198154454,-54.6190084652197,676.846576848519,-28.5280014482811,935.702727484797,136.429510689411,166.173223197555,-11.6741749257645,1076.27282290188,47.7001025571605,1001.62944608251,46.3056670458433,355.169616099669,48.4854717133127,3396.90594145804,-535.463914268544,404.815061110965,-12.3026591142293
334.128061723546,-21.3403885257466,195.972685144237,6.28439114393722,970.667548124887,-42.9234411643186,742.955002880425,19.2246954718319,376.773393906541,4.72955042501977,1196.62318931461,-28.6570643135832,1089.86485041983,-49.0752386964759,689.907284746669,-30.6659685072192,941.525762597176,135.847677752507,168.157595921668,-11.9446313495865,1094.52189926672,48.7053297247353,1014.3448862402,37.7203771461352,361.317852873474,48.5630215568034,3410.54587920306,-539.70810195194,409.432720862596,-12.4257117426846
339.730123147637,-22.0090199226111,199.637926063802,6.0931092187323,979.825694780184,-40.6708593648992,748.972307962221,19.7790420028048,384.044420958079,1.52061854877589,1205.80933706667,-28.8705912130709,1096.1844868997,-49.5074345174389,693.15624635649,-28.9969880082843,940.181486256343,137.662967592042,167.20990963075,-11.9812252973118,1072.00432596704,48.3367179352854,1011.93945592822,39.7674219358157,353.689914770699,48.9317465836361,3401.72925477111,-535.293382256737,405.635697705705,-12.6407250855076
333.639452413422,-21.1097164418368,195.380186158895,6.79949057419795,954.262952705878,-29.0627195399135,741.55460110662,19.8253065171396,375.795824098312,4.40053600637595,1190.38011272296,-29.6923823253107,1078.92066179623,-49.5824364136154,678.071509493626,-27.3249571245607,936.922421993281,135.5394576852,166.70784535295,-11.6894019882477,1070.36519236919,51.3505748499613,1008.87406602815,43.7352320930459,356.599358024784,47.3594073457824,3408.23921098738,-537.774009964294,407.619159107978,-13.8357411297651
336.417993129214,-21.5064476587979,195.151079359102,7.27036472608002,967.705269907262,-35.3997941200518,746.239867633279,19.7749206882174,383.453896970695,1.82989608892733,1205.40486832392,-27.9169116198686,1104.28396165221,-50.0478646630008,693.559919375747,-28.9262644502263,947.432580528707,135.456854790118,169.318324467485,-12.0631591261327,1101.43506482825,47.5683027415637,1028.24702298652,35.0197272734583,364.239396401908,48.429688855639,3433.56791466338,-542.195162323809,412.752441530593,-15.0096503181946
334.207370789044,-21.2139155601374,194.584705193249,6.82957816515282,963.924440824355,-35.1411332024799,742.178545039888,19.9207943999581,373.642912278058,4.30928959645224,1185.87680973991,-28.6336314458995,1073.94187331613,-54.4384595656234,666.293355466658,-27.548472174761,929.77941307868,135.322650368109,166.37457743482,-11.837301576101,1057.43828847753,51.9579901944096,1003.04875644282,42.0877747853778,353.354691819149,47.9294490083406,3414.30603641482,-541.154203520918,403.570306152794,-11.7688373605858
333.166747529687,-20.9176029146947,196.674055389088,5.95816346849713,968.290287973722,-42.3099863655518,740.911674102454,20.1213909849458,373.936912346764,4.20308891272211,1188.44736939447,-27.0270347913792,1071.98276746735,-45.7392588199039,674.835943898538,-27.1567399669927,933.442127970616,137.030934409379,166.968967548037,-11.5152028496747,1076.74573988626,50.7866060378095,1009.9228760447,49.4940509679427,354.036868243788,50.7699522898359,3417.1119551884,-538.168951789478,404.492421601498,-11.6957605784136
337.396999896072,-21.7148977457744,196.901810177781,6.33392255845004,979.347649416704,-41.7405236117176,749.920801510886,18.5810930604058,383.914863943257,4.27144897092242,1213.01010388328,-28.4771040204953,1104.64736309863,-51.9263295343357,701.203572986495,-28.9943584126677,951.300088365944,134.175821248873,170.674113319767,-12.4689832880374,1115.47522012604,45.0356772125071,1020.8076522029,40.0417419391713,368.764897449593,47.4287197403382,3454.28754833117,-548.60312957275,414.592164987415,-14.2968223367583
331.712797496715,-20.6499600029853,194.946641112024,6.9151048863702,976.331974399795,-49.9253719807832,740.153008851028,19.813304332263,374.247394078934,5.03921258225161,1182.93508256081,-26.4751070418924,1070.3112552718,-50.1220722717894,670.704442941421,-25.8415034758587,924.571695848738,138.734651137813,166.721462526722,-11.6286734527225,1069.97985935765,50.7311958550668,1012.51678479489,45.820287462681,355.388662571393,49.5869506208876,3419.00899450083,-538.773141674645,408.05636892111,-13.4904218642713
333.616685450586,-21.297877091014,195.029399135001,6.89091481490032,961.96664939495,-38.8981387446651,742.824978026447,19.620488556596,380.766234276164,3.73600927612244,1200.83369178808,-29.7580011538392,1099.00369113772,-58.1201460257205,685.236900742517,-26.9223090261276,939.034946809334,136.485054575732,168.877062040634,-12.1810819816337,1091.2841385288,50.0302799106896,1028.027799735,37.2386160212047,362.190913337881,48.514041873501,3427.05086624264,-542.388355939206,410.482478596509,-13.123497671647
338.700491429523,-22.1315334660333,200.116269650242,6.11022376227234,968.470315663228,-34.9629536617111,752.414626538279,17.8021883357898,390.401051901245,1.34894772607877,1230.61790801338,-33.0951321591589,1104.54313565137,-52.524470057229,710.58227447101,-31.1603838552141,954.352255089382,136.559902531957,170.427940816182,-12.3980085142694,1115.78895075591,46.1095977100237,1028.65495486943,42.0738979532716,367.435430186358,48.1539562550148,3443.11715098198,-546.545900943798,409.230987428885,-12.6484716647548
332.152902056023,-21.0853788153505,193.996167574554,7.11590400501789,970.172702858294,-38.5095262041573,740.886772125949,19.5515497564492,379.485317407619,3.21242075144074,1194.33195334693,-28.4963740953268,1087.56364226486,-46.2685815565567,683.36176175969,-27.5004408320412,939.857774690042,133.295910963208,167.66178604421,-11.749186477781,1082.91095117576,50.5929404198797,1018.60184956322,35.5411727053532,362.578949632299,47.7655846122491,3423.36456337645,-541.066933469941,410.628070515909,-13.4797194636794
334.806005447815,-21.5150890524147,196.585147640887,7.66068362881404,967.765362776926,-36.8657031858669,744.183896707845,19.3358501655919,382.457631332162,3.43901966485491,1211.13075941617,-30.8499600878472,1096.29785890176,-47.1162164071633,700.254322882147,-31.1005086537563,941.916819334485,138.779057896262,170.074410590248,-12.2381648820329,1107.45059166131,49.895982737318,1027.4965725217,44.2454055411563,366.828206308444,50.541184137448,3442.95601113286,-545.422617661352,414.322849763367,-13.2792593754276
339.804873377118,-22.4435550971886,200.382471543974,5.31864015338946,967.904596862782,-33.3731373459108,747.387911783447,18.8001985726876,380.415757793448,4.00861293310293,1206.51010230385,-29.731560042939,1107.48410867865,-57.6750662860483,688.172321546381,-27.5144694466312,938.403348340265,135.591760066517,167.697954818858,-11.9694720421737,1071.4476476029,54.2253340537345,1018.14943005386,39.5209874534487,359.63528727441,49.3482567447192,3423.01436368179,-536.875310989914,406.837942622231,-11.3215672370519
334.197244417459,-21.5730337765277,199.35229764844,5.53814148727811,962.778223395325,-36.447902804362,742.437513208508,18.9674335907383,383.515980478346,2.46474862054447,1204.82244120446,-29.3898595328432,1103.36757237448,-50.7799216119108,690.818897131681,-30.035569760583,938.06477854117,137.436989943763,168.515147884207,-12.0486678691373,1089.89527847191,50.4578909780159,1026.76912136151,39.2531563449404,363.843222350833,49.580647743236,3425.51393839602,-539.683621373402,413.550485958061,-14.8622251015341
336.153704305857,-21.6892705719281,199.845373237648,6.98316155428603,971.051660479025,-41.6438788438301,747.979230312007,18.5748959083351,388.219681137645,3.72372885102342,1231.43945649488,-33.3030128833185,1122.22760775264,-62.5597635334735,709.177740237489,-32.131124657308,954.538147116408,134.135377802755,171.333128841356,-12.4533753182663,1124.76720549392,45.567390542735,1022.94112231455,49.8985159008508,375.449055599818,48.5278041118013,3464.84243519557,-550.928797908676,417.467704782486,-13.9199893670649
331.470066086076,-21.0543545040563,196.436230787534,7.61454303876306,964.329724985706,-37.9513298098851,738.964385723444,19.9790114962961,380.210029672788,4.02640017433889,1201.7163960411,-29.9978789383115,1093.8691338098,-50.275730427544,686.04511640044,-29.4763282522944,937.631598479471,133.758647401499,168.23631441307,-12.2053402384517,1088.93310610875,49.932362560375,1027.26344150068,41.4477892783761,364.311438594822,49.5590991840666,3439.67024633251,-545.864121885951,411.769326209583,-13.922916171643
333.639568007877,-21.7648346912128,198.051892150364,7.50929221000116,963.561217029078,-31.9453142662951,741.714655899242,19.0357187875081,383.597299246084,3.38215386597548,1215.74248303392,-30.809344528312,1103.00867970522,-55.2441712223299,695.032744320951,-28.6587901112778,949.799938600762,133.126019411969,169.515273369335,-12.130941158506,1105.95150321689,49.3001049938961,1035.4869716236,41.9395250663914,369.7147494273,49.1122154834506,3438.63794383482,-543.6223360401,414.047399784618,-13.0065915122909
