332.510803708232,-20.3715731565504,195.152879140298,7.80074269248925,947.853073279643,-39.2456805031638,748.443060720286,20.8741013301948,374.675622614929,7.71878359913207,1216.30530838072,-25.1762190319521,1093.59606606723,-51.6570797933332,673.764895931599,-26.612142960875,922.73350967784,141.616473521302,166.948579349536,-11.290331966979,1064.11594168269,52.4080105474047,996.486468518214,47.8784821696835,344.689169248184,50.5718148494343,3332.36011111404,-515.058930128339,411.593925563324,-12.7107601926032
333.014231758294,-19.9696832467475,194.424243689465,8.32693928404925,956.572723955405,-36.1601959011876,749.991869043994,20.5519135641594,377.559188616725,6.86361628539768,1224.06560394573,-24.7099477475273,1097.34449442905,-53.4999845358974,684.018893432903,-26.362857604265,928.442076081461,142.369470365905,168.493384727857,-11.4129530705649,1083.99882967818,49.4781893106554,992.563365819541,44.1403406869949,349.197530438403,50.5135873806601,3332.87653565081,-512.12479196619,409.867540286464,-10.8859424094522
337.280990705361,-20.6055319501726,198.418468212454,7.56771000904917,959.473109660425,-37.4887799881259,757.745668043726,19.3997405905551,385.421846817952,6.28582715233057,1253.01011951807,-28.6058737208039,1121.60728497878,-51.0469772809951,707.175036240773,-29.2906436301726,942.554164565812,141.527077170643,171.386905439648,-11.9498799835323,1116.20807450304,47.2716227145307,1013.11367982819,40.3158396815788,359.978565714621,49.5320605028316,3358.86119869468,-519.553416602857,414.295561073882,-13.2863236119476
330.998670711257,-20.1247420458064,192.30165480372,8.75954119003417,953.743654218924,-41.0295772870923,747.664167032309,20.9993492265044,376.550443106337,8.0036032256228,1220.37090455669,-25.1356447368759,1088.56536305324,-50.7769208518862,680.097953630415,-26.9747797234726,921.937085385169,143.086096117521,167.797338369629,-11.4806965088077,1074.78859831426,50.3144914244263,998.887478682763,47.7535467284695,346.214322719947,50.6172036349036,3317.8297688893,-511.49587795642,410.270065802117,-12.7253128488905
331.846350330709,-19.7237679915001,192.997376168398,9.06765146265803,943.797328875658,-35.5883901378435,749.207419616135,21.5994980243468,376.492698798947,8.24985839994221,1233.00282933823,-27.1757070031529,1098.2778552315,-53.0906299828325,690.414592743958,-27.7412013117224,927.433243596586,143.122942072497,169.311044510347,-11.6238214993179,1093.89366268841,50.304546311604,986.905107829625,52.432642538427,350.940204676288,51.511621331238,3313.1647767047,-507.90180616521,412.328855897046,-12.5694682827971
336.751399207619,-20.8582741715023,195.540499196003,8.70264172808731,949.620361758977,-34.1477667440045,754.12482193647,20.1734149915173,381.612102360843,6.20030382147448,1235.7047817529,-27.3613947176541,1108.33414721608,-56.8548147871278,691.884752221605,-27.0884976604948,924.460078676603,141.984130231451,167.400108936004,-11.4525830339551,1065.08107945946,50.9619293715767,988.537740577837,41.933600260249,342.299749921105,51.8929584577162,3288.73232126404,-501.521193524992,404.842523607891,-10.4959322380351
329.394936633008,-19.1865017857856,191.644462902708,8.30313825672243,931.042207481419,-37.3128051426497,746.182682067175,21.086540601165,374.785925159973,6.77720750791628,1218.33986641713,-24.3489134485647,1077.66795396291,-38.9495360729755,680.288038098772,-28.5822926793002,914.78885385674,143.549117344722,167.134148671331,-11.3601552932539,1068.5933494122,53.4452366534729,989.38574008557,47.7767885162607,345.491792692701,49.4865602382019,3272.06798136271,-499.496765543129,408.081658875885,-12.6288946207228
331.642492535828,-19.9972788890493,192.982498961759,8.30042174523074,922.533989579719,-26.0010806006012,749.56175688152,20.7667823068902,379.205726068312,7.25857454348465,1238.19101518455,-27.4036401164249,1096.07924809262,-50.6601082234963,694.988649040531,-27.7502364460286,927.064929438837,140.54597509935,170.441932960458,-11.9577004967737,1096.3204900403,53.71447658502,999.988075625258,41.295967344766,350.766828243798,50.5138502177049,3293.68070111724,-499.920772087204,408.461964805532,-11.1927342892116
335.949946543605,-20.6264112069661,195.697870610752,8.02324875228423,942.01313546606,-30.8094777067085,756.537181791924,20.3454877863458,385.488143581567,5.00916781208101,1252.33606918255,-28.5062538331235,1106.8968489394,-51.4365321630346,706.4799861374,-30.5469565537054,932.032336783416,140.686625329213,169.033133495981,-11.624156932652,1085.85967676665,51.7438273731906,1007.72661611946,40.8847329307898,350.151486340132,49.765434194679,3281.00282197188,-499.367519721427,404.976223032437,-9.56631939530572
328.274993924653,-19.3005638858332,191.437293783266,9.12038155868956,931.637289619441,-38.283347672249,745.278631542646,21.35126814229,375.315577539458,8.08071173506283,1222.58815124092,-25.0616254907224,1072.53717890112,-43.0695103138064,679.607242189157,-26.1446790920045,912.951939349571,143.394767100603,167.831264704479,-11.4122855599081,1069.83155285241,53.2109037618166,983.607140931973,45.3142998943803,346.233280924874,48.6973686730106,3271.46578711825,-501.947861968452,402.818652636851,-9.22439838206112
330.520024452426,-19.8277491368637,190.09297644905,10.8002148035326,934.291078693671,-34.5157567180562,748.966815376204,20.362598853359,378.536992808564,7.82346062970583,1231.78838176609,-23.9888846768123,1084.20279032745,-39.4385648135473,693.490306189306,-27.6894919599437,925.557418449052,141.818912681985,170.522333541799,-11.997680995549,1097.74260146563,52.7223057190288,992.072924365138,48.4012965790408,350.765954142952,52.7950462375025,3299.83867131712,-505.427119364204,408.159861436966,-11.4494578878336
334.996927074104,-20.350421223835,195.260168406293,8.44331854265537,954.152542311348,-41.6562708811473,755.556817986705,20.2973586743498,386.166149914869,7.03876289976922,1255.37665643167,-28.244485787564,1113.44505574131,-54.2254592690527,710.82065491557,-31.3683493313346,935.546632485269,141.726142694531,170.051969727679,-11.8145382545375,1094.73326638135,53.6414350381108,994.528089540846,50.2656364117363,349.566377195041,53.4835798247065,3298.27328819532,-507.55880341539,405.242609262188,-10.1460935363632
328.621475362222,-19.4306123459313,191.786552278326,8.25766858088672,929.676400393177,-33.9959579335808,745.623207018169,21.7064871457834,376.292986647398,8.07567207764082,1229.51509852355,-25.8601162946812,1077.26380143848,-39.9981175081539,683.849990729541,-26.3708812668395,921.117139247523,139.560671322607,168.811864912237,-11.4887735891166,1080.82515472278,53.3838572099676,985.860296081317,47.3324736742753,348.965412513981,49.796898507948,3296.21192344501,-503.380645642362,404.45867686692,-11.508842645032
330.754245021646,-19.5966645991594,191.608381657353,9.89490205852306,936.916623921436,-32.1647204008718,749.603370998206,20.8342973762921,380.151706946717,8.9712451569329,1240.52536895009,-24.5844588924328,1103.05247887551,-49.0400347676484,698.894456729509,-27.6054513000338,925.247758021209,146.433486151573,170.854917363863,-11.6396501268351,1112.03399776781,51.0778465674057,997.753190859128,44.881975270247,359.669250338679,50.2081419584536,3336.72345956013,-513.393794177764,410.977523755265,-11.9066924288344
336.377472963678,-20.7692890272407,197.254333675398,8.17128356076782,942.900543681347,-31.7411762298733,758.617475858265,19.4646863594072,389.486669938471,5.37690272314238,1266.78174910356,-30.1740228034376,1118.80240541768,-47.8590985417382,716.961780602577,-30.5724998225189,941.263018764749,141.280446339831,170.747643266606,-11.7807972520581,1105.38484997358,51.0758673222756,1004.11480737237,48.9069139901669,361.820045382495,49.2170253804114,3345.97830820174,-512.751386534068,408.421174339353,-9.29275889266973
330.320037779717,-19.6046037474019,195.565010041959,7.77650889037311,943.524881055218,-31.4592812317783,749.049342537106,20.6644201500202,383.791836764436,5.64779975005634,1240.10936953198,-26.6856898398101,1101.69449703417,-50.3203787861947,693.404087665482,-26.9448881074771,925.887724909773,142.894502881635,170.149464186375,-11.7461289836435,1096.0303707951,52.0923794310069,1014.5378251036,38.2223421453881,358.121301789467,50.0729449269403,3357.34954005551,-513.707746516635,410.51289424045,-11.5219345913075
332.915677924277,-20.192573579347,197.874668427035,7.13299702311031,941.240336256685,-27.7335461594204,752.852306422973,20.1574334588974,386.921803956511,7.02026433820004,1249.77642862558,-26.6439479529637,1103.04393499013,-50.0018171612364,707.499236400302,-28.7063327459515,943.674093969928,139.816182136753,172.277833544401,-11.9484013249329,1124.11411866146,49.129124165978,1014.5730989493,49.2773211301462,368.471588967504,49.6910186829478,3399.0314150286,-526.391436434697,419.682018637727,-14.7937969848508
337.475464552199,-20.8046751464822,198.776439189092,7.14415898733614,965.817702980578,-43.6822542066979,753.73485501277,19.725377680529,386.223509593635,4.80497231448643,1243.27708538317,-26.9966380651447,1108.2275772603,-50.6547320844995,696.149341455507,-28.2468565599686,930.992131879514,143.000932046498,169.744819800055,-11.9323649603134,1084.20370504697,54.0079538169557,1012.0019539238,47.2213059135864,358.816130813315,50.0536087306205,3387.79842412003,-520.563041944848,413.697055138228,-12.8698429700167
331.934308169694,-19.9248311619012,196.823742966758,6.76018057514109,944.634303173834,-24.8332286741385,748.350724385951,20.9046167184751,382.873319469618,8.06773018708194,1242.97525037303,-27.5751668520368,1101.05934869272,-47.9354484815168,696.803736840826,-27.5464715502479,937.040703345643,141.116051300078,170.450074164075,-11.8601548387686,1102.33471203819,52.3863055568347,1019.56654762557,44.9896343491983,363.998194135871,50.1138725067411,3409.73978071607,-528.497006935649,414.688625950998,-13.0346004697164
334.44268054839,-20.5866839192468,197.798872776108,7.84720276549987,951.876105296418,-35.5839245050312,752.81663251975,20.4483062041271,390.893576430113,4.83039590755001,1262.03857539589,-28.2226034372797,1124.96910901277,-52.266564407811,717.907442931842,-32.503177515602,951.11287117678,140.940225149907,173.176439250008,-12.2060715133242,1136.73119726357,48.1419210590587,1032.05546024125,39.3495307335299,374.13565623582,48.7931328971237,3446.30117880275,-537.090129505156,418.83811860124,-12.1049816441485
329.554666090383,-19.7229523129422,193.489676102828,9.08462733699856,953.343071720264,-33.2653334953016,745.253564670796,20.4635917998835,383.331470841202,5.53478716882049,1236.84261564336,-27.7626937213462,1104.21766866077,-57.9178569564894,687.182014205562,-27.815066454417,931.546885025763,142.575860652008,169.409348415488,-11.6564786779329,1094.7188415405,51.5034815878282,1024.57651254832,41.7091252429008,362.839517564127,49.7705538524615,3421.7459700119,-527.11400059362,415.830798448855,-12.2083641954337
330.830288845836,-19.6468898259725,197.359579528383,7.1854561250853,957.542627614968,-38.3682074022603,745.091105267715,20.8876645089394,390.903255173676,3.49211240673262,1246.33381762776,-29.1204434511711,1112.27613840276,-54.9509201048512,699.48546503811,-29.3413934595001,937.671142146572,144.058665639397,170.481129256705,-11.7240407237624,1113.59792164526,49.4550181618158,1019.56443095978,48.0541924683888,367.075924581254,50.5317104480678,3430.11132853841,-525.822748598367,417.264055051596,-11.6707179123001
335.830121346497,-21.1109923973508,198.898598066641,8.31469311701352,957.319147880897,-30.5732741020154,752.330033148312,20.2200496031518,396.752638753984,4.03306776828772,1269.92270572694,-30.0109390327429,1140.80603989256,-53.1585797187915,723.98282661198,-33.5953549557755,955.263738352174,143.116006008659,172.769409571912,-12.2639846909305,1135.00785627959,47.7610774250513,1034.77685168477,42.2857238854956,376.094788190868,49.7317194525056,3448.51597005259,-532.466137177633,418.095836896631,-13.360445296858
328.587755703975,-19.3960695923411,196.178127537587,7.62172120909058,954.940696344391,-39.3593306291024,742.432154823919,20.6402537157072,385.007257807981,5.11598880870119,1237.09495289989,-27.1177575912857,1099.26432131902,-46.7839147863217,693.19295274067,-28.5397008110574,933.633146869372,142.866740025207,168.77273888751,-11.3051205665797,1097.57949563466,49.6290843642408,1035.71178600655,39.2518692311634,362.804856345755,50.4076604262588,3427.10319949559,-532.637491896132,413.635261941542,-10.3440632681032
330.475753044799,-19.6628622585758,197.76819937576,6.82141367615626,950.027731357104,-34.5995343059619,744.221020999081,20.6717164761052,386.857151568485,5.82817226964076,1243.4964450888,-27.0842467881181,1122.55076732876,-56.7982271024141,706.827155655907,-30.8021431561747,943.878457542496,140.015452272493,170.420489648769,-11.981457533297,1115.16227957226,50.3701355345712,1032.72400762576,39.9609928910296,367.678323713613,50.7421459431631,3426.68511602913,-529.021124598034,415.997416635249,-11.524438409206
334.127155855539,-20.2765184979675,198.015794677087,7.30605369167714,951.217220801414,-35.1004304946002,744.527461101491,20.9859434085989,383.071422351748,6.42975494279246,1233.56171570803,-26.6288133038819,1104.79717024552,-53.0528383661833,690.008292203208,-28.2345309197551,930.902298283803,139.786481347382,167.538272164418,-11.4525498094428,1074.59569082215,52.347155156107,1006.25865229596,47.6852963695714,357.869452053656,50.2043410175684,3411.41190966109,-528.442388853577,410.47568491591,-10.9977975574326
328.52625755786,-19.7593338251493,194.84202361178,7.20596897034794,945.351565246404,-34.9380114839279,737.410492604926,21.7516259742237,381.421650511022,5.50002713562385,1226.38335545855,-22.5596967606855,1096.52868491874,-54.4988636782986,688.274051451944,-28.2526083073428,924.506326864751,144.108307852832,167.390682839814,-11.4565662838226,1090.00994659136,50.4617085178785,1015.70698826134,44.5221237547258,356.430605856627,51.052712382654,3387.39389311802,-516.196164276786,410.275764078838,-11.0715142041788
331.272114324135,-20.169354343642,195.614962444379,7.27707205556345,944.917507349323,-38.7115893190172,741.692196688922,21.5673059734293,385.610717100789,6.79700537871205,1246.06648431514,-29.6255304805328,1110.32535472736,-48.5854644161676,704.901702879076,-28.4564043726918,934.033713610649,142.915820571625,169.556434244422,-11.5373463159425,1116.65141270152,50.9574093641732,1020.05805448689,42.2739642607737,367.495281630067,50.1041470829154,3421.27604144837,-528.352077120654,417.354959208656,-13.3063990264238
326.713550435454,-19.3370187268883,193.26388603464,7.1662851082532,941.191444943039,-31.7703317836661,736.467281317544,21.671048030919,377.495976670652,5.86718829574288,1224.04755289571,-28.9456097860756,1081.48474618481,-44.3216544575081,678.231581034798,-27.6057983981895,914.613958089702,145.415416256177,166.369853009847,-11.2315542808497,1075.63778372385,50.4882611055931,991.562988325882,53.0709199481686,354.123370153885,50.8847341336437,3381.23115686785,-520.849444029435,405.785549603528,-10.1888433103458
327.88128013441,-19.3130024384884,192.628383002463,7.12049481653954,930.896628409994,-27.8059111579744,737.136820143463,21.5981653747399,379.329741249334,6.08801891497493,1228.46146261546,-26.7644835763169,1092.79475690926,-49.9742161555635,687.335634304121,-26.5240227432086,922.501331460879,142.182714479185,167.660188777458,-11.4707566744008,1092.19841145562,50.4638668636759,1009.17478332068,43.2707394148058,356.086711235749,50.8219545991536,3375.81483517114,-518.888695722867,412.080388794994,-13.5046068751348
333.174718516409,-20.4411400835584,196.465307625038,6.45931758086086,935.034939885854,-32.0233903505295,744.910778152828,20.7988291838813,385.550363454154,5.997160585417,1252.93301986935,-30.0624892463528,1107.35921099145,-45.7373790420531,709.685868333056,-30.4039192123921,938.997111751686,142.664234371017,170.190073316416,-11.8474900909487,1124.6594661899,46.0648070089428,1025.96802856671,36.2034884594621,365.17149604839,50.525550091538,3402.02360135942,-521.200219413484,409.797407126629,-10.672151360528
328.290030879162,-19.9116168672232,190.262972955752,9.35374074918274,931.594849805811,-36.3301786581536,736.451251610271,21.9070661987211,378.040669629015,6.01417763046843,1220.09410174769,-24.148887296619,1079.59233417856,-46.0377648486677,681.589816424593,-27.8162231917294,915.182170252939,142.122215864484,166.922048039384,-11.3030096354426,1080.0728492503,53.5049936825148,1008.23828178217,40.1854697831187,356.328879083519,48.4964535435293,3367.85820304642,-514.867663419543,407.409932294726,-12.8999988690262
329.912239474342,-20.0781622863187,193.743123085766,7.30450317969636,939.726387284552,-32.6597480255945,739.344204532146,21.8570008642255,380.046062632084,5.77396377266087,1232.69497156432,-26.9768792309676,1093.70808214909,-44.5813406790305,692.770528717126,-28.3821430686323,925.697803410446,141.896981831693,168.525360324059,-11.7006070389323,1100.63879160398,49.6174377950786,1002.05147620443,45.7924463105601,356.771974908063,50.7042849466076,3374.46158381292,-519.083430552502,409.099559969298,-11.4377093879358
335.234784086334,-20.8424039294445,195.37805985252,8.27825619875696,940.958636581595,-31.3616468090027,746.391978820806,20.8798888309505,384.751235280019,5.95725872788003,1241.49018807861,-27.6075998617393,1102.36132511866,-42.9403739370859,699.003046098878,-28.2881889467664,924.933844360793,142.566896643116,166.989340429702,-11.2225029504469,1081.95986279092,52.7791644697965,1007.37509268626,40.5050724863612,353.077588586779,49.9074545665093,3357.86164820329,-512.294523666345,405.193034152409,-11.6575012238425
329.478943986864,-19.7483521170198,195.106534013178,5.49419830555531,940.459111061852,-39.0825430501196,738.928298799331,21.5194101232209,378.791083235038,6.24773120570736,1222.89905112055,-25.562219397753,1076.44350214548,-46.0358547104375,679.776332548713,-27.3672284465023,918.905767638778,142.142882944375,166.726213608494,-11.2773431962636,1071.29852159788,55.2445424955997,998.170499266961,51.1368187154135,349.215424243933,49.7732037483574,3354.96032622168,-509.770522675335,404.322234807512,-10.6089821588573
332.142646951198,-20.2649266669751,194.210519649771,6.31858873588867,940.478981998856,-29.673345562974,742.432396244523,21.260803191802,382.462551744821,5.16013626928756,1238.26366187644,-29.1885922400394,1091.05817362063,-49.6672973084564,692.592096533953,-29.25835445868,924.432371580647,141.835070604133,168.927823480872,-11.6062208978097,1098.97491382344,51.136094719014,1020.99836277845,40.0841198321933,356.172344541919,50.6735205502624,3379.19136069386,-518.42518370544,409.092049197646,-11.6415339253997
329.952042879754,-20.1464113076708,192.621081221686,7.24181246600073,940.421951130998,-37.4484726422704,738.065154229227,21.6456363934437,375.87414069789,5.26092710887097,1212.57744096575,-26.1287855537836,1072.1962418049,-48.4140492870203,661.264253299553,-23.1240304563356,908.982499852814,144.129831009897,165.736273329186,-10.9888513996634,1059.61612242418,53.6207381741286,996.158424931572,44.0513486114415,349.00610635461,48.6022699251049,3352.14825308572,-514.195364617757,404.547356484981,-12.371093512893
329.962966357731,-19.7400209866519,192.491905197752,6.9734680787563,947.784465224348,-40.7604296938664,738.88897751987,21.6470954020941,379.468966006015,4.72446228160262,1218.64569993627,-27.3019734688073,1079.99127131579,-48.9586300385214,674.873754116423,-25.1451368391865,917.874621587881,142.236737139459,167.036608369521,-11.2306350693419,1073.69683924407,54.2806496603596,1002.9337044898,46.1982131468679,350.025216777304,50.7468568440242,3365.08306893083,-516.280955632249,406.681327831497,-11.5362676774231
334.884159703098,-20.7405880826018,194.726745160034,7.05317545185114,947.73491783471,-30.3050649207599,746.988904295663,20.97572543052,382.943649559978,6.50928948363146,1241.91014551095,-28.2213186801021,1090.40789012124,-46.561242357083,697.574135573636,-28.6920297621987,929.432080551456,144.092065263711,169.49014328789,-11.5786762668804,1103.30153797582,49.9469736567825,1016.26690682176,43.0669663279448,358.413080016155,50.9196257513437,3374.68011945074,-517.378779486267,407.046418337976,-12.1363604353406
328.753120206442,-19.4707416838099,190.94533289956,8.00570120737124,928.079222528138,-28.0588968182475,738.307159882887,22.2978025698876,375.441275988763,5.77991812222907,1217.4356873057,-28.0249937149598,1083.00494572213,-53.2431517624182,674.609900407591,-28.3204717689025,920.05244824017,143.213215880879,167.319459385605,-11.4897488460139,1071.62568339343,52.4248923844164,1016.22254677353,38.562478260742,348.997070551747,51.2318421730419,3364.95302504943,-519.29566710621,402.257902737517,-9.97084423198585
331.706014645402,-19.9035188118434,195.322261238218,6.22142059942234,952.32076765704,-38.8036774250067,741.845737042129,22.1752206142084,380.612133096483,5.26202497033203,1232.42568234627,-28.9639532279218,1087.61602850924,-48.3612100401228,685.175338474707,-28.3233484122086,927.991547585896,143.241652224593,168.584826858365,-11.259400281598,1096.86790250349,49.3062773420227,1013.02182425256,42.2948422086006,355.732800860339,50.4583877493256,3381.5166843639,-522.030202627858,409.499842877779,-12.8307361463768
336.421342129853,-20.6665549756935,195.373438248279,8.0141147118094,959.566859503415,-38.1734716080369,746.083818251289,21.4272073617261,380.581918471406,5.14712201250041,1222.64043454223,-27.8959191280253,1093.21814215243,-55.2573196184278,672.20056983644,-26.0299681541058,918.313968911644,141.572176231263,166.370489813,-11.0610108454369,1054.32243387899,53.1913253632266,1004.77297428321,44.1178258820618,343.513213846152,51.3779938447328,3362.38619606309,-513.389312681346,404.403357011713,-11.2184670757424
329.725357646712,-19.4759116192896,192.405259923642,7.88576141314241,950.751060245355,-33.3294794214665,741.005795456048,22.2619322093538,377.914059654546,5.04664440783791,1212.7773921019,-24.5436207613844,1076.63345700274,-51.8141436567068,666.713553236495,-23.9817332797674,922.183291174947,141.036672377951,166.68157412361,-11.1514050110625,1062.47902010144,54.4504320672305,1012.7299392685,36.5100321342378,349.071011955298,49.4384458778946,3364.2149055505,-518.379109953365,406.368624231271,-12.2010032101257
332.158338858169,-19.448413636918,195.187979881121,6.05506672866571,953.283482768454,-40.1720487213545,745.779880284573,21.766303079561,384.371483195875,4.31056754875234,1232.36176262141,-27.4974767794589,1093.26982650333,-50.1217282587591,687.488497247688,-25.7971099296066,930.050266784178,142.719775264061,169.482505398718,-11.4451585300526,1099.02604534149,50.8748688569969,1025.43871042289,36.387621760705,358.59996164591,50.4004009123976,3397.01835750642,-525.765883858283,410.906263578233,-12.5962103741772
329.81298359631,-20.0081282025312,191.243305982406,8.47912646467368,931.726207180293,-22.9309420026793,740.03564541694,21.9002986136083,375.059371715194,5.94359414306304,1212.70096735586,-28.9107778787973,1066.24554848142,-43.9407016116686,660.126000788032,-23.9788739528881,918.940706688262,141.363608122459,166.553541512136,-10.9981181859947,1057.56017546868,56.1630310272175,994.565171511642,50.7354246080917,347.877099390413,49.9560266258086,3369.67574007118,-521.739915003762,405.597231051764,-11.3142212088401
330.483226935765,-19.9438500138045,191.231061007201,9.65062855974373,944.909235521725,-36.3170579715419,740.486957646454,22.4428642483847,379.102615647177,5.54082867773703,1217.16556953152,-27.1045328666287,1078.93803900832,-50.5125668289489,673.155811220522,-27.0455123245536,923.307694924996,143.823261948568,167.805357917836,-11.2214743329691,1073.11920561754,53.834740627148,1009.63247538049,44.7721231610575,349.773556506216,52.0204183370145,3367.92586895181,-516.864668985478,408.100460669692,-12.2219613924178
334.747728908149,-20.2611962925626,196.635104869539,7.83846705909813,953.571853304909,-37.1390349924662,749.572502035514,21.0606066368824,385.995407244954,4.79590735744519,1241.84382475472,-29.0134408599887,1103.64686424282,-51.7691534230808,696.974428954471,-28.9137385166758,940.589818631026,141.43559365081,170.65089764479,-11.7113122117269,1107.97670554167,51.5090046960357,1031.46445964745,34.4288191502196,363.211644314095,49.7024520943975,3404.98206177961,-523.430756106125,413.188869913227,-13.4739442297072
329.858163714486,-19.9126387726783,195.191191686365,6.17060128338988,945.132213391825,-35.5597078519745,743.265362169991,22.1453226961775,376.979610881475,6.16027767047384,1214.59206373569,-25.3232227056971,1077.00508695007,-48.4762095979742,669.259723238075,-25.8719195871825,926.953636464239,140.833197543483,167.873615916518,-11.5019447590487,1069.0353995205,55.7256441246128,1017.39836141198,43.1124962853251,352.335740145499,49.3271806124795,3375.39820601372,-519.269801456632,405.293874314436,-11.1610677234893
332.002985327481,-20.1683767375367,195.163485140731,7.26350467921018,946.50902300526,-34.1725674830024,745.149957229517,21.4789679599364,382.355752805481,5.32083617356356,1226.17557165669,-27.6282132764521,1090.89267048263,-48.5758842198594,684.051461310362,-27.8755196397216,929.831199521698,144.10712850176,169.282214483444,-11.7687288674545,1095.86158100342,51.6929682663346,1015.48298404143,45.2125606222626,358.848817971403,49.5894869983701,3389.11377363288,-525.90464695007,409.669561897557,-11.8924792986301
336.368823968696,-20.8808745587149,198.16228011104,6.61300610481198,958.301439903285,-41.3671810441057,752.119372041996,21.0777412224992,384.171923117187,5.7913454246995,1241.48384284913,-28.8240895884499,1095.08460323535,-47.6847647538737,696.846504559307,-29.7381951474256,941.219809222959,137.589213892304,168.775359737723,-11.6059205347942,1077.69619976025,54.4173873087688,1020.84378067632,39.2653863213223,356.701625648555,48.906575631505,3380.4086477867,-523.18669931043,409.751208802674,-13.8781944541017
330.573640200451,-19.7367883087222,194.147635587707,7.56374932668414,946.219182084525,-29.0315773856854,743.328952642959,22.309834473727,377.636882456025,5.67419806554584,1222.79158722693,-26.3253204759153,1075.96434802421,-39.9065095535268,680.259494208732,-27.8013641582704,927.914080692039,141.102130210947,167.646034561326,-11.1397339782023,1078.09273585206,53.6591347072514,1010.96359926641,40.9990954582687,353.434679807042,49.7613146771688,3373.22772691585,-521.820139015153,411.788977428846,-14.1931232933182
333.130422069582,-20.2995628854813,197.266276764131,5.9921827391087,955.07869821305,-39.5173925336298,747.862984447757,21.9430182329513,381.076628260227,5.60193873283272,1238.96611855449,-28.9308341164082,1098.70164277535,-49.2159853526134,695.283249281198,-27.8065585091055,938.279151028535,143.384084737004,170.491918698945,-11.7929362807005,1110.91706796293,50.1880762795315,1027.0939498675,34.3326663976648,365.154814347615,49.3045444517452,3400.87972897885,-524.645865897144,411.414880034265,-11.8446871883874
332.875312645376,-20.4407580016666,196.203161628656,7.29926026040318,953.673695879416,-35.4455073854309,744.200163238904,22.0926955443242,377.304590776616,5.69827867350639,1216.49167678347,-27.1926121754811,1086.72225933047,-52.2591776420047,667.446162642728,-26.3462511509341,922.712551681374,139.871796578885,167.169397559913,-11.1866070530817,1065.56718403717,54.306786478668,1012.66668404006,39.6564520644437,353.486263122389,49.4740090895608,3366.58878648927,-518.895479242812,407.118919146306,-10.8382702551208
330.227304772868,-20.1617776446249,193.557789126632,8.12268635068241,959.106886558844,-40.0977606552511,743.063937657459,22.1972832025191,377.354540952593,7.11880538912862,1227.47540354517,-29.4441370492588,1072.98185579705,-42.003997835836,677.463641973432,-25.896140650605,929.022636024765,139.492168685655,168.272546683452,-11.5673846311031,1083.9007805244,52.7330953920134,1014.03662142413,47.2118622187837,354.495520812961,51.3281037482873,3375.69710660861,-523.096331900949,408.435862967611,-10.5906103576346
332.976495998185,-20.264097899973,198.850624999372,6.71494881214768,948.599536941309,-33.211614669691,750.044918722529,20.9768436332224,387.955776345354,4.70113724706614,1247.36480152002,-31.0977833118659,1099.68920632216,-42.9460384996861,703.716080039024,-28.3849827702278,946.064863849826,139.359949019992,171.858359319813,-12.1167309674609,1124.64578649464,49.2979736045766,1026.41249674584,44.6306812511751,368.015143808061,50.1007680408038,3405.68214324643,-525.991955570283,415.896438251705,-13.139679155707
327.75706252253,-19.091469109077,195.875222530584,7.04469034697661,949.515055496514,-36.7257583607415,740.665635063853,22.9718806017732,376.088703686456,5.8681868763568,1216.80964712508,-27.3847950869035,1072.40518143495,-40.6231532648041,672.948835882296,-26.4026934669752,927.030252762895,139.640395968209,167.549263232463,-11.3985782671633,1078.73677088653,52.0697675148637,1004.54587413701,53.7392615361236,354.833520701334,50.2916391698344,3359.13759862545,-513.341163966569,408.226633713361,-11.1404858617368
328.743868595994,-19.3857906329876,194.251256808665,8.33925999710887,942.810232192315,-27.2685875039155,742.325431000884,22.1188418174565,378.802036001995,6.46676380262017,1223.14841208923,-24.3669451620095,1077.46545008758,-43.033921321295,683.678942528591,-26.3114385912429,933.839579279432,141.222971148537,169.173343196622,-11.6351879741484,1100.33826671052,51.9032303938098,1026.89358358479,40.5258021213529,362.509100193685,49.9850044100001,3378.44698607352,-519.067079373629,409.818012147949,-10.6644637122398
333.921838450778,-20.5341759335156,197.427995848009,8.22583402991842,960.826149238244,-36.8760644621854,750.699056198401,21.6321675029192,387.411574380806,4.22252871829193,1250.29895094088,-27.458493624825,1118.5743566784,-53.4475335597662,712.240891423271,-32.0365075086993,951.186863885396,139.106491593752,171.062168042588,-11.8662793916759,1126.63213168689,50.3621358570591,1039.62074129385,35.489628162572,368.856340813957,50.9816960789801,3400.50151699534,-526.543374653169,409.568952762837,-10.7566302362508
327.661769771723,-19.3859518893328,194.666671365248,7.98482650800465,948.412812027416,-31.7050010212552,741.678710232139,22.4697421638971,377.776205077455,6.53012018308531,1222.8958760834,-27.1277741645949,1079.86185393879,-44.6223806424595,685.176659656504,-27.3756700121776,936.247042236614,139.325625328359,168.427282312042,-11.484355232378,1097.90416792637,48.8304397648947,1017.32157203741,42.5366339992931,358.094787898645,51.8178074554268,3373.41684906935,-519.778618640789,410.667843726046,-11.7796148458004
329.861159397606,-19.7147243799233,196.893333393059,7.98489312360048,950.698914289861,-35.1213582272131,744.508720486018,22.9509911641754,385.022082012333,4.51891667992943,1234.87178493254,-26.1750564822832,1114.13238648499,-53.8369975744734,698.727001082975,-29.6728015855462,944.567221488505,138.421492591343,169.807481089363,-11.6088961422548,1116.49095465917,51.0314117496117,1028.96108402233,40.8958509775164,367.631340771619,49.7411149705233,3396.46746353746,-523.635801985612,413.488931404836,-11.6748445751327
334.946839155139,-20.6227890639195,198.871619262404,7.08377988013297,963.140623108664,-39.0659434693201,747.035746580844,22.3869203319955,382.882343548348,4.16296271125532,1225.45836391371,-26.4388678668919,1076.76171959064,-39.4345403528459,687.582444708501,-26.5955871099915,936.356724623023,138.012613755489,167.583415675222,-11.2694493541742,1084.42460986609,52.4025105121149,1029.58278717278,40.8506934686606,358.683332917562,51.1727477951871,3377.87253892954,-522.169873029824,409.869840035726,-11.0949088974366
330.443077663179,-20.091489678579,196.365630926499,7.94206699931816,949.448897915043,-32.6358965304033,744.087437014941,22.0718426674648,381.090627521549,5.40564164232515,1223.47809880481,-24.4876206141517,1104.48467564206,-50.1914179437799,692.724121355092,-29.5182392001533,940.407916133161,139.904045288257,168.4774237661,-11.4453996594679,1105.62397393602,50.1827909822864,1033.50315614511,39.1728661917087,365.558838688657,49.0817275191696,3376.62074320075,-515.238488585596,415.372548614184,-14.7315057647252
332.59104916466,-19.9769835782302,198.314555423644,8.77723986624797,970.159296998596,-43.4246129398684,749.515467711136,21.4890544476401,386.527031342064,6.4608977668288,1245.93495240615,-29.5424672622352,1121.13815479854,-56.520853608088,712.4225191837,-32.6127331608283,956.527970604901,137.417564218537,171.00571934779,-11.6091203238128,1137.1317337424,45.9200715105792,1048.06022426612,34.5375941166125,375.879509016887,49.4567112398403,3413.17792512247,-526.875484704171,419.6429688784,-14.2721796233963
328.241259140863,-19.5449766548008,196.88365324518,8.28810035242011,954.571034138956,-34.6905348539277,742.827687160062,22.5630376852412,380.566873598054,5.60913005249084,1221.28114805125,-26.1173467463683,1087.92730550755,-47.0812438158737,683.970888649734,-26.4036843513994,940.258961112316,137.410337593041,168.155663530334,-11.2782016639661,1100.7610791958,50.0201650634339,1026.57954174216,44.6986868522342,364.708297807692,50.5782217289855,3394.34620695923,-525.118187252545,412.617036422731,-10.2439048684679
330.484935471074,-19.6555127615269,196.9357394403,7.92120725447307,958.838102223746,-35.6948250109902,746.771145728023,21.8307393499352,383.959471012596,6.14977602721989,1235.17327085819,-30.025761953423,1107.3248479981,-48.3789982291167,697.986294330848,-28.0938869010345,948.395388384729,138.937752240288,169.829552612816,-11.6729071924782,1123.28651971618,47.6582092205747,1023.45495684834,48.6300066360714,371.101471539889,49.4044232085281,3406.34079850438,-526.473683464737,416.969353722575,-13.0689946114959
336.148008261902,-20.8810339692539,200.492315703868,8.15612330128949,977.310457736075,-37.4801643038853,754.627353310348,21.3195374836156,391.951951943442,4.89914173725919,1259.5706399767,-30.6144223409767,1131.96088015237,-54.22436287451,725.926473469875,-34.9629490102659,968.472297723715,136.750943935879,171.114272558568,-11.731248764933,1137.58702745869,47.8870043835609,1053.19019409903,38.9061093097334,375.436760572282,48.4809389072078,3414.95474642724,-529.002432204313,416.668715969948,-14.4008211204056
329.306034865492,-19.2255560254292,200.042614217928,7.10105869682602,962.871767445924,-39.1631877376849,745.348758049383,22.0807374033782,382.739738298061,6.27134022964391,1226.36908092756,-25.5842821998691,1102.31926390477,-48.9909869334702,696.359096211075,-29.7694930496845,946.720698334066,139.287825373295,168.742173329543,-11.329434533186,1109.50506405178,50.3945766076578,1026.14407455652,54.2349078253419,366.21291421693,50.11160123214,3391.52006773478,-519.5709755587,414.692796186843,-12.4924126139024
332.29240413496,-19.6333828871051,201.420626572476,6.21462671498101,971.897446217719,-42.4089485214903,749.142327142509,22.4535248038238,384.490157375167,6.33278814746754,1238.20972457587,-26.8519732096334,1107.86641980937,-47.9329937807086,707.8103057481,-30.6934379399106,954.867751247481,138.877867461143,170.61293817632,-11.6204418280911,1130.09041910394,47.8485968850913,1040.21161069327,42.162944396311,373.787181357687,48.8755619931344,3419.236322755,-528.2244882209,418.931355353344,-12.1334752114898
331.916853648647,-19.7577313297312,197.996543028194,7.80903021641283,973.245092965872,-37.1188044551618,746.133525311929,22.5350005163728,377.144172395112,6.28632124770952,1216.00144876088,-23.6196242116973,1090.83600460924,-45.3735071166532,682.184184235442,-27.6029902509717,936.075305364416,140.817322699801,167.482130611778,-11.0141654576511,1089.9185722316,55.0485476552153,1034.75001506464,39.5263300483909,364.573996701563,48.93941802659,3385.22242763682,-520.754684081612,416.0925507309,-14.7101132283604
331.691301076147,-19.6737127466617,198.591611386131,8.02765331203793,972.075387741384,-39.0603425767434,746.072410424289,23.0211822230655,382.228319635017,5.70102986892029,1227.70146223428,-25.1154713338575,1109.99476916923,-55.7634064022515,694.153985014948,-28.3789554992622,947.67571425433,140.033615262508,169.131836390598,-11.3169330553181,1116.66622550548,47.6090159326808,1031.62410968249,43.9464495676971,367.426466636491,50.9256943414915,3385.14585345714,-521.369628251806,415.270049590535,-13.406261275555
335.942854304962,-20.5146818704056,201.261055710145,7.21063636714643,966.77787660158,-30.7462137419823,755.256572770027,21.466068647232,390.279499308523,4.10280159634998,1253.99966575587,-29.1740278101943,1134.38996839295,-63.7967221423871,717.237302570035,-31.5579053292816,960.964117476585,139.377009842715,171.902701384903,-11.8830139744561,1141.53402128814,49.6730179406994,1047.83092150767,40.5002258645381,376.316259103215,50.5439246668076,3406.74522416883,-525.942677772219,415.539071757206,-12.8486382947799
330.283442942649,-19.3115268002992,198.634026306388,6.92638693993549,958.67555256863,-37.0020782960232,747.445672011666,22.5898756191272,378.719454235654,6.16566211719457,1225.64336222952,-28.3860378489751,1102.82056147559,-51.946075753989,693.643086949112,-28.652659134156,945.438657833114,140.01451323879,168.716348469848,-11.2863200232145,1112.79207837329,49.2020807314483,1037.53269639156,41.606971653045,367.005625709421,50.0879751273981,3379.91277148955,-519.898214688415,413.739171197994,-13.2675485674121
333.36212995619,-20.1752365925301,198.341688164288,8.77229535763411,957.507015686834,-33.8719425735373,750.816897868329,22.4425080484417,384.134424702732,4.65517233128149,1240.59360037478,-27.9988592011295,1114.96155717062,-56.1220142227303,705.434722861049,-30.6256443212723,954.581217013282,137.431121624533,171.042769179452,-11.9154655973761,1130.38451064203,46.3067868594502,1032.69678335921,46.6391992822415,372.043015519572,49.720107719716,3392.5909638171,-525.209844554145,418.071677351321,-12.8816270678034
331.410837590299,-19.6514335297349,197.925541697168,8.1598034730843,955.996309745654,-32.2431122747947,747.353111660493,22.4458620151325,374.600037954898,8.02220222246764,1217.02020502749,-26.1055361312089,1098.84628467243,-56.8857036935957,681.152646020567,-27.0944902986067,934.032832407053,140.923973580956,168.351785698926,-11.4191027935573,1092.75011444434,51.6564975222755,1027.73837461513,43.0253452053309,359.801708753199,50.8150281632716,3363.90534589305,-517.140210408596,413.610432342255,-11.8685279022529
331.942698110804,-19.7389138385087,196.822852506572,8.4676477364921,956.568801939127,-37.443785998337,749.105106228297,22.2190984178802,378.714963247292,6.71071012002875,1223.4059395595,-26.4136721729594,1097.06150668483,-56.3414068757826,691.922500662175,-28.0141095454105,943.384036571927,140.066336482008,169.102260278745,-11.3957432765781,1108.33824650531,50.7166932699055,1032.13545882644,43.6523289676156,365.516443549153,49.072237515766,3368.00985653061,-518.722693107981,410.299516509939,-9.85944138659359
336.104718933944,-20.6384764033589,200.197525758902,7.0618343463924,965.222844311671,-39.3042301194522,755.033739695897,21.6964876769133,384.925618863359,5.14757262440752,1244.97320558979,-28.858576627476,1113.9332852171,-50.3350169789333,707.950966055806,-30.5925961130704,950.219021585756,139.220745825673,169.299778094995,-11.3759429774326,1110.80176314518,50.1206421369346,1027.26572117728,40.2539217808155,363.044328165196,51.9695827069586,3352.06519800529,-515.013455443594,406.759920671079,-10.6301123477553
330.108182831293,-19.0861124115658,198.155033956551,6.61944742507938,949.267240242481,-28.9586095537814,747.896578087723,22.6160753436315,377.034007050041,4.83249985340999,1218.14226026536,-24.8276027695402,1094.92709955698,-55.2078768855133,682.741034972425,-26.3318434990014,937.392549375138,140.96451430857,167.779969890002,-10.9859583500819,1096.36640388989,52.0693709348146,996.631550874956,57.4243524341788,358.536824630381,50.6956876828218,3337.92538833954,-509.332884083543,411.212968922217,-12.8774899350035
332.875856184974,-20.0228224982131,196.43813578965,7.60010807357824,963.036903289441,-36.0380017477714,751.686807244074,22.3953671454114,380.864434886141,6.05573282195824,1230.71102819712,-26.9876445510958,1100.89294705425,-51.8664590801586,695.992231677499,-26.853011187212,942.774539496865,142.666403641499,170.003561727314,-11.3110607066635,1120.43686060741,48.9028782177202,1022.23430069069,48.9541620434255,364.869010443209,51.1820848546207,3357.54141832931,-514.978778589787,413.538639058419,-11.776798424592
328.116044749985,-18.9134775098816,195.734414145684,8.015825645021,955.040682942077,-35.9298812742554,745.200316738984,23.2007698531876,370.646568167141,6.57025638959867,1203.4926069497,-22.3549031739674,1067.75856947382,-36.0373913675625,669.298346439111,-26.131471468451,929.459009070451,139.56711713046,166.815501297178,-10.9396959014671,1074.68075792346,54.3342082985754,1010.53616598292,44.8756434370259,352.741129018655,50.5361548865455,3310.53836186268,-504.768432703433,404.633494688987,-10.7326076440959
329.840363383318,-19.0644753674103,194.354053577788,8.53358833961347,948.638473684927,-37.3512279572965,747.003327271797,22.9661087088181,374.944145509699,6.09522485739349,1212.84273953857,-22.9975071137645,1078.22952429287,-48.7129365309691,677.25520745303,-25.5721745475967,935.721931027637,140.969863721881,168.306775495605,-11.3165439258025,1091.77648423021,53.9880635913109,1008.57119943684,49.1254258733366,355.959873292342,51.2616161722122,3318.7203872852,-505.757826303717,406.963476704735,-11.946191128394
335.212140181722,-20.1355965611059,199.607320914984,7.22581565965216,961.420144493149,-37.7923640719417,752.307464469583,22.7561904183574,377.479544224323,6.14975447788872,1223.35354956925,-24.8559512391992,1079.12296290271,-41.4005530125899,685.69628985381,-27.2996412781529,931.189837514975,142.95599782991,167.179976019787,-11.0372650515515,1076.27209644765,52.5999431836222,1010.41442440862,40.9969824169753,350.427707976269,51.1912859638587,3303.91293149306,-506.125472618201,400.798364877511,-11.2334926754105
328.868582575376,-19.0394999309675,192.814450245231,8.72130315826959,940.699501092113,-31.3258752945908,745.280610235467,24.1646870945738,370.764117144258,7.81611057613509,1206.10650107687,-20.963753178412,1063.44774441956,-43.8411666047671,670.274788897928,-25.4430925146664,926.558746557998,142.732773141096,167.17589657321,-11.2196018464382,1075.36914524159,55.6021014437374,1019.54162350779,33.8450560811416,348.473138373835,50.9593223021234,3288.49385667168,-497.98357403187,401.390359869546,-10.5991667140683
332.116084399937,-19.6628755148206,195.884712257556,7.61988678778464,940.841162138375,-35.4688614493712,750.733148971555,23.1864478787658,375.128025975638,6.96018076240591,1227.23659700316,-26.5452177099192,1078.92420632775,-40.2780814697729,688.101227805447,-27.6237859327623,935.998665406046,143.443651801193,169.525531984548,-11.3221273218801,1104.96062683753,53.0546160419637,1015.98042267876,43.5249115777608,355.903232620656,53.7292062545157,3321.61715577656,-511.859511826167,407.241704395728,-12.1398639855469
328.448133533528,-19.0752297057711,195.228826942152,6.54468365426374,949.745397015563,-34.1273168620154,745.265543084778,23.8818632707467,367.972981703525,7.90172202836325,1201.65114450475,-22.292904713768,1043.45690962516,-38.7781773884772,663.286435956053,-24.9723727727421,921.973410347484,144.04979527731,166.764270874491,-10.9356769100787,1069.95690270927,54.4494426731101,996.053986374185,53.7193478300305,345.58357736003,50.1621608832988,3282.76415775318,-497.13733543963,398.952678696525,-9.80294843436829
330.333099929621,-19.2926334632202,194.474130853918,8.25645250638711,947.540084733102,-34.4761528166455,749.380172145647,22.8900837533813,370.75500443236,6.86165067854762,1215.58570007675,-26.4115726030669,1072.57707059652,-52.5065131757051,671.645129214575,-23.0562212529132,926.083208306582,144.390773766272,167.854050806648,-11.1397422004301,1089.95995192392,52.2636359917127,1013.96873371511,35.6284206469603,348.590245944829,52.650105428887,3290.39345606071,-499.276375328461,403.738985229606,-11.5440510511268
334.052851650034,-19.5328559164202,196.805566421075,8.14649530843732,962.396727329594,-37.9271096156511,750.238140976638,22.8909659148249,367.921726442331,8.23500706267306,1203.30305121597,-21.3081087250583,1059.55422564806,-48.4110463889407,660.653941442573,-24.0343190351485,917.824216289832,143.021183702325,165.905067937018,-10.6688636043743,1054.76865148164,56.6251404468147,1003.55583703506,37.0650548004788,342.332254135547,49.6668292912289,3279.24102633331,-498.484807695472,396.193750298325,-9.52898558584541
330.126214713819,-19.3501818423932,194.775009051961,7.31135778855834,946.690864023316,-33.6142300665539,747.198024659766,23.7311041036044,368.999668859955,6.8235152889522,1204.54995847219,-22.7323861705413,1051.06854985192,-44.7289605401919,660.897718593884,-22.7849778974625,920.734341085001,143.540394294616,166.939650745112,-11.0059205767749,1065.32093026906,56.9394497820118,1001.1366722213,43.845769940794,344.504624144592,49.1408638150014,3290.05538092896,-501.623432172138,395.942024762958,-8.8929380627343
333.198405731117,-19.7648281191257,197.875280497474,7.07547309659834,962.800041896493,-37.821607946861,753.441055488491,22.8291716388665,375.125467392764,5.51689314295234,1225.43227993922,-25.8831055159771,1073.4678815027,-44.2026640064168,682.981173411421,-27.5527787701139,932.040803895525,143.65049300307,169.708252754117,-11.4119868748982,1099.60690410044,51.9169256552996,1005.51105895293,46.5723985146646,351.976010417435,51.1798251357862,3314.02786918227,-506.605427571957,399.041541341581,-9.3124645677287
328.611563288741,-19.1565195160146,194.781362407921,8.82201166441293,944.629375775675,-33.5037284637965,745.756090584082,24.1671993090583,363.985655288255,8.6664748902808,1201.62666718442,-23.816514050939,1040.8381535954,-42.0723185243169,657.244023533764,-23.7985135548026,917.047359454046,142.710616264565,166.41527900955,-10.9092471461189,1063.69300697948,54.5506457439588,995.664376629832,42.7798789224839,341.473436121784,51.1846810501893,3288.9908903694,-499.632285708649,394.039333169718,-8.66760043471059
330.660661594809,-19.5285766663518,194.459813295322,8.60616580470023,950.386965616268,-33.0136126602191,749.54061711618,23.1046967847483,369.466029818664,6.85664892485988,1217.07435163508,-27.2679546638,1056.60902317621,-45.7298344877966,670.822837945279,-25.8895250059367,926.576261093072,140.591106658404,168.078794704586,-11.1601121825017,1080.52824143997,54.9854075881852,990.032129207539,51.5730330102954,347.206226603698,50.7252622883719,3309.94906102774,-503.497860972778,397.252223556106,-9.27904503033548
329.618558599573,-19.1404987568478,192.586183672026,8.55307272164644,951.951817786488,-29.4352116000727,745.666419121349,23.9838664482022,363.620552200857,7.43669130986717,1198.2322267341,-21.7771549909123,1038.89266526618,-42.2052480242006,645.771995391847,-20.9388451571195,912.736147416124,142.632305728461,165.351327521307,-10.6971158502961,1037.20289071067,60.9841587379334,975.127965528857,50.7396740207875,335.435837153394,52.8300463887752,3278.07131940117,-495.177147942198,391.78129595319,-9.27680206419418
329.5670249277,-19.2814916733495,193.502457918166,8.16148948209337,944.311620850387,-35.2978634160581,747.055913980204,23.1928472908283,364.706590309695,7.66474614996834,1205.50417118938,-23.7472436384803,1033.7132671675,-32.0587303674124,657.130173603241,-23.306623326649,913.141911153054,144.246516424021,166.453753900955,-10.9061673345059,1055.1426644949,58.9310220181047,993.938696370728,38.3460406742205,340.859147841198,51.6015616755554,3297.92319569826,-503.560435203995,394.487981481972,-9.05298108572189
333.962994832165,-19.8352088788853,195.385497986811,8.6846077080577,948.3693422603,-33.0157615298941,754.826267485607,22.7314174178748,373.237747579465,7.17146560514506,1228.31817537712,-25.5810171762613,1060.8574879729,-42.6999545833126,684.921138746947,-28.5416542964087,931.515355455427,141.293981723863,170.263582882198,-11.7458165389871,1097.10212306887,53.3832100260509,1002.51591802304,41.1987645290053,351.332416164353,51.7104709240808,3343.33171759939,-513.466973082696,402.271243725426,-11.9027183283826
328.703914438552,-18.7575575583112,192.327701855165,8.6881514764896,942.230054548534,-35.5336091673636,746.567450934745,23.4600207667365,363.737107134264,6.83529161362565,1207.93816860066,-25.3966689531427,1031.39130625223,-37.7932281012327,654.013645516865,-24.4149510285088,908.084342149625,143.181270133883,166.531920610395,-11.0727894384606,1049.37873590351,58.853485592712,986.467781042665,46.0101937160537,337.687959548643,51.2818865729594,3304.03229960272,-504.679926570642,392.93195288778,-9.53320857237738
331.236296517798,-19.4181395619604,194.188388149758,8.6858729512114,941.016603220122,-31.1142589167381,749.696223112625,23.0275072308182,368.635985084622,5.78204881234823,1221.56570915585,-24.7444332899151,1042.30802645094,-44.5626741770917,668.30587407547,-23.9995884398775,918.77706911004,143.301162202717,168.347125246241,-11.4402574110818,1075.81484193999,56.115040272376,994.061764907464,41.1428393416657,346.526092731051,50.769803877539,3317.65576590751,-503.470740889894,396.693610289925,-9.14400488758566
336.756221342863,-20.5773959900441,198.108743576575,7.42976406458086,967.059031976897,-45.966769301003,757.616374246301,22.0442925474981,372.957924450165,5.30285460353762,1238.97577852163,-29.3384596244912,1056.04956355113,-34.1070981216777,678.287940932343,-24.187221737232,919.317347620474,141.240488445977,167.224680151517,-10.9230871691124,1063.93046753076,58.0443572078732,990.142861653392,51.7658646926831,341.390008503309,51.321453517886,3316.42542626973,-509.309488731338,394.821589233476,-11.052092713947
331.428235377973,-19.6550105344289,193.238397656929,8.85743711321426,926.416905994972,-20.794609761602,750.906186841596,22.6819199507554,367.718289531219,6.66685434503212,1222.83381573934,-26.3785052324814,1043.53569595117,-32.9626452366355,669.808776884461,-26.0144203116686,913.616011669466,144.07417081339,167.496565867012,-11.0232362529197,1065.31210270785,55.6972043549937,987.975135863665,50.7447156156635,343.912238500928,51.4510190391304,3319.57748984218,-507.826920571574,397.759511959603,-10.7125654343731
334.831823538435,-20.5552768548585,196.402930448747,7.73442120223655,950.876744862194,-38.5404806759913,755.450961987318,22.4102214954984,372.728598988384,7.32943432410038,1236.06990838298,-25.7444911419719,1065.08383178673,-37.055097152213,685.755660362235,-25.7807824631525,927.135812988046,142.407806117521,170.415848848886,-11.6057262217372,1100.73482751549,54.9996173072043,996.250898905065,48.5334818516012,351.36944048262,52.694609178583,3349.57718353005,-514.527712616063,400.682901222389,-9.57970300495653
