330.513132651561,-18.1859848622054,198.282733688248,8.59575133996652,924.733770276691,-31.0018765322537,746.745024149424,24.6392974344485,368.472364730328,9.16420017706208,1238.61369912006,-17.6055018255677,1084.00080236049,-40.4456521624398,653.738304263637,-21.6155409101262,925.131483891873,149.595505117052,167.820973079539,-10.958311193006,1081.46293383947,52.0518327760973,1019.86979579331,43.719198059083,342.626560306273,50.8257213259063,3474.71639545691,-533.003502750583,400.674908329682,-10.0704154160256
333.706787552612,-19.0527771508582,199.884087879077,8.79230088208352,933.32684465052,-29.4609624160951,752.250263342715,24.678836697157,376.26553478126,7.75953049829832,1263.39030065151,-21.708459929022,1119.06870466861,-48.6709282424847,676.267022482748,-25.5928599814698,939.533319640813,147.487573719485,170.833310772155,-11.1709036047878,1116.44694910892,52.1888587217543,1022.14330653351,45.7532252729012,357.078415893552,49.8054452435779,3503.334565286,-533.999523727615,407.786929989911,-11.0873702218261
328.894001495294,-18.0733895069168,198.374239766436,8.19742972896868,948.363498780417,-45.7234516795265,746.552458885372,24.5520284483957,367.68815176414,7.2106519094444,1235.73376828227,-20.7375516757878,1084.77574180149,-47.0663809135672,649.656003935189,-24.5840403567749,923.285829101876,145.532977845191,167.540567441258,-10.9286371728772,1072.30059921168,54.0296334501609,1035.10787087265,35.4757157103887,343.829929924766,50.0374082255622,3473.41790246702,-530.310226358367,400.170128285058,-9.73573932102273
330.255569738073,-18.2668511438169,199.672173694489,7.281573139956,924.374800051868,-28.3545267930541,747.872110478447,25.0639677298436,369.274620982287,7.6709390814173,1247.35808526961,-21.2069603419441,1103.32524463066,-50.5019404823878,662.463499461301,-24.5109415621699,928.962178084421,148.112412988892,169.459504025201,-11.0666217608075,1097.66490534367,50.0126558567543,1026.65439094738,37.8286871767861,348.450451286157,49.8867522973075,3488.50104883947,-534.164713589159,405.871589294115,-11.9950448933226
335.532693340751,-19.2579202242536,202.920322422993,7.21952864285678,942.108531460705,-35.7632495124871,756.292328830715,24.1653969287941,377.91198773638,7.09234030919347,1268.01222228219,-19.3548147123813,1131.21656581608,-61.3725065759204,684.857243494671,-26.3316691803046,944.484249569427,145.06335473213,170.860806566407,-11.2397736560397,1110.7944795825,50.739596453078,1020.97741472364,45.6130640193547,352.022409494124,49.2006141525499,3487.00632993327,-535.41800692406,403.756400871534,-10.7062260187334
328.389240598613,-17.7440636100553,200.055049156342,6.89569459719384,919.690082685523,-30.2043523817389,747.167135043464,24.9586195655277,369.938686691536,7.95701203240112,1240.21267417765,-17.4649749614718,1097.68461986405,-49.5060751421459,657.077296427788,-24.6883481626477,927.395031159423,147.104310705347,168.452433569919,-10.8138758478654,1087.74943551387,51.6063226073823,1010.66364203133,49.0154862762387,344.295180936379,51.0076424003934,3467.84661930848,-527.993584778934,403.07048851969,-11.6007770349104
331.230385504536,-18.5357883013022,199.325659811826,8.27993699634185,934.355114310082,-32.9107743733276,751.720351122951,24.1909601543605,373.037801344459,7.77040598396711,1259.67407142185,-22.0951051321747,1108.62271748573,-50.0723498812965,674.568809750415,-26.4422755478299,934.475720597712,147.591936026695,170.858359242116,-11.0284405875157,1112.43669086997,54.7037861807834,1038.78800539739,33.7168533831564,354.559478029616,48.4790743502752,3492.5142949409,-530.733938656495,406.831987729603,-10.5603045885216
335.49215047851,-18.9950205311812,203.90068040104,6.80585984086166,944.428877127926,-38.4851233268384,751.723175621731,24.8369242612074,372.789808859212,6.47002602503034,1251.12466765016,-19.2201700648724,1101.20388615865,-49.1097676413776,658.06714142386,-23.2526888140226,923.556750669236,146.344558462544,168.780556705874,-10.8263279923665,1082.07401966021,53.5280892161488,1022.66953255885,42.5881233413702,346.190909232248,48.9180314747369,3471.72557218778,-529.847041246322,403.297375852448,-10.1363382191008
330.832446036234,-18.6146475203277,202.23482924409,6.61747728016151,947.805520218539,-43.0966770133469,749.455059403597,24.8373234360536,370.171882613296,9.28827410694806,1251.97138860203,-17.9274358044887,1108.27705018255,-51.810188682789,668.970084923313,-27.2674771697429,930.464517576993,146.187758862754,170.399614117148,-11.1878558249038,1102.3850902826,51.1288413704306,1026.07550352528,39.6168327484966,348.808573253613,49.5850368953009,3474.64218221215,-532.158347518422,402.645631221862,-9.66826397136533
333.6951581108,-18.8637607187876,204.720273053805,7.27948154619675,928.39083963089,-32.9409602013945,756.637502512613,23.4651298626787,377.969072076262,8.14739864162179,1276.12099620079,-23.5909383569783,1134.32477559751,-56.789799531492,688.708867903236,-26.6680500069223,948.481826201947,144.408993842352,173.817768138738,-11.6805711477903,1143.39009624846,48.5548294236412,1030.87860882942,46.5254095922586,363.778499770831,48.2248019411933,3506.52117123626,-538.407191784471,410.777864751135,-11.0394892664323
330.574105189247,-18.4351005776737,204.23885947177,6.95442100318586,935.66794006662,-31.0305300720957,750.723742594833,24.7710666119487,373.603209751834,7.1136102686746,1257.60798822805,-20.5491509834487,1110.11339576186,-62.7670522302369,664.843269756663,-24.0766575063453,927.502753163311,146.819120696184,170.173799960343,-10.7943752405332,1102.18856947564,53.77524996466,1016.5917984732,47.9297057151625,351.640432930433,48.836751157879,3483.82315656417,-532.717615751926,405.363337318586,-10.3658090910794
332.54524107971,-18.8719336132204,203.162997668615,7.63267834168837,938.812512243867,-37.4751964488176,752.211222841173,24.9521684125371,378.48297872888,6.10368412430514,1270.10762222794,-21.9735079645734,1133.87239520005,-63.4443792503188,681.463109301122,-27.4271871516185,939.339191766523,145.911613467151,172.276544054093,-11.4070292071362,1129.54116389592,48.0355272670827,1024.56290145866,44.9278326823705,359.037307216754,49.3487169361313,3492.52166213158,-532.843127511683,408.983518072838,-11.4260766559623
337.34717008794,-19.541658230781,208.4170136065,5.87530635595397,948.833516195093,-36.6300876249013,761.691070432834,23.4579006715171,385.955710090671,6.56608640161303,1296.75047182363,-23.9404399879161,1151.35186050349,-61.6999056369214,708.368755018317,-30.8293811259607,962.093653195488,142.152122120929,175.711552004939,-11.8559428767278,1166.03541824828,47.7894285581155,1054.19060955411,32.7424938810944,371.225027464307,48.3044805381634,3529.75954975419,-543.390673966139,415.669010040436,-12.042674270359
331.719901098812,-18.6133913652806,203.510003786151,7.67820149126768,934.831679294829,-33.6534892239445,753.60870708943,24.3461059687009,379.380082818886,6.46008427957728,1269.37432976126,-22.7533140931272,1121.62752104818,-56.722473679947,684.36039972561,-27.7931561719526,942.597827246954,144.603371680915,172.591085311447,-11.5042105701095,1131.32480195227,48.783156731823,1036.88629924153,41.5505759057407,359.070377899407,51.7054869899102,3508.53501534691,-539.222044660717,412.199579034558,-12.5575917501562
334.150555030504,-18.9080063723835,203.469577771939,8.19054430472902,943.316078475975,-40.8665733572607,756.786744195305,24.3862686882125,384.806700391613,4.78023637597271,1289.10074956395,-27.6380019331111,1135.13434453185,-48.1806429670601,698.187954595808,-28.6062122444912,951.778129544135,145.026574843051,174.010342120705,-11.5529281088251,1153.10143489102,46.3181490149252,1051.36486783267,36.032526879444,369.017482059655,48.424305454477,3528.03956670115,-543.721338292866,416.667207977564,-13.0759152598926
339.623905948965,-19.8512581641485,208.418892991067,7.25457275135948,959.764163738492,-37.3571363073799,762.308657090826,23.9239220173263,387.895328243383,5.3851936359043,1297.19127225073,-24.6861745015068,1147.34727588297,-57.647416960335,705.813724743709,-30.13807319478,952.278576742115,144.173728483673,173.099435056186,-11.5989635232723,1130.37222243102,48.689175484185,1050.32143833082,38.0602522558953,362.890119681595,48.9073582514643,3515.12104581713,-543.745837533938,412.054470911407,-9.99075422097848
333.938683671184,-18.9435559293777,206.445616097919,6.80205300880128,958.117974184777,-44.5599985201175,755.154038679336,24.1865664515813,381.137116193828,7.75834182179877,1282.2928019688,-24.5593115185406,1144.06086446121,-59.7426143168399,691.099001287348,-26.8312184640454,951.052588941785,145.341918267803,173.031796248309,-11.4188193783991,1135.53090696743,50.1143505406593,1047.22917274937,40.7433710098522,364.319345082068,49.2816454539662,3513.79557003218,-536.38292741082,416.800669111637,-13.2260016431033
336.302252026758,-19.3348587979854,209.972548747617,5.7503132929548,942.922924383981,-35.7965555343172,758.073595696035,25.0208713852306,388.79054695162,6.22413449567443,1303.08531484681,-26.6913629546297,1158.3371241267,-57.7236518727612,709.860698637879,-29.5280302926929,963.334328701632,145.760799138193,175.660073710609,-11.8698038747924,1176.56809787149,44.9304667642263,1070.4855788202,30.2588354767214,375.749858368162,48.657577636845,3557.18010160031,-552.492728494384,420.72436426896,-13.0602345394124
331.834439202085,-18.4757281154367,206.155381209573,6.76806817890595,947.45065473474,-33.9227397196151,752.067044782273,24.7532794919824,380.903627135747,6.9679342887218,1274.05562510327,-22.0296738110592,1143.34624363635,-66.595420373014,685.395343469796,-26.7783206281719,947.621654015603,145.033928255201,172.239614377705,-11.414569157829,1132.95680948637,45.643280795412,1052.38588046605,29.9009307754675,362.930097626621,49.9178971276168,3532.43383571202,-546.238594644209,415.86187943828,-13.1871122956416
333.815810205613,-18.7638910229248,207.924860471091,6.0315052002668,952.453553038327,-40.0404619077489,753.101234576649,24.7081631131184,387.277057725846,4.05891330495183,1289.46755313888,-25.7759455639557,1140.54432688481,-58.7189508422652,699.40070456897,-29.254921765668,957.426448862383,143.461899244376,173.518940991726,-11.5058150791344,1151.40196378151,48.9351259325231,1057.34315536267,33.1930536933061,368.087336611133,50.9148783705135,3535.66317890792,-544.35772384799,416.741217753481,-12.1475375741647
338.383470871802,-19.3732260621064,211.288120151637,5.13021340887575,962.214691934236,-35.2057092775282,761.262848306597,23.9055819963678,393.201646724893,5.52954721806144,1314.42065281971,-27.3123560771121,1174.83744078413,-60.6233188898925,722.480333255675,-31.6990470990711,976.834847206849,143.396806163542,175.731773520424,-11.9856699987395,1175.36467003321,46.6540203342921,1050.32600081692,44.3161813843447,377.179217561754,49.9873776472478,3546.57793052567,-543.463600926866,415.397434356427,-11.3172820289999
332.515366484207,-18.4270523590624,206.71249203272,6.13797165036099,954.635447324017,-43.4307383432866,752.975970041997,24.766378712818,384.631539008253,7.05822310024176,1284.26071805756,-21.9941927903192,1139.17593432402,-56.4433995767692,700.958694976057,-30.3947493947662,958.24191126376,143.948136112884,172.870697289961,-11.410841300425,1149.53084722069,48.1100779198704,1055.21620630392,42.5683706546895,366.098045396719,50.451095834001,3543.61814197383,-547.313095929902,417.218751945744,-13.3628931752168
334.487476272382,-18.3895855127858,207.601573430104,6.08347057644813,951.588290799781,-38.6265214927665,756.135421023967,24.4411904005635,388.686401666185,7.4749708106148,1293.38679988163,-22.1299062514629,1157.73951320427,-54.5410705920814,710.218131856543,-29.6892645049391,964.799995130899,144.987268628324,174.7848627601,-11.7163348183085,1174.81170619406,42.8886442264795,1053.95434604936,39.670756754083,376.210795988223,49.1534217611523,3561.90621086416,-547.072357643735,423.02997489307,-14.1516729918507
332.899385734268,-18.226463225264,207.119656583102,6.76784725983813,954.764030923525,-37.9736427677149,751.102612205519,25.0873413734069,384.698943819236,5.71311096270597,1275.50739976896,-20.7385946189584,1131.83755021102,-47.4953735007086,687.534970931637,-28.2629061939744,956.439782541749,140.986461228112,171.802165732217,-11.2927256420721,1129.51864083107,50.4865562225824,1061.60221202137,33.2685934614138,364.051562563388,49.8531390646135,3538.90842629013,-546.907589244409,416.738427991801,-11.2414360900432
334.320445493501,-18.8523606838437,206.020257622887,7.18605362619495,943.665327506848,-34.3830898453904,752.684209366851,24.9014779107945,388.094224541102,4.74581516752775,1287.84486124143,-21.8888266663424,1133.97213817555,-48.3673492509064,699.112709129039,-28.2751389026972,958.387839641287,146.137351225672,173.091326788464,-11.3812119152471,1156.3088077375,46.3840941547798,1063.66591468379,34.4298033891896,373.054830714288,48.7829640490767,3555.65350479112,-552.979805693072,420.037512755065,-12.7369422903027
338.49897866435,-19.344507498408,210.442508058911,6.12301599592703,955.116539516399,-31.1813425618859,759.713725876971,25.1245401074378,393.275634479434,5.00684991214733,1313.7240191384,-26.6882664097462,1167.57146648364,-56.1638166165299,720.758982510063,-32.1732605263108,973.373481837308,142.979013135475,174.16283911857,-11.7032453672526,1168.50674862994,44.2992746639624,1059.49882842235,40.4911008756876,376.41563794847,46.9468861900217,3550.95612891776,-548.074983913516,417.604432672001,-12.8367904797635
333.161862049729,-18.4651714461443,206.490703454614,6.90543996038156,945.552695102748,-34.5873697372067,751.167509752681,25.8011662731299,382.551651849057,8.25488612827015,1281.35426129224,-20.0555553576527,1139.83865330222,-47.7653048536069,698.401981721773,-29.6188353261372,957.554128727702,146.545391730207,172.282734817748,-11.2301685837646,1140.77734910838,50.029860257723,1052.62825734671,37.8145260089775,368.786873218658,49.7252683891409,3544.56019746027,-548.212450270256,419.482292536064,-13.0798896594863
335.392228777896,-18.700964132167,207.629452324333,6.81059272033773,956.022463381003,-41.1906335694383,755.630037861176,24.975112520875,389.069669215861,4.79989898623449,1294.76512272811,-23.7305118624028,1141.89360951963,-56.3163734602156,711.873355096993,-31.758903637269,965.944228754137,144.593338430777,174.159093105145,-11.6292644463207,1168.61913638212,48.2816798890059,1070.29480260373,31.4439096062653,378.74441099449,48.0370148423499,3572.70127632534,-557.013970199252,420.155566494633,-11.2310797966567
331.885688274128,-18.0342179746766,206.618538357059,6.42949192061614,957.387842532557,-44.9837576614053,749.579289277903,26.0705855618844,380.988462989066,7.22474267076615,1272.75144890536,-19.6943093912569,1125.55002471558,-53.7608826069262,685.535078707044,-28.1285863267373,954.331487242966,143.653113189326,170.838695562837,-11.0613568502067,1127.26723496194,49.3663306638777,1049.22923678635,41.0194980551264,367.500494522493,46.1548700329332,3532.46178338496,-544.313565804996,415.382632072187,-10.9256244830109
332.746895502122,-18.0667273209917,203.729577200834,8.14105526136048,950.124090989399,-43.4059076084344,751.568272540761,25.8043695069517,383.335560061525,6.41215875946585,1281.95445050359,-22.1207669220711,1131.73206991491,-51.7013554890181,695.805809340962,-28.2949833354407,954.574482978527,146.321178618622,171.761649469722,-10.9697006565141,1142.94863318828,49.8166562190308,1046.08927375541,46.2925571910679,371.228757760939,47.4317747678169,3539.80929015574,-547.926729057106,418.948688575689,-13.7160625230633
337.790026700724,-18.9904954532818,210.597147423062,5.76206528102953,954.42834982995,-38.7430041438933,759.543637111549,24.820182436272,389.435809695758,5.64660164572442,1303.28713234666,-22.866041967668,1155.8548028651,-57.6008159161622,716.060155859246,-30.2353622680487,973.829512561518,143.062017343458,174.130416666101,-11.5719078631963,1170.87165444354,44.6355466753836,1061.36197041226,42.0510319468777,374.993758725576,49.1587093174264,3543.51581479162,-548.046484358353,416.120591576854,-11.4669433315374
331.881297070877,-18.0616216531293,203.852681077256,7.23824286703169,951.303847762179,-43.7131755581093,750.754710455391,26.055712183109,380.843294584368,7.72457729074019,1277.14571789708,-22.0686952368756,1121.74027485733,-52.4501989482106,686.137444671447,-26.3189037028496,952.775925868642,144.329467822048,170.961609948254,-11.0878257116988,1127.32239980875,52.0159192087316,1033.14072387793,42.2520960331451,362.056188425143,50.5629477245102,3514.42697170792,-542.625362651766,414.404398466173,-11.1059912082711
333.536124263966,-17.9709707526357,203.944558807026,7.50283752129789,937.215624126282,-32.1812383262901,754.173975826722,26.0287664912568,380.879194100019,7.83541358193295,1282.89043405369,-20.7430473320524,1111.62062692303,-37.4348246788003,696.66794289159,-27.3034712869584,956.595276350178,147.207499006623,172.797799102189,-11.346572172929,1152.72406539876,47.0273045037796,1049.91461446144,40.5380054347531,367.149180347184,50.3878701562857,3527.63410004679,-544.238821424532,417.77487183408,-12.3233367013972
332.649334517213,-17.9467541103584,203.084659590422,7.36999741300888,943.049881741583,-40.0194112754551,751.249682830314,26.6449265406822,379.14039904384,7.0472473717021,1269.84668772874,-21.9967633737019,1111.25538581294,-46.6856523496849,673.159702556415,-24.1838325276918,944.485348414181,145.67591750422,169.936696443136,-10.7277010275055,1107.85998684294,53.9904947001145,1024.7736021339,50.2782067577429,360.101200372539,48.4438347000745,3487.28257070995,-535.24956729332,411.478364573403,-10.3484298427584
333.410577591049,-18.2139144276361,202.989381469828,6.10881101315643,932.941325924088,-33.3482130823184,753.589849992727,25.7958700973857,379.15527350816,7.49555811806928,1276.53534031543,-20.7777704123374,1106.56583352534,-41.5025029524788,682.469867401354,-25.9757100167024,949.502929060751,145.817587800065,171.105440902599,-10.9731410715463,1125.28790626678,53.2802198320889,1044.31211229477,44.1412022345885,363.842964951796,48.3906892761954,3494.67885780408,-539.915874427595,413.554632077084,-11.5470002913492
337.759564779743,-18.5279526860097,206.720512650157,7.31362407831896,944.929448319815,-39.1519865774453,760.760758227246,25.7279819374071,384.818244787762,7.52655028919227,1295.83604584045,-20.8260329389578,1124.01152720429,-47.4226360184558,709.885158991232,-31.332895679041,967.489458384482,143.644457274143,174.450891948886,-11.5301503564128,1159.59639519029,49.1022467298591,1054.7679905844,37.8023993516494,374.001396947971,48.7718510269213,3516.93116569161,-543.376952027218,416.342065080963,-12.4131567561615
332.226133717217,-17.5213402390203,199.859834404967,8.63176749236775,938.633982943104,-39.415331639296,752.218420739763,26.8210725438633,375.619176315202,9.74235410952106,1268.26553896455,-19.043386066115,1093.25373288959,-43.3486096460319,675.523141779659,-23.9967318066646,946.530425825992,147.424414295485,170.715447579823,-10.833375112793,1113.19973742068,52.0221000093133,1029.46916741764,44.0831096384695,357.717505196723,50.4932664517569,3463.24348522392,-531.08532648269,411.726769890682,-11.0295571562931
334.5696186169,-17.9525499419543,201.233836088263,8.23812347443307,946.05641106417,-45.436068065004,755.761684981399,26.1853905567417,378.342556033335,8.54044728263877,1278.83532070949,-21.1002076893772,1119.49747296096,-53.669926972843,688.035825685405,-26.2580562802276,953.462759488907,144.025877498779,172.189514152246,-11.3152958251826,1130.48300488839,52.8631240756281,1039.56243175271,43.7673403637486,364.483952378004,49.3975463944675,3475.47776843546,-535.839941304814,413.251476578511,-11.5254273724046
335.527055117516,-18.1035931056361,201.676221799619,7.81492796248149,929.692135901732,-31.7199166681219,754.22283055606,26.7543665144281,376.470348171293,7.46581830941571,1264.78620725045,-19.0618184510444,1110.4011168175,-50.7859519957009,666.489502854732,-23.6287202175834,938.805112460692,148.529369396084,169.368391501991,-10.5534649728078,1094.3217817757,53.4559411165738,1021.95418382184,46.6407288625076,353.869882005228,49.8008000519779,3423.48953957125,-521.290006418168,407.202440277282,-10.249161689487
333.701591614756,-17.6330195710117,199.222222644775,9.66820125544294,929.975877194653,-37.2911591759693,753.28956468752,27.1883324310266,376.997257782692,8.51730349336983,1265.43956943769,-16.3615770062427,1105.23803436956,-46.5688549014846,674.985645728388,-25.2295407592504,944.257112505301,148.444239533939,170.452674686928,-10.8381696784036,1103.1326891129,56.5450801640585,1018.36407274262,50.7700304502758,357.352651093405,50.7893190749496,3419.36636412319,-519.876210628095,409.024819186246,-8.60769068343673
337.210689442798,-18.1077658023442,200.998523760221,7.9291030152497,935.380392058151,-37.9166725164786,760.07240409932,26.514272358802,380.395703316295,9.00746939022044,1291.24450558478,-23.2706070639955,1132.34992080228,-59.0286908527869,694.205091020086,-25.8613665718622,960.495328842068,148.155523017056,173.562881493278,-11.1498045292512,1144.07075663381,52.7957502424396,1045.02599926297,40.7247610818996,368.650427303331,49.3991347459194,3451.23592601103,-525.056954235414,415.933764193733,-11.4977301208633
332.351644984215,-17.4739567148151,196.923866234499,9.14246258945844,930.326472468631,-32.6845777189239,753.025405727882,26.9922794264652,372.677309286741,9.84807820670385,1259.72381710431,-17.1276046539253,1093.99390579648,-46.9488407051015,663.531006430599,-24.5253301660332,943.278421321795,147.561145470752,169.501243248435,-10.7302910292624,1090.20260822669,54.9883629776414,1033.32920440752,35.9168105807345,353.372259974111,50.8263025129925,3402.29759740655,-521.245570925506,409.173356295487,-11.3897587324738
333.279668169731,-17.273168905145,200.368952706373,6.88941483107556,930.496907521419,-34.8641014905717,752.816128999273,27.9477791457873,374.011398764373,9.29580001845351,1269.76008692759,-21.0001676739129,1101.45053515865,-49.2866243340011,677.929420534529,-25.0980994593668,952.741646049895,146.683677912789,170.791283354803,-10.8075506054795,1110.00589896948,53.1636897190528,1038.59403278102,36.1384441157992,358.767285693516,51.0913546396669,3403.46688715642,-520.382010080558,412.147013438867,-11.4523117017824
338.553921979987,-18.3792800409426,202.331486271264,7.85432270382695,946.10628075093,-39.6836766351142,762.317034143787,25.5215625737581,383.207790775368,7.86921678634479,1291.58413427693,-19.4140041960789,1122.45228024669,-50.6459846605674,699.871523737969,-27.7910179780485,961.491862405706,151.066102666297,173.949943685812,-11.3552783375648,1142.11450600083,52.3114730032518,1034.38793700685,49.5876932341342,367.002185666457,50.7098382855141,3438.40339150671,-527.103722514246,414.229530238692,-10.6417298234907
333.055849440221,-17.6777714789194,198.968752835799,9.06199684085583,919.411194401042,-27.9929940515591,752.519505335407,27.5222256199212,374.178707898543,8.14908333754768,1263.37692704126,-18.1083646364373,1096.65727353435,-46.7465208478802,666.656228509976,-24.0870666029181,945.770861210333,148.870808422068,169.761673142009,-10.6229810562439,1096.09269314422,54.8750703833012,1019.66157470453,47.588187915769,355.570026150382,50.4975201067935,3382.70105907083,-513.402310825003,412.041755542933,-12.1218170524529
334.063936119231,-17.2587222831005,200.7597686113,7.92101964320315,930.978313482936,-34.8931605993607,755.430716544678,27.6803042041411,379.200806063551,7.06514659249823,1271.18432970238,-18.1772057274758,1116.40439483961,-51.9258655764266,680.429180872914,-25.0468618840168,951.130321330745,150.087520506486,171.79164696236,-11.0741286547886,1116.07692966133,53.0371384210994,1027.58502075991,48.9815482584223,361.166381375464,51.4732283162504,3396.72625609556,-516.526864684412,412.391967125012,-10.4194784426902
340.025400537412,-18.9150113748676,203.424189045381,8.42128101594911,942.153561999609,-33.3261823771455,763.893893371228,26.3077009794511,381.881521946371,9.9826926456018,1298.29614880347,-22.5009171421084,1120.71051622445,-43.2348116750234,700.974571730554,-27.2093896007483,968.852045356571,149.530784699184,174.021487874025,-11.2374262939032,1144.17911650337,52.0722324334872,1036.08175415303,49.210309766675,369.249390756727,50.6273350966469,3413.72824553578,-521.006426108672,416.496987763442,-11.1710333375239
333.802231743432,-17.3272637808415,200.925366082358,7.57017750509927,938.617324670417,-36.8883146441082,755.627492382834,27.2826631985439,372.623532041903,10.8325430466801,1267.30795149023,-18.9402490781565,1104.32088243483,-42.2858623144383,673.05323154787,-23.8005389995276,949.581246075161,149.449561277111,170.841957485049,-10.7237619091873,1102.38060171376,56.812588027672,1031.05644975449,41.3479220391942,361.384957201206,49.8768238545231,3393.51170507889,-518.756906819911,413.581304007718,-10.3124472573659
336.456931801251,-17.8938182331805,200.575714174622,8.97672978451204,944.002057959559,-39.9464321951057,759.182277246693,26.7500630375649,379.006197532457,8.62878607209283,1279.36151947856,-19.4353691370823,1121.18966171654,-50.092235929739,687.569059868636,-24.0742024218302,958.957709742077,148.452958735546,173.044503432893,-11.3315541899527,1131.65618735275,52.817952785629,1049.05429707697,38.3280944045445,365.057444202753,50.5937925580545,3415.10683722437,-524.870965602182,417.000478147407,-10.9404909391758
342.200665898586,-18.977275285584,206.592985303308,6.69999972863985,945.18799057462,-35.5601619558802,765.684301926353,26.3724641584164,383.252331107198,8.21137610459592,1299.17946223537,-24.6147818557739,1142.46417751147,-56.8793051367552,697.110861314186,-26.1891728811275,961.306989944359,147.342236445714,172.118427958902,-11.1419987824597,1115.33510441974,53.9028612461549,1032.71593444154,43.0573337009208,359.180216000454,51.9512851701332,3398.92923291027,-518.938687673885,415.588493981531,-11.3442006141147
336.404131758632,-17.8269317524352,203.001999850372,7.48942694083687,935.626814375533,-35.9589322591672,757.062438987289,27.6738387261827,378.0992627838,7.81910189266773,1272.78853645198,-18.2967907716294,1127.51032703697,-59.5585081215336,676.54508045246,-23.5245370899838,949.094539082593,148.993010873006,170.735565404626,-10.7725675432007,1102.30614042855,57.2908617393877,1042.54635759096,43.5724435501127,359.103538889244,49.9882438765775,3399.15525476842,-521.360867436418,415.738666762912,-11.6159157102256
339.290162030966,-18.5177769240051,203.749603638955,8.19690428146271,933.972101220683,-34.7051805381054,761.820479796402,27.1049343933348,379.998151715493,9.82284855762075,1288.62330881143,-20.1632211734589,1129.61984925855,-49.1925073719718,697.005446292134,-29.4115172919756,958.936388293386,148.850779551559,174.052105312571,-11.5912497311917,1139.17084738712,52.8063206084846,1038.42783854212,42.1574022456159,369.576366334978,51.2714061723809,3418.57218218028,-520.338122644302,421.715394592102,-12.6873346877272
343.177079881554,-18.8958940240313,206.266257340211,7.11272005143702,958.623871303078,-43.5896257587214,763.086603740222,26.717832287854,379.197703540925,8.3911348530515,1279.92207903025,-20.610386585667,1115.68660117552,-47.6972016053074,676.330786822837,-23.9068826399814,941.591858032346,147.56248282408,170.982182536087,-11.0290611140138,1096.76416771678,56.1016070369898,1032.94007719231,39.9794247185974,356.345074186822,52.6524528355977,3397.52208361982,-517.034864138551,417.65847465274,-12.5318155880466
338.003412231956,-18.5792051878961,203.722521453657,7.87720334832958,933.316521414777,-38.0550181876204,758.469854987942,26.9551290124745,376.301751868636,9.75572412267718,1279.79290325773,-21.6810404442085,1108.5347849629,-46.8539690096995,678.180731097282,-24.6117760776299,940.924809762415,150.999505250049,171.497400143262,-11.1552780159572,1109.87501724583,57.3513150679627,1027.77268568556,41.8357794049065,358.442565669492,51.814858922268,3390.314179027,-519.084043927775,412.115416997994,-9.34521791605858
340.707219739957,-18.5792929475928,204.893803535994,7.79521722337288,937.681445050114,-32.5662078286294,763.408934875665,26.9266920273434,385.328454760365,7.62797895049729,1296.75225934441,-21.6040503707986,1128.97008298029,-46.7985546895041,699.737620938796,-27.0206311204592,954.772602361817,149.863630241187,174.525573507663,-11.5598817643356,1143.62266058956,54.83283620718,1024.49660522552,52.5279166624155,371.122975153924,50.1392811451308,3417.72148145089,-519.652928964878,421.949268037475,-13.0532603446113
338.186378359514,-18.3044032327817,202.033912814019,8.35823411274101,934.519819767248,-33.0749602231412,759.387943950883,26.9732740428279,378.104185451442,8.52821957643928,1276.67972139546,-21.679340049162,1107.78848185071,-47.4422336432949,669.109875534646,-22.017290093602,937.665053522167,147.598792768697,170.693437994916,-10.9602838564756,1102.4176341897,55.7683025225954,1022.61242039806,43.640167731733,357.90199202753,50.4968942827265,3388.55533494278,-517.64572090283,414.205496985119,-11.8741843768816
338.043457394358,-18.4456245258555,205.775816937089,7.00761332988244,933.305609672871,-37.2473960577304,758.849625750275,26.8632617117905,378.198879727416,10.0846594629718,1283.43329783167,-20.7349601394674,1103.44411030059,-38.8591230772213,683.223951528043,-26.3612864271372,943.516981859208,149.136041399366,171.957518913879,-11.3430963519771,1118.0927191495,54.5095985666482,1027.25819216785,38.8898294764087,362.839467330529,50.8389164253073,3385.6577574368,-511.935358540286,414.190620764962,-9.10136370212123
341.921083949663,-18.9518551776378,205.014074600064,7.38763423188366,943.100699068204,-38.6006161147723,765.863103149957,26.0585880807286,387.880667125138,7.36126114699658,1307.16776610904,-23.9083837034834,1133.10065257444,-49.4354883292974,708.721144673743,-29.9657528136719,955.443156631245,151.150409591118,174.7842415624,-11.5187221309736,1157.65816881443,52.0408082619315,1056.91189969913,32.770988692874,372.758567400014,51.3810223619233,3422.11464893059,-523.182778001064,422.813517987051,-11.5879716665974
338.26182977387,-18.5403561683463,204.429435366824,8.22032555457649,924.409294363633,-32.4236142029237,759.584954688576,26.6525070142605,381.228647470517,6.86677326241369,1282.82655568308,-22.2843533494684,1119.39693238409,-49.7142654566523,676.281318786209,-24.0692022073803,940.014041110258,147.346095848578,170.951171330017,-10.9308643898075,1108.42234373995,55.776461882973,1030.42879693051,47.7944087893254,357.023172191696,52.2842358093292,3376.15401860856,-511.688059440408,415.665343092928,-10.7176661033082
339.291170351288,-18.6999677323981,204.93090715401,6.90943100495697,925.949142039682,-31.4862735428827,760.103392241468,26.9590444323771,382.015525638743,8.44796351781563,1292.19052787981,-23.3230535502115,1122.27946698359,-49.9955336317484,686.491969576984,-24.8970289996009,941.5220018912,150.206081422351,172.309186654195,-11.3011826228654,1129.82650141372,54.241531241894,1029.00857807909,47.7467589166015,362.652317616051,53.1159886225051,3390.53728773207,-516.835418574376,420.053273914809,-12.2946720248758
343.670110005017,-19.1849667461955,207.031270860993,6.55146417026916,936.919994713897,-35.432969534933,767.58571768366,26.3897706436457,392.472660884873,5.68244838090702,1310.77971163921,-22.6826783188218,1143.74551803891,-49.4677560673577,712.632469953524,-29.5812609887711,963.537572416643,149.232096080534,175.35998825399,-11.65301141481,1167.98546932994,51.0043700617328,1049.0455728619,36.8244424301141,376.306548742671,51.7042722749125,3428.49782775628,-525.044087040535,421.613534978332,-11.2816904221012
339.1260610265,-18.6241894995895,205.424339036958,6.72459833044751,941.174123736974,-39.8280681373383,760.011175569788,26.9207247161723,383.327424588706,7.6037548085988,1289.48081250431,-22.2616147082044,1129.0570029802,-52.3779673297425,684.605061727092,-26.3668644330288,944.448535577675,148.873846598053,171.753492153894,-11.1859073247159,1122.92309507041,53.5630209280701,1032.17281691741,43.9999998749315,360.903474805713,52.735707602463,3403.83020816123,-519.600001086271,418.775641913122,-11.5325699841085
340.749133254283,-18.9318452955837,204.034350643882,8.50201413326973,938.70693711023,-33.4415022723081,762.68200494815,26.5242694758117,388.136840844747,7.05707675278556,1299.04660256008,-22.3583772993427,1135.14726670036,-55.6903492807941,696.561250459819,-24.9553972871151,953.566478977089,146.32011771579,173.604357652206,-11.5569145469034,1143.01315678056,54.59992972441,1032.57483580921,47.8590259003687,370.552873913458,49.6556951967931,3420.36219760397,-524.98184126991,422.302404048946,-13.5723565379359
345.601478976622,-19.4103755975102,207.923933698608,7.82875908221422,947.395020407201,-33.8667662056212,771.180867300389,25.7303673652371,394.462837839788,6.4648174362444,1323.37284905636,-24.9700256607039,1166.41445928671,-64.7778812997452,717.607495116898,-30.869795357327,964.109987991499,147.234180434892,173.608348234958,-11.3404674204886,1150.10374953301,51.9209414851867,1042.74517871638,43.1747124781955,369.89449143314,51.1802520194004,3427.83834030485,-523.830061542723,419.294261615242,-11.3070382129765
340.193052695217,-18.9960281735881,202.521496033451,8.16578029685006,929.113217675556,-27.4612283793408,761.20479807689,27.1524131090361,388.886883213515,5.42766467396871,1297.5758242554,-21.6876295017389,1137.22601738186,-53.4031699900256,693.4714270627,-25.7637727294813,949.757593838029,148.702165067267,172.0302354374,-11.1483137890109,1128.6787782737,54.4926555064494,1033.85109263655,50.2273910725609,361.940542685817,53.6359852053949,3425.37264859002,-522.257393158752,420.245229912704,-13.2696192278056
342.327634597412,-18.9526265568458,206.407232073771,8.55618937988049,939.269147941341,-33.2107479144838,764.0722482716,27.1381353923504,395.546222564087,4.42908155879246,1313.11382128164,-25.9416835159792,1145.15921361793,-50.0864236275467,708.041458831745,-28.9840774576534,964.373446934865,145.396345875671,174.418374776352,-11.5306738941829,1158.23507816608,51.4627236215442,1045.845753062,41.7513773199782,372.032636424548,53.2292417063635,3457.76552465596,-532.857648829129,421.918555752437,-11.1014714729511
347.487705716064,-20.1057978651555,208.140650709047,6.89322778089475,951.731927835445,-35.245109873704,767.424865901148,26.550505547249,393.179758869126,5.26615590015493,1305.52503708819,-22.1270111113494,1150.06071875618,-55.4080144301183,693.329134135336,-25.2552962504949,951.02285386229,146.631741994078,171.746760018624,-11.323475096037,1115.8240277267,54.7312829305621,1032.67635992773,46.7009255428247,361.568980999242,52.4324351175495,3448.36574527244,-528.448778905104,420.460498423587,-11.9568259229111
340.463903087923,-19.0670541265292,205.71947941168,7.68820040157017,945.322895263001,-37.0576995670333,760.361402527291,27.3010485462658,388.191169521577,6.29297575813588,1299.72266518582,-22.8495325492982,1146.48566068063,-54.4210342045428,689.278817378079,-25.6551469763758,950.639404670609,146.919366606334,171.232850138322,-10.9356965427451,1125.38736462299,53.6744848223564,1037.67007887082,45.087879312592,363.014494162141,52.4709699739077,3458.07309185155,-532.988778944646,420.784500464687,-12.4510795760688
343.27605840874,-19.579136990898,207.674598239309,6.04952041385267,947.604916164525,-38.5008153247401,766.006326990688,26.2288067543648,393.322262106418,6.55550721924785,1318.27534079864,-23.8938032382266,1152.86255500568,-53.7934163190136,708.851098188562,-28.8543774206901,963.217797394227,148.922830290584,174.396259305931,-11.5855805890242,1159.53483892143,50.8289548931845,1047.31939636305,43.0436455927316,373.121038604557,52.5495770567529,3495.14683951076,-538.113025774837,428.24874663898,-15.9148023258515
339.335731751855,-18.9769497524834,204.419032920088,7.24253368178837,956.887637448402,-42.9375667120501,760.23296519189,26.831685634484,389.922195866858,4.67862319851957,1296.53582805986,-22.1824613508666,1136.37639571382,-52.9368349915655,685.845238615345,-27.8110961825542,948.015110929046,147.82928940977,170.927478685283,-11.0065557019222,1110.45572102788,55.4945526352129,1036.68590862052,45.7124690307536,361.402685786463,52.1341984544644,3466.14737286223,-529.773643989746,418.286072571204,-10.1357722425818
339.712436642307,-18.5812263457297,207.464384275058,6.25078312266736,936.961659347165,-33.1756156867171,761.139122252095,27.0521167407916,390.578900193746,5.51259251214658,1303.52149552742,-23.1665492157999,1144.27299406914,-55.1227910672989,693.199456205677,-26.8304455741945,955.491767241752,147.803795670988,171.812911851706,-10.9484748915491,1134.63938163922,53.0342278068102,1043.59445749731,41.4522913644836,367.857925029128,50.670390750176,3490.83003924324,-534.984136297816,424.044086779671,-13.5280724650284
344.748195026293,-19.7376677514956,209.32143818435,7.53818910382627,951.0200427364,-37.7050350998669,768.74702984982,26.5038538311754,398.88366847522,5.3872304325091,1328.25963502946,-24.2290515263043,1166.72354406893,-57.9667414432746,715.624352410106,-29.4952995523162,969.322790302751,148.233105331668,173.186594775264,-11.3483085731998,1146.77961456045,54.1450211111085,1052.91964319559,38.1977836645749,372.954813891018,50.5043044747211,3500.60079173694,-538.896529949113,423.078489574646,-13.1626655202394
339.588401587376,-18.886948743587,206.235096676236,7.38372589034391,947.755502839691,-38.0596306751361,762.03221587395,26.8707119778267,392.288644204073,6.64931492110458,1305.54167581184,-21.3631681281435,1160.54024118875,-66.1225459198967,697.496492810099,-29.333788854455,954.171708507438,148.113061247131,171.724561309054,-11.1670747314423,1131.37801716952,53.0052701529911,1052.65455839918,40.0099273778757,366.723354330366,51.2644908390981,3501.62849036798,-543.316296615504,423.000245534546,-12.7323486669277
341.999545967966,-19.0384085560776,207.843355637017,7.11418128945602,940.777610455081,-31.3541897146353,765.528175771089,26.7309693522611,394.155941569996,7.32748449443918,1315.94481875671,-24.022351649855,1170.8929412956,-62.0218340568998,709.230658922341,-29.7956443174845,963.767388852661,148.516909667463,174.326422847584,-11.6009801504906,1154.14787526954,52.1988362737282,1048.67987568346,41.2502834503278,374.640122697661,50.9858602334712,3521.25337971753,-544.812935392526,428.514370601264,-13.2257363042173
338.220741861826,-18.397253663112,207.855156888911,6.3437127852023,945.46546108005,-38.5697487142378,760.280085518281,26.6583107642334,388.81001953911,5.96317228764281,1293.24038539167,-20.9593889807904,1136.90446322839,-52.2998684610717,681.781784327583,-26.8459185711868,944.883308900767,149.689061267286,170.507425914543,-10.6830932602852,1110.97587385321,55.0137201140903,1036.30351470388,47.8286248937078,362.510989112893,49.8390287938124,3498.72339374585,-540.431687884582,421.734677651418,-12.1525335434267
339.362725721731,-18.6743274701076,207.340291129846,6.66522593444272,939.462043639881,-36.0611739618449,761.540833665193,26.7819301041406,388.582383787323,6.41828992899247,1304.50484992835,-22.0695705565437,1146.16924117713,-54.6055686522416,691.007363033622,-25.9120282798176,952.721262446149,148.906968702843,172.240428693722,-11.1893697216224,1131.79718684775,52.7062862608683,1052.46879970592,38.7952319255788,365.906041177188,52.2125698903039,3505.64342472575,-539.797108862717,424.29020446892,-13.5853557502152
345.219577433484,-20.0386603547614,209.777196278694,6.26552578846155,952.389317249582,-40.3185726371947,765.989301959003,27.1391374986727,394.477347916462,6.13662708711293,1311.79879152608,-22.0843235628294,1168.66271703303,-66.6598463807248,702.938524276929,-28.3446353033071,955.54917717106,147.653004219216,171.149868059357,-11.0405339744039,1113.30899071929,57.290119522464,1043.49055579906,37.8001219580708,361.522356662142,51.20814424128,3491.13394512344,-537.32964570641,418.385007929086,-10.9323402191902
338.507032477432,-18.7219470897111,206.107666502055,6.46357350173401,937.057414304698,-32.9134140085079,759.875162755304,26.9799428498054,388.023036183211,7.41778619707691,1294.7853609655,-20.9131905323513,1152.32877835007,-57.105746956748,683.74776743665,-24.0244985046833,946.647765938178,147.041168813398,170.796982603748,-10.9838994371207,1114.47736720914,54.7363103137082,1049.46036314692,37.5429645826968,361.523170002313,50.5056222852837,3481.56878632303,-538.084746437571,419.007823513484,-11.8863011204871
341.985138171616,-19.4607191237233,206.982733668388,6.17789841013857,941.282607826902,-39.4012258804961,764.548363361671,26.6068606115917,390.362811100787,8.34642787947375,1314.20256699284,-26.0693390758894,1146.52523913816,-51.2528649103953,701.438943166503,-27.9641705096681,954.442144492601,150.539087746082,173.725297424311,-11.4568864473051,1148.15797590984,51.8780649224882,1040.08880885301,46.5418239903187,371.577224844594,51.3718998772152,3506.1129637711,-541.149063237062,424.022632165374,-13.0509925496904
337.188167599675,-18.4820379201704,200.928251262726,8.33292290532478,938.75461839528,-37.6212525126522,757.627459513514,27.058945046663,384.031856131834,7.61988640702501,1287.37991357975,-22.045334207836,1133.35150378019,-53.7039498401548,674.753162743162,-25.4005960791759,935.180297939705,151.375732139381,169.792152151799,-10.6768103036423,1104.23996222556,54.739659313432,1027.24513752211,45.4300438975945,356.698377100505,53.0019941569134,3462.91690028444,-531.94242169285,419.752288762683,-13.0259017217272
339.439468193651,-18.8528385798594,203.821256456913,7.39647824527455,935.204317172335,-31.7906252289427,758.868823524643,27.9574852735279,386.033836105655,8.15423208845874,1297.22582415835,-19.4518975841405,1140.68897149294,-50.327353762631,686.272710100247,-24.4111410297965,944.785217692393,152.557035896925,171.7337261901,-10.9839897138259,1123.93380140256,56.0333020630869,1038.7230063433,33.4417686938199,365.530515867192,50.8916043767783,3471.88006857928,-532.049064075858,418.924139236487,-11.5840005575649
344.632217472701,-19.7120867228053,206.783218218677,6.67240093259902,945.951806417238,-36.9310674853092,768.67757440154,25.6295698369287,393.636812733273,5.90147559048702,1313.68646935714,-22.7309865998167,1165.36016347225,-67.7976263964852,703.508284463988,-29.2459451224035,952.928702743831,147.12626040436,171.044020350823,-10.8242150476226,1113.0922696415,54.0556334300767,1036.34211251101,40.713304956898,357.392451047904,50.8607826547671,3461.38396531178,-532.255561278379,416.62890142438,-11.691224091146
338.690332665716,-18.6711087196249,203.59078440447,7.22980421180732,940.167634225547,-41.19799963472,758.370448572213,27.2319788971603,384.460947329884,9.35976324347671,1291.77490005565,-21.5130256775428,1144.03699020493,-51.0933057231706,678.92329856489,-24.7037753673113,939.906607799368,149.686017104747,170.189916842387,-10.5602669366054,1102.08473609675,58.1537635004875,1024.09731338598,47.567420994264,357.598828814852,51.0469503601973,3448.26270382531,-529.163318796636,415.269117763443,-11.3410273165918
342.21357844086,-19.2854443835137,203.543772568527,7.47757593570304,939.412797596094,-34.4897986390124,763.505612928113,26.9322488319776,392.950282816001,6.59759460225557,1303.97166202892,-20.1040376763149,1139.682710746,-46.5626613841072,694.368159415199,-24.6669846944617,954.231946860994,147.701449763335,173.130937827306,-11.0089968645759,1141.24540445539,54.224703774728,1052.70684466862,31.370032108418,366.589213482327,52.0318130026585,3471.32711260564,-528.358620516,420.290851951709,-11.6000776410937
338.544634097768,-18.5603808168502,202.264292927876,8.72957119599846,919.625540243326,-29.2990468775056,758.825871652674,27.5382691561326,385.27464527234,6.4357675909976,1291.43769781632,-22.0505865534552,1129.2580794345,-50.0305808411533,672.048240038718,-24.2315694911555,936.372117647485,150.441570421571,170.076710776933,-10.6026854098237,1101.89911213991,57.2721489178751,1024.28050497154,45.4807795938316,357.511251692785,51.4208682313346,3457.30997907073,-535.663845991721,419.77773269179,-13.2126563236187
341.636787277995,-19.4658023063097,205.348685463049,6.92970593737729,938.93726243985,-40.9479704408386,761.418746848815,27.1293417864328,386.922983285988,7.8808093644891,1303.16200478008,-22.4258733400561,1131.14337289393,-45.5754230953075,689.025017844488,-27.0906221936622,946.230940794727,150.862815553047,172.08255432196,-10.9458122321466,1126.98753698149,55.4812434453147,1043.81256772766,37.4832595011034,361.564524869047,52.9548047111034,3467.75506123557,-532.307855252926,423.213846179636,-14.1737272301499
346.658328084355,-20.2562517132448,208.597628344621,6.33594096568734,943.950415980245,-32.3830812632472,769.812441834935,26.5917383632282,395.265646185612,7.2231178127152,1322.76147442275,-22.6344463663861,1166.30653504421,-55.5487461198715,707.806205268252,-28.1879782074819,957.821810517606,150.076162517545,172.446497509423,-11.2559925876764,1126.00050195963,55.3760133507872,1047.53447321263,39.6684070788278,361.365204657412,52.4892489308731,3467.98440269812,-528.667477361095,419.046105848138,-12.0969727174345
341.252693423801,-19.4238172619569,207.400943945578,6.51884677275788,948.098094344856,-39.8646089204309,763.032147828783,27.111249993646,388.145914275293,8.23932577952469,1304.70468363398,-21.3835668821465,1139.95301318826,-52.7093455246813,689.941131226756,-26.8456876854958,948.971584878731,148.971601460461,172.189658839963,-11.3563762566769,1121.38142637895,53.6248339596708,1037.5468828642,41.210515196632,360.443941668996,52.6461524503664,3471.63154558422,-535.200387473558,417.60923318193,-9.36541358558801
343.69012839456,-19.5897696738474,209.359934806982,4.7297415189509,945.568125320163,-37.4764766885445,767.52697179076,26.2453054824602,394.058133950554,5.68725753744746,1318.90735608151,-24.7204971241127,1167.55804253075,-57.2882348583154,708.612821927322,-28.2806947820435,966.686881950071,146.574530852561,175.018471984869,-11.4278903414683,1155.30353463883,51.9962859834068,1053.2133976671,38.3806610977227,372.504430284035,52.1432287196233,3504.44899501271,-539.22645275117,428.317392824142,-14.2185961255176
340.275414298024,-19.0659498309955,205.841102323711,6.74561826993971,947.62382347221,-40.5967033638766,761.779538038109,26.9728872687001,387.270248895272,8.12572443977647,1296.62147801668,-19.2156202840869,1144.7980398793,-51.5905706787525,681.250790229018,-26.9409376533029,947.825961626723,147.945990431696,171.549011899451,-10.8632412645715,1115.32948737963,55.3430551728777,1033.26991573088,44.4704381897686,361.300852038677,51.7263963565767,3480.47080796189,-533.794069760725,421.437495358942,-12.7775211913475
341.88485444799,-19.274168017588,206.178210700548,6.7082718448746,944.008514429721,-33.6389641480976,765.297253982078,25.7161014078532,393.489227744249,5.42493291143375,1312.88860473814,-25.8119296690091,1156.89060104975,-56.0837009206904,696.894289069831,-27.7883635622201,958.124914108405,148.197869759628,173.093214011241,-10.9826941256455,1136.25717434171,54.1118730956293,1044.1062993315,41.5669055238515,370.11383040171,49.4923422000207,3502.99784755497,-541.691930213894,425.65342352955,-12.0557677123442
345.991979543733,-20.0719075201711,208.374715857184,6.30805803373772,960.252403909631,-41.5718050550285,766.387258169479,25.7709266939291,387.665054360905,8.38214570347882,1301.16535529481,-20.9579573392423,1170.81448283603,-66.8218187904928,684.206041162257,-26.2988380046522,947.700752245334,148.48315982976,171.276493367745,-10.7895127156929,1106.12688677326,57.7154182722455,1039.98673664774,40.9018374418038,360.875069829544,51.3905690112419,3488.6042530239,-534.251081306633,422.828794782174,-12.52679090116
341.235884152988,-19.2707259245501,207.204359718035,6.75907122154501,961.058959445267,-44.9132457400739,763.359694543854,25.9781818232309,387.817314107908,7.91624916364123,1306.38698999202,-21.5187445467369,1161.69582841364,-55.1643223557395,690.623585823024,-27.2875905843166,953.688334798018,148.142652568092,172.35513573525,-11.1437106838477,1123.66211236534,56.5283580099123,1039.98960429724,40.2445705732302,365.44552057982,51.0914051678229,3505.96157590452,-544.958401444322,425.188225770721,-13.196317490907
344.189943681627,-19.725191779314,210.087394592245,6.22085935169818,950.020483529647,-34.5161685361395,768.641445186702,25.9241905923638,396.887641931272,6.14510674892729,1327.08056124178,-24.2669423486999,1182.55343908476,-60.9876421586777,713.702157611237,-29.8215675856646,977.215474721982,144.76248209042,175.703301999433,-11.6276473522533,1166.81487225224,51.7298010952888,1064.063884856,35.8875140047654,377.979633401678,50.8290625285468,3533.51497964664,-543.740356658842,426.196458256149,-13.0650629891973
339.08725951129,-19.1012127846207,207.778147148357,6.98944675841216,947.931319802821,-42.4326935730595,759.650292884573,27.3568853461055,390.34759006935,5.87088111996697,1299.72601578721,-19.1905520182254,1157.38610879789,-60.6689947977186,687.676561497033,-25.4149515894235,955.130713751609,147.492101905916,172.131013024944,-10.8706063670731,1129.12799606381,53.503609535903,1047.39707714775,33.7746206075778,366.975209159778,51.4936283228508,3514.03813347059,-542.655328771033,421.451644101838,-11.3615795632939
341.074310657991,-19.4268046154572,208.395456446215,6.5212583026441,945.235561529084,-31.4596722194073,763.289638353466,26.425604871052,393.039197923077,6.66745272378147,1315.50132989664,-21.6340090095881,1177.18617240429,-66.6666086207004,703.159040845444,-27.2261595981103,961.750901399531,149.402085554687,174.315188374748,-11.4395081815486,1153.52317578777,52.4388773138223,1043.42175172086,47.8819712707939,374.756385487734,50.9548556584471,3529.41945463956,-547.465238192076,428.546601354637,-13.200888080354
340.425095645998,-19.1443086687293,208.483513544979,5.96310163276854,956.727952705665,-41.2791102995501,760.119435452695,26.9281987146176,389.811226920291,5.04117087772141,1297.54363114828,-20.8965382919154,1153.65955286578,-56.1272152550323,679.041992511846,-24.0266792200355,952.681454186203,143.981851314099,171.363682123033,-10.8217722069632,1116.33104803672,54.2312233588423,1033.5598098026,42.3373627902352,362.099326401048,52.9839370253505,3503.40964092021,-538.916984086012,422.473954666858,-12.4037071619447
338.68722939894,-18.7147017968145,205.566538931022,7.85172945384594,958.852527163432,-45.2778322261826,759.710428260854,26.6351626854599,390.632067300057,6.37989594742301,1304.11368153754,-21.737904151807,1162.61973482721,-55.5717597149931,692.595651434762,-26.8517894170967,954.693394137714,146.87434451569,172.309706741985,-11.2084369000891,1134.64852014112,54.6674148101813,1042.26900632738,44.2919434842247,370.066689956883,49.7481925377061,3518.70139147657,-545.987905806133,422.936855171269,-11.9771050530372
