330.482530556698,-18.6884279195817,202.957070780489,7.15419437760777,947.419470815451,-32.9861797850045,744.045473792378,24.0245647504613,380.863377518182,5.21490812735364,1229.52241838962,-27.1810457261891,1090.35369388085,-46.7185820295362,657.517048433992,-21.4719346279892,932.192775369717,145.22308047383,167.326946213994,-11.0483153901131,1050.012661779,57.6701919270669,1005.87829476871,47.5569234867737,341.888166395717,52.4141199071986,3462.88111291034,-538.038519030635,413.099188032117,-12.5453236407375
325.470390515354,-17.7906864942887,199.39301001455,8.15321849877688,937.491354563871,-32.232745582558,741.363317589363,23.8079006830475,379.20633176229,5.49330547594231,1231.45424880289,-27.2917148676857,1080.94915028396,-41.5541664829975,665.471174510698,-25.4129217193895,935.301787302303,145.885485795096,168.334505552873,-11.3826294944399,1072.40213084088,55.7380153204548,1009.18197541834,47.424664474405,347.887641394557,52.5210782704172,3472.50362343722,-538.990539663082,416.453130595974,-12.9844206086415
328.741625115833,-18.259408181852,204.730548450552,6.063702964841,957.550204838566,-37.9452327358849,747.707640183438,22.6592240705891,385.955049495924,4.2870614613531,1253.16951146665,-28.6457591345976,1105.98173749583,-47.7657579074361,691.445651682468,-27.0675913459772,951.729739234526,145.575283750915,171.290545473876,-11.7938791520884,1109.92358219193,54.1197743134635,1026.10953215974,42.7646758153468,359.5032785922,51.9974783275931,3506.9240276429,-549.778794854694,417.770291235344,-13.4230718550797
323.259166512826,-17.685214944286,197.052854647164,8.02693051016467,937.564547822952,-37.709546976288,737.225975274494,24.4566641451493,376.255135189482,6.90262788619078,1227.79396272847,-27.0852747649044,1090.5514671216,-48.4644723180974,664.81927017034,-25.0067899406875,934.602600317372,146.187195485293,168.169166673553,-11.5378846201626,1067.76554810143,57.0377922679667,1013.13086952326,42.8817227634829,349.260822926576,50.1228749021098,3483.58438033237,-543.884060345375,413.752439518348,-12.6792512746744
324.551409981595,-17.8438228931447,197.652183643445,8.39181856931032,950.720325218192,-43.4033550445535,740.766289812856,23.9423954529092,381.163289161035,6.10873840448757,1241.44464167704,-27.7837075937379,1087.88089691825,-37.4174416512064,678.287366003884,-25.3318514038953,944.872274959699,142.759512296846,169.747819547306,-11.5940694519253,1093.3267261051,57.8537929555813,1026.73076070911,38.083211582725,355.708967830336,51.4808940946128,3507.60264458947,-547.70849063257,415.008131918903,-11.1073047404565
328.882800193274,-18.6201909798704,200.578945180565,8.3133524215013,943.001838981492,-28.2291936984658,743.194632646255,23.4210324807707,380.435518553217,5.76862646510209,1226.77100145098,-24.6707330415497,1077.62730456224,-38.3508871206318,664.782004253928,-23.2284904543597,929.085513956736,145.251571765555,167.586451687531,-11.2271003503908,1057.0093919243,59.3945980528605,1017.37318236276,43.3487146796408,345.520527194017,52.0181112621952,3488.8653748466,-542.700567996812,412.446774777453,-11.9444199090658
323.238182766619,-17.8313543041879,197.47183142062,9.63244046282578,943.02866861508,-37.2773348366084,739.37927352833,23.5196303782181,378.70736340234,6.18073375789393,1230.17675599598,-25.7664703461422,1081.62869534356,-37.8987325573602,674.500776853391,-25.2123834511415,937.59412191376,144.340921168237,168.515297569025,-11.432270271877,1079.90774114697,56.6797570125696,1017.36200317865,37.1564202980056,351.710354214193,51.0314280200314,3500.77718084186,-548.558817563853,412.356486152763,-10.4743051744024
325.614530877165,-17.9419840436307,200.308353160459,8.70564146915315,950.306489517902,-36.9251422625577,745.386974895215,23.0444017128721,386.367055125898,6.89209680501121,1253.71315686617,-29.4133005251353,1113.86514378314,-47.9871483589685,699.080559539491,-28.5988496846122,950.100971361403,144.221351090468,171.973562893288,-11.9610784899948,1125.53635488159,52.3457732939428,1025.81320653941,50.9245151408705,361.785787093313,53.2529919789506,3537.16399677989,-555.448511463079,420.676639262234,-12.0304001781018
322.880070601886,-17.7873747822918,199.738986508748,8.14797421998176,946.561348715078,-39.837969893833,739.988469210348,23.3495414845131,381.196075244711,6.14007805857563,1231.19803064322,-26.9535652391355,1088.71745503249,-43.0088680218176,672.873684860226,-25.4558789642383,937.033042250291,141.49601743359,168.656841005628,-11.4303758034718,1084.10149270274,57.2788078532741,1030.51411377234,39.307407180356,355.432444529779,51.9220735516053,3515.98223495887,-551.499314362264,416.884708015402,-13.0757944065556
324.152457169023,-18.0592736197905,200.391585916988,7.84020268992858,952.325010645624,-35.9073339738136,741.567053022788,23.6477092729948,384.825599155047,5.38438996129458,1242.04531171984,-25.5011246933515,1107.28373738051,-46.2006480698148,690.137931328678,-28.0021854538947,944.404376140862,142.938194888337,170.20855652206,-11.7219195567906,1110.71426198357,52.825765595353,1035.24410100285,42.0447878098694,361.606356961753,50.1897558274174,3529.42391987469,-556.703781471339,421.345270185165,-14.4699264944034
327.953927044188,-18.7801659999511,204.636861427604,6.94473681758617,955.511095456313,-36.7750280095987,749.885792273336,22.3329149899663,395.502555195662,4.0663657178456,1269.53218865179,-30.0134221696809,1120.97620995258,-40.9169010524314,716.595651740079,-30.0480410511867,964.933322368856,141.846635770592,173.813593039126,-12.5118658976249,1152.47685828511,48.5633796529499,1044.54410232765,42.7748896120482,373.441037622089,50.3060494374003,3561.64882200853,-559.269539259344,425.474522270658,-13.1710109816171
323.527162557473,-18.0576415914726,203.621297360929,6.01033707506139,950.274548232454,-39.7618172937572,742.781894198007,23.1619303758414,388.581203311113,4.45273752948611,1248.66739488597,-29.0694181300341,1120.26583919597,-53.7516028073288,695.063266270275,-28.9987858381989,947.404791489659,144.438823556432,170.926599098201,-12.0039352582949,1120.33441529525,51.5245110673353,1030.36224061665,46.6416037415919,364.770959799643,51.2901058952016,3537.99196445307,-554.217117056225,422.211050215764,-13.996860166251
325.971512948705,-18.4236554043772,203.758205892113,7.29754320943278,957.637692101264,-39.2583547931379,745.994352191489,23.4671212469942,394.955108529079,2.65023025566294,1260.93447290027,-30.1003022435509,1126.98264594162,-55.8564985945765,709.76523956075,-29.7304829881294,954.095359504127,146.092732158373,173.006908984353,-12.4031047853,1144.61340082501,47.4196667779012,1051.34887880915,41.7179373583264,370.513271811811,52.749579054087,3553.22108548734,-559.94292981935,425.893972590188,-13.4353979980316
331.106831872789,-18.8988214727291,209.79049320026,5.58128686793643,977.97560692358,-45.116261015004,753.748507031971,22.2610077144236,399.355946041383,3.72625185441269,1279.74305376415,-32.506874367339,1142.86523697604,-50.4795270392712,722.446422608606,-32.4087637388061,962.614987192707,143.915941710106,171.584647014599,-11.9804107933579,1125.64158882312,51.882143346231,1053.97952528188,38.7275939820397,370.248937642651,51.3853630250851,3541.45031542542,-553.783950629584,422.790234167755,-13.8632158197155
326.256474355609,-18.6433439343512,206.00432958921,7.09220312766849,963.871918650024,-32.3773380986671,745.123862881186,23.5407034747302,393.630060908376,4.88368163138457,1263.25911880196,-31.1433841739658,1126.07156526173,-52.6953408376038,709.354766988676,-30.4396651274897,958.940649060465,142.206948048422,171.720584371843,-12.1574690857978,1132.80770664107,50.7455428693679,1049.95593910836,41.8251087963402,371.71698444171,50.6715630940294,3548.86703472797,-558.068713771595,424.608583802531,-12.7804240645718
328.643001876144,-18.8291196340649,208.274159361487,6.39970432642623,971.088708367031,-38.6842203932976,750.323442729843,22.6755581684588,398.892274412267,3.69861272073844,1275.17057150109,-32.5264976488367,1143.75747960502,-55.9801572746936,726.65956535024,-33.2484751795704,971.644939683285,143.685156217819,174.510336578506,-12.50131443015,1169.14683586536,45.4519999120059,1057.10681613922,43.6522512700207,379.544260710609,52.1759732305675,3578.45072914382,-567.541621770736,431.597817945842,-15.593761418857
327.823678971891,-18.8587646246956,206.551304219548,7.61178846121662,974.198622600962,-38.7120486305365,745.813552164519,22.9455487454773,391.912539086407,3.07516055492779,1255.49508840572,-30.9725322084741,1121.33792279319,-52.0762445974113,698.323939545232,-30.3708444523356,956.184539309447,140.062783034797,171.290994209509,-12.0660612369449,1124.34068723764,50.5556806277274,1058.03968390078,37.3449059143891,374.218426471656,49.6955397067024,3551.5866686395,-561.732040358992,426.477767557665,-15.480944828735
327.053833430814,-18.4844483753202,207.260307650968,6.89272363225274,970.386512487188,-35.0430250951715,746.143100958456,23.3489370563985,394.474905496027,4.09149031393928,1265.88619324211,-32.1500520364909,1141.04089275204,-54.8422201118992,714.717356642209,-30.5708888176095,968.042272858021,141.045322520386,172.477305334494,-12.291689403601,1147.38418315005,48.3355238546882,1046.78172549031,51.9174879037582,378.646356381179,51.071004934639,3554.50159721313,-560.083811108708,426.649719988991,-12.5383291042857
331.05557146414,-19.240636262416,213.491241528467,3.97656066815295,983.055364933681,-38.012197022529,754.499476205191,22.2088169395715,403.848089351259,4.39568201953051,1292.66060050181,-34.8753551191838,1167.67276189651,-59.1667523258002,737.763252490765,-33.4463051586619,987.26545981668,139.786134982492,176.039920451899,-12.8510327943592,1184.62107471881,47.2116605421225,1080.93577162478,39.4335691187245,390.747404957626,49.9407421984849,3595.24994492402,-570.22051152679,434.019665399255,-14.5177924927011
326.14745039712,-18.3066213884814,207.337393079527,7.58940539442987,976.397554936018,-40.2827280078879,746.238124408717,23.459241231927,397.580879574274,3.70424055945847,1264.77367764592,-31.5851676744289,1142.97552186204,-55.9221140022172,714.751009082113,-30.6266809980253,969.614873101521,141.223925148624,172.535341526696,-12.1287689801618,1159.4258242973,43.3306521090577,1086.85121351557,29.2392145218361,382.7701219861,49.2847247258964,3557.69332857321,-559.660970661946,429.191547907238,-13.1345354103349
328.49629291386,-18.8855197539555,210.455317000845,6.16282969045858,984.037662317829,-44.5984477894412,749.285996994316,23.3574463010169,399.900649000945,3.38842222008352,1279.33579992698,-33.6794319837839,1163.69208845221,-57.3852884387227,728.317007825472,-33.5439544136087,979.615815091419,141.787712260921,174.603299005647,-12.6063176487693,1175.08725983076,42.4598038980676,1082.67355882727,34.8228469839553,385.356984650793,51.180328831261,3570.52463617146,-565.265743830465,434.932955544988,-14.4816373024188
332.397057828353,-19.3255378120709,212.752206173166,5.0722175086014,986.086102614639,-34.7237629698583,749.933798712296,23.1969264857346,397.756424227881,3.8665035598631,1269.6635106038,-32.958760604723,1158.84011265947,-63.4058583431498,714.03614625045,-32.4133285413236,963.457702661257,143.203112502541,171.732523305021,-12.0542111608794,1139.8989037075,48.168934648236,1074.84381743363,33.9577238428512,379.497945524254,50.6959604895476,3551.93680399196,-561.553788590134,430.56150515764,-14.0480714686776
328.957134247144,-18.8988849013436,210.383559161361,6.7390885820452,984.259231041018,-37.937583584728,749.139896045827,22.5121669454721,402.632465924861,2.4874812408786,1272.45484725063,-31.2176785877824,1165.95198840338,-61.6188564663211,723.257378756544,-32.6660044543071,976.155823918167,140.958192721705,173.066772477749,-12.1983802065196,1164.50966525996,43.4022980871189,1075.13570045963,42.769298093176,386.875366891949,48.8630552548905,3557.38831698766,-560.210399696658,434.235520910352,-15.9973077623058
330.702878133469,-19.1628934205649,213.396771029074,5.17547983916904,999.805132205397,-46.4111905866104,755.227394824873,21.9718351504347,407.550586350484,2.26971370514815,1294.04653435329,-35.2875340427457,1183.6823337079,-62.3861607465727,742.535382231542,-35.2137420504387,991.269020651004,142.803124340296,175.546357051521,-12.4652076074717,1197.05680172825,42.7905628528494,1086.38578380434,39.4197310312637,394.341144725271,49.5759499842272,3590.82102711535,-570.830113546721,440.057774219526,-16.1772891927688
326.256149409811,-18.2989126304178,209.337817228268,6.11844988202426,994.041292641068,-46.7568557294731,745.76080770187,23.7743849623536,399.196299029732,2.77083762930213,1266.07540798602,-30.5669541017443,1151.14438987536,-56.7293133175094,720.492393317588,-32.2140360937838,975.892157681828,140.521103748343,172.31408242704,-12.0032781512732,1160.52803888067,48.1972572257093,1081.64199353569,36.2220838060968,387.435738471475,49.9239679836012,3557.42793499609,-557.814679674359,434.914079336637,-15.6921010355983
328.149528806168,-18.5484986908764,212.681475827133,5.4987666852947,990.463499688543,-44.5976087387385,747.750142892838,23.7871964010022,402.808452701478,3.39763879206187,1277.81498628471,-33.2492437963535,1173.98678597377,-61.9483634356285,730.015797987526,-32.7028018613227,982.918164416645,141.218849833949,173.512549599,-12.4161843361224,1179.90348037509,42.6954903247421,1080.35008546732,37.4051459220513,389.057025933755,50.5924251256705,3569.72193907431,-563.839485200409,436.158250633019,-15.1993957410358
330.49655409646,-18.8703322924062,213.558393166868,5.73045822005519,982.111769496436,-35.3524667027621,745.310323023602,23.525565618566,399.633915108559,2.10900167937339,1263.49666781706,-33.8409068681813,1147.97182519365,-59.6715316890646,710.5905444232,-32.6811657556165,968.350403494769,139.083056374208,170.489531735875,-11.920989927654,1134.66889942124,47.27733383275,1082.27795641949,31.9498540555252,379.740415856677,50.5639634990549,3546.18861394272,-558.872082035664,429.378559621613,-13.217693574466
327.29492310755,-18.795043366052,208.410104608496,6.85008557240766,979.185096607858,-35.7747014713976,742.98332197321,24.384793857956,398.837783122645,2.67390835290198,1265.22529592089,-29.542452723462,1155.24630672043,-62.5385508219778,719.568981696346,-31.7481395539462,973.813922429777,140.761244513566,171.332899018343,-11.8841405874652,1154.84807604941,46.0791622472541,1092.72352530064,26.8175790037164,382.275446852207,50.9665750184748,3550.53167156152,-560.481175641805,435.307300970104,-16.4230277016813
330.30407914032,-19.1873055505031,212.666827456395,5.18004459356985,978.862640536474,-37.8011295271494,748.341438300472,23.9662129566657,403.888575799821,4.08179503896144,1284.86555242405,-29.9915599171124,1162.39446168939,-52.9851321546751,733.75937226795,-32.5767619397772,986.844209301581,141.321769167921,174.043525186298,-12.3421670024674,1184.82339214628,44.2187552073015,1084.57766680535,30.6242135200967,387.622819517509,52.4943017464761,3576.63201763604,-568.569012911651,434.73958278103,-14.7996380300463
324.620429405556,-18.0343116073932,208.035804318522,5.67518041735814,976.415887835592,-37.4298714631084,739.033930196053,24.562463439045,396.356740256249,3.50408344500558,1255.86775954302,-27.6663221804456,1143.33663065511,-60.7273651925916,710.40769886389,-31.4875044339769,969.735995283126,142.069292164419,170.689186774255,-11.8128644438783,1145.15436518444,48.4512594369577,1078.73921789848,34.0372553509338,378.59320104653,50.4173267117494,3537.44556271771,-559.090378625096,428.752338252571,-15.3786457694962
326.819266444035,-18.4548820831556,210.977297840283,5.50686999670324,989.235821347256,-48.147833484753,740.755246177848,24.36110143041,399.00547161355,4.02819800425342,1272.63304083048,-34.6041353744146,1147.23245222717,-55.5854772613003,720.724333502099,-31.779069001123,976.199016175922,144.340899146272,171.298333074714,-11.6496950043971,1156.78082709857,51.4910007385164,1072.54321490024,39.5795312372099,383.223670608801,50.7888224035684,3540.53276151909,-558.603828642985,429.851541077218,-13.6755332795778
329.282594549184,-18.5996968253789,209.801355697926,5.82213464837039,978.898356471068,-37.4267923053404,738.348699441323,25.2631170654827,393.412735476415,4.20445383196585,1252.65278691905,-26.7294500504633,1131.90500379424,-53.3266584132981,698.237599510117,-29.0230103649068,962.210662973918,143.45230899921,168.847120798102,-11.3170320576529,1119.96765686875,48.7794333111887,1062.41128797533,36.6087014139875,373.388802461808,50.7566366479282,3516.79937829409,-553.599361064293,423.842605468755,-11.9382157055755
325.945574605487,-18.1651465487504,208.028529328997,6.62384292148667,980.513551575141,-42.102020524831,735.560447866573,25.0064893314666,394.649649318766,3.74357540021904,1258.82927409078,-29.0820317986065,1136.67925994938,-58.831664605644,708.416931130213,-30.3249495718773,965.663131469491,146.119865143833,169.589633445717,-11.5342745587568,1135.05277942836,51.4235273034263,1067.73737504903,37.2071991132834,375.119822763431,50.5471906436731,3513.00313910771,-553.557868031106,428.797095645778,-14.7000629571615
328.744018220404,-18.6539999415796,209.642026976489,7.07726650626191,977.176927332757,-45.2221947074181,740.985866026472,24.8232109910101,402.83398130905,1.90587479771901,1276.68359102251,-29.1374337180836,1147.73433292253,-58.4350479421401,727.221413919702,-32.9775804615133,983.66132407502,144.729061940779,171.910453982543,-11.8414475925188,1169.61468898853,43.6795141663712,1073.99354951441,38.116296176825,382.657014083455,51.4311025620591,3545.57344237578,-564.312584472422,431.1773357183,-14.2269197495348
324.060915368333,-17.6548661980759,204.449170187244,7.83382594600411,977.109016735234,-43.4102647145794,733.181872977065,25.6904434664558,392.657578150705,4.00081284483936,1248.95997950333,-27.8760277344457,1116.74677865922,-46.9264191373764,697.139978751219,-30.2719343691108,960.622673678462,145.411929302472,168.63399182387,-11.3442212869806,1119.7289620443,51.223667178231,1048.7256404209,42.3011367553085,369.943219531542,51.1074971393084,3500.16770038345,-550.949935716392,426.182938189918,-13.880300712384
325.309846966815,-18.0526590892266,205.304660461967,7.41643369473526,977.311207903229,-42.432707946073,732.799729307351,26.7459256875659,392.426749195937,4.50372036095686,1258.60439686941,-29.4951478316224,1119.14384777476,-50.9581904897827,704.747084276866,-29.8310394787363,969.229350834724,142.843519466373,169.776554887705,-11.3577205070218,1130.8719985668,52.4106397177883,1062.79028809435,41.3890044862577,370.407991296058,52.2266019897424,3505.54563729195,-553.589622021098,427.593425700889,-15.1072034908195
330.282304939337,-18.5785138495586,205.685572363423,7.90944937522321,986.840392452996,-47.315577467805,738.129852188967,25.8728407144961,393.515914001132,4.68408710839897,1261.36590954926,-28.6037591845272,1120.24580167917,-45.9506782386961,710.12585425725,-31.4344005326241,968.301285776129,141.218548368211,168.22975971012,-11.2721648707555,1105.09645920516,54.0085605661553,1053.17807269098,40.9732186179971,365.997343479628,50.454648212612,3476.83038890052,-540.918710961922,420.33511638894,-12.2870959565249
325.107381087708,-17.6471671724453,205.446941835514,5.80866107765209,976.997751117236,-44.2832134407892,731.821223339263,26.9152117416632,390.958443664971,3.60277437922864,1248.13589072186,-25.1817277303513,1114.31225929315,-47.0580950956838,694.145879449522,-26.3159599102884,964.757514631614,144.645518087744,168.334855990934,-11.2758548052313,1110.07169513138,53.9803094918822,1057.75063399156,34.436484549131,365.888159965178,50.8238404549502,3475.25802976717,-545.519651949943,422.598522383343,-13.90013501847
328.206830609119,-18.099189683148,205.280379439816,7.6801444461464,974.851422516073,-41.6117643239911,736.230870277881,26.9532922095268,395.355995943258,4.54550451409034,1262.64516625144,-26.7906405397235,1117.46979959383,-45.8988115929639,713.494191230814,-31.8162800783351,976.807159776722,143.584111102755,170.799846979568,-11.7309291048522,1143.77992163016,48.3588249885782,1074.02135585051,37.0076583581457,374.072228898648,52.3798144614254,3506.49984749994,-553.108506257748,426.393900277605,-14.5276043477871
325.835500359754,-17.5237416329395,203.286168133443,7.60221756744657,971.726504239159,-42.8799215540914,731.033097081322,26.9346389635284,386.576278036277,4.97333589206359,1242.39932670338,-27.7634059074268,1110.16791661458,-48.9694438924954,678.956006043534,-26.2780881151902,959.480506681967,145.073078819532,166.926385261193,-10.9080916714121,1087.23556520185,54.8276502833922,1056.14381985833,36.5919753923297,360.802678371515,51.8540168836895,3472.28041694668,-546.505439948723,420.003540750402,-13.1614815165068
325.689289550371,-17.5487257950118,204.328006301986,6.11489410465841,962.185140476828,-35.2219811952802,730.916494196116,27.1180468701107,389.236804550827,3.95411236572385,1243.69400670916,-24.303550551973,1090.15994248809,-38.8882726760441,686.68371387103,-27.0141953742251,961.491660812787,149.804549798288,168.236631139996,-11.3640996133898,1101.0023952636,53.7141782362042,1059.14689154213,32.6502364235107,362.887247353052,51.9256293289711,3464.75744402658,-543.782283595937,423.027651481683,-14.600100495486
329.843392103015,-17.8813558528448,206.916674602798,6.28283542053228,982.482443487034,-47.185148619159,739.799526281634,26.2156288531095,394.317350004737,5.16939382347607,1263.60685028168,-26.0071898828208,1119.66225182861,-44.1555996457514,713.0276265809,-31.1310777268503,979.968663513736,147.7841416015,171.146575936398,-11.6010860326486,1140.99898573191,49.5427386532173,1066.58766309464,34.6958905720564,375.354594095796,50.2018399871368,3498.69218697245,-550.518390752884,426.920062807426,-13.847758558252
325.515892112569,-17.3092497187354,202.564448881442,7.56388119837385,958.548606546962,-29.2800059674515,729.810429094393,27.952244045794,385.498008338186,5.74384319502173,1231.13716757996,-19.9027333951618,1100.74737731405,-47.3668511733495,677.010653729241,-24.8969008580424,966.453294742116,146.08664126763,167.431618456062,-10.9648490387106,1088.83406419814,55.3791770818359,1055.97485304845,37.542272178393,360.820510419402,49.5515165619072,3459.8212408483,-539.854712950177,421.132718690629,-13.7638926243302
327.53381343903,-17.6445191116921,202.719746493782,7.03296985403056,966.023793034714,-38.6245088542634,732.567899576231,27.758061839253,388.331400997593,6.29116349786565,1243.59769655182,-25.2339929095134,1123.37758890355,-51.3917719841137,693.594847232056,-29.4265956668409,972.868419228809,148.608709405613,169.21248087342,-11.3715051558282,1111.26486807208,52.072156818282,1060.58291148053,36.5417381688661,366.094259310658,51.7503120352352,3478.38910473886,-549.759661403094,426.3693243746,-13.9147418194455
332.972438043504,-18.6766592267914,206.109437729179,7.01137552496195,982.588382866162,-43.606327617052,741.649550541697,27.1060410505409,394.033914310926,5.75281098766798,1265.93636599676,-28.5400351002339,1128.40261307701,-49.1079190791281,714.820112834669,-30.2510663431369,988.559230747182,144.324836153761,171.196257405473,-11.6443418306978,1131.9265773436,52.673513351634,1069.87705805201,40.7471486127562,372.73087756719,51.208165540144,3496.24489073043,-550.521925747803,428.147860229611,-15.1718130608511
327.21100604718,-17.5493545437376,203.105466251247,7.11382691261283,974.16111366001,-45.4290457022197,731.742929548406,28.1759906338046,388.461090198321,3.96710122508497,1236.93203085167,-26.0478390098177,1103.48500921654,-41.6656961915836,681.064776979596,-25.0019230627243,972.950457630365,146.523334273228,167.83971017751,-11.1067198877806,1089.33654864669,53.6688141388541,1063.07671903638,43.3704229293796,362.102716962672,50.052987211643,3476.55352783098,-545.832170073102,425.112649855213,-14.1914032272589
329.642994580684,-17.7605523650043,205.948931488717,7.03268730420737,968.335875627295,-33.3728588427356,736.300870545306,27.4972129434864,388.389965218553,7.17749345332489,1249.73396146348,-25.9126504411473,1117.61187985742,-49.3314527168726,696.3008641846,-29.3503647154318,978.771983848997,146.577697098034,169.372004483127,-11.1513749747609,1113.13139952789,52.2367135519822,1068.19883761689,36.3073774344731,366.121416223247,53.307137543102,3501.38695167062,-555.031983307287,427.685853914254,-12.6312087826419
334.986427396596,-18.8080517694338,207.675332488189,7.20681775273579,984.498320301056,-46.842925917189,741.569033973396,27.6413665900759,391.123304945197,5.18774692705995,1254.70838170504,-26.8287218628092,1117.44600078095,-46.7819447825549,695.645383270963,-27.8500533328051,976.057741518579,143.112554760471,168.031534533934,-11.1912046208262,1083.24814023742,53.9399357696321,1063.00910741837,43.6728809188313,359.036811438112,51.9694635239538,3485.65472601642,-546.262412702802,425.489885104982,-15.2732718304272
329.149794602775,-17.7849210345956,203.46084976485,7.13723277803778,975.234773346293,-42.2285451214105,734.798368838509,27.8276732714651,390.27726127195,2.98216864917948,1237.48246840684,-24.0497563820898,1115.86250911484,-46.8988739349358,683.256779663701,-28.884282889827,974.826617225271,144.511533671582,167.997196886333,-11.3395067622406,1088.8693777874,51.611863077389,1066.08965710239,39.4546447475637,361.55805944481,49.7392284349757,3483.21806204378,-550.301325579632,423.994559801826,-12.9618715896011
332.132594566238,-18.2499957446282,206.333275480051,6.37819723206644,976.312552267429,-43.954159335476,739.897758464795,27.9776325922767,393.326927659755,3.09330432215167,1255.83276569519,-25.6636234922309,1115.92878346672,-42.4242652348159,703.512073182735,-30.5656042289501,983.322085766029,145.8790694924,170.761690258175,-11.6375118442054,1126.03476854559,49.2340860663939,1081.19847838319,36.1840507292516,374.018888177781,49.7788094280891,3522.62442412198,-560.561224847464,429.383297664725,-13.1339610578421
336.832182317201,-18.8606793969695,208.601364518833,6.84880446839782,986.698628554282,-39.7224352366857,742.355909379434,28.0729519963706,390.696525505521,5.12132380740303,1246.75481111018,-25.0744696416108,1123.48976640428,-49.9915095986581,687.965549741588,-27.4533832497235,971.307277394412,141.948034092322,168.404990983271,-11.4491927912926,1077.97003390261,54.9696202298693,1060.49385273086,45.0662370953936,364.287333025462,47.84764777565,3498.20746639765,-549.330744124326,428.743422877967,-15.2596100187877
330.276783022031,-18.0013297346804,203.988985391391,7.7466827769611,979.841951245905,-48.989558193049,737.037503410584,27.9883361226188,385.950148058221,6.03058879298555,1244.02409318969,-24.8878572183738,1116.27825637503,-49.626541920132,685.682133393964,-27.8650605179157,966.313581741439,147.253004939086,168.389755628083,-11.229813182163,1086.67258474668,54.4846265880121,1069.03167375367,32.6624474441792,363.94698002047,50.1199000852465,3499.11056352157,-551.664706090214,424.274208572509,-12.6731846764688
333.243478416657,-18.5101555900371,206.341228416948,7.79748034096224,969.230877126461,-32.9847822698193,743.766695583167,27.6269342920222,394.305005866731,5.59981073637992,1262.6019929454,-25.3601099251318,1134.36579224759,-57.9954362778243,708.291427929393,-29.7517287046129,983.63182203923,142.316662120803,172.194967237759,-12.0421909350386,1132.463452716,49.5115219094753,1085.40144643547,34.6032435849755,374.385975616533,50.4087838280417,3530.23697248206,-559.589625973031,429.579834841691,-12.836812017982
338.530498869949,-19.1498371940214,210.287095373794,6.61327981787246,977.120952727247,-38.4436932194912,750.347345995257,27.0931545661658,396.094027900046,5.35145546429547,1275.07463358765,-27.8576064674019,1143.56039313315,-57.2901400790193,710.266576603941,-30.21440073337,973.535295513605,144.481044367571,170.158032351824,-11.4275804138205,1103.05952675985,52.3911890198016,1089.21289534479,31.8534232164043,366.241732939393,50.6865205611326,3518.05514673508,-556.734113376265,427.286009876889,-14.6690171109301
332.648948132915,-18.2228964564046,205.638519126114,6.51948891084841,976.606310217631,-43.1022449938056,741.950333325237,28.1080083994114,392.106041301776,4.20408903257393,1261.28778309112,-27.286598502357,1117.01195470867,-50.895855499745,696.471283464471,-29.7424584517114,967.679005997876,146.573768635996,169.879501743931,-11.4205319509894,1107.47094122534,51.1426005964447,1069.93958861393,37.5475860273081,365.900087474019,50.4630318080071,3510.79093796248,-554.697438728768,425.016865454936,-12.5629281429269
335.924978295739,-18.8095609677364,207.593408564978,7.04077044967024,985.318334034989,-47.6668387122399,747.926533002021,27.2921529551304,395.367823178226,4.67104322128146,1275.7901565947,-25.7618557822938,1130.71129178388,-44.6340255583655,713.471159536548,-31.6947114506021,985.131648855499,142.112534110569,172.953407592415,-12.0769699518276,1144.54543302182,45.7703550033494,1078.0207266083,34.7615356660238,378.05355251846,48.1418245127271,3537.93122768515,-559.569808539572,431.516174265475,-13.3633825714034
340.894287658415,-19.9925727543377,209.568759364766,7.33975597174929,988.233644764746,-41.0767086898062,750.573352066837,27.3807787508103,398.43543580285,2.1712680869719,1277.53807139888,-29.8387095184916,1137.13042392617,-59.270404584985,703.313219341047,-29.7920902170798,969.763239280671,144.462454407998,170.887317633098,-11.9327433505927,1109.60573464538,46.837765739875,1065.49291494796,39.7819097251493,366.153224708031,51.2455697440423,3522.20698213657,-556.979408120028,432.184972259171,-15.4811198267601
335.202682250409,-18.8212670709152,208.578851012365,6.01787913874578,980.845530684528,-36.389532538286,745.031235865461,28.0613119979908,396.470273650187,3.26889423705009,1271.57535156801,-26.4522531594704,1120.17236754166,-46.5469351352399,699.380165735966,-30.1781661102263,972.581983930961,143.655603381845,170.849269455179,-11.8152462051311,1121.16778435689,46.7375680542776,1075.38402028143,32.8805448013066,371.10221927956,50.2114654875686,3507.6247537012,-550.857570793724,428.397841629959,-13.2608510788902
338.746431996378,-19.6494257959467,211.226097936775,4.99191240781325,989.39265040134,-41.4917498693224,750.118394107387,27.7416077965044,401.834732015541,3.85008912646533,1290.23257182136,-29.6643990354252,1136.49179594316,-52.999405595251,721.399546476412,-32.0624746451606,984.387862357919,144.91487665574,173.538162721227,-12.091992129818,1153.72826851258,48.1162845347065,1074.51001176835,40.1427140256542,382.8456481067,49.7909921517003,3540.93217113617,-564.035406967185,433.157924382905,-15.1048330902188
337.497123658773,-18.9831530038567,208.725034206375,6.15672190133773,989.810945160351,-38.236007548382,745.917436821717,28.6969257811617,395.323000715626,3.94936689515323,1277.60706002853,-28.4028626304398,1132.23183369648,-55.5360841312589,694.620775194004,-29.8094703298805,969.741631101717,144.000085287535,170.793559985644,-11.7415124544349,1111.14634960811,51.7704299903009,1069.25645735753,31.3272292741264,371.01799434944,50.1218967404525,3505.77302229889,-554.756304714546,429.525418592526,-14.2460917554026
336.480148969653,-19.061278934403,208.599098772873,6.12714729578758,987.818189634108,-47.121654894521,745.476188724405,28.2161914106931,396.792352951479,4.1447589137517,1283.71560040199,-27.9551520142371,1126.16461299962,-54.6831447664942,706.121151573426,-31.4449974162256,978.731430126285,141.105267592678,171.917121470966,-11.9439958888379,1128.38803355141,48.5883370111233,1065.53954358683,41.2565363361268,375.764938013706,48.8749953074024,3502.59709197107,-551.690805332505,434.737014689498,-16.4190054393799
340.390929930214,-19.6421959407023,210.687916166301,6.02653825987066,998.136990119038,-48.8144828065934,752.08917916219,28.223897388093,405.375779578576,3.93547392590679,1300.38012050808,-25.5453071698437,1162.20657743994,-59.0233001750171,728.744813413513,-32.1549441720329,990.297170426379,142.463162710235,174.859730503674,-12.4491858415016,1164.83896202227,46.7147114738297,1090.12613990595,33.3064176088016,385.188731012004,50.2971886568187,3537.68568762238,-562.435784285838,435.41441265452,-13.5914289295431
335.608447504246,-18.5373678080425,205.910120825665,7.60035776877082,993.097567842535,-42.991827962693,745.34199857605,28.4781946422895,399.172253227789,2.79150593915324,1277.35574331691,-24.0663716341764,1140.25206056824,-53.9908329749777,698.801051334425,-27.8089876189803,973.087596182056,142.763768308891,171.003332908257,-11.8750177740207,1117.95477225176,48.88266405745,1086.98115097797,27.0051759929153,374.589456855804,49.7748279000274,3493.50632807041,-552.160973342564,431.164217914196,-14.8938907698307
337.271405698678,-18.9792523118684,208.95453725114,6.52333834063674,992.913972787735,-49.4085213305179,747.94636622768,27.9614780910169,400.759577500308,4.48626193942596,1293.1152011367,-29.2350735531392,1139.18179800367,-50.5120708002167,712.417185316338,-31.1843099621664,983.760314194359,141.704863275723,172.651868083472,-12.1137325391231,1143.57794074747,47.4392821845371,1077.2539995597,35.9693108247631,379.780149526392,48.9890427935704,3501.35498010037,-555.145349490133,435.303829805002,-15.5665780931399
342.899619972165,-19.9580565132372,211.160602629456,6.3182703858473,1005.46398385493,-45.2281915869327,756.478722629288,27.6529460815026,411.481785658706,1.76041065538777,1319.89107698353,-32.5055468490639,1171.57292781649,-56.2657533004785,737.073947527587,-33.6297405693432,1001.0251032527,141.336538209618,174.925050133198,-12.3319850318418,1176.42469146455,44.4373980580964,1094.23079712061,35.436054316924,386.876430076859,50.77973458616,3527.99566889474,-557.333599680865,434.304677024803,-14.3597806433731
337.637296255354,-19.1074249294242,206.646462694906,8.44653081919369,985.301027106118,-43.5724043888583,748.172018938653,28.3261137296201,401.631839952331,4.36893314260009,1293.00688604494,-29.4322094824976,1148.86849038487,-62.4633633426376,707.41819502633,-29.9172756691637,980.784707756814,143.136036803417,171.948157749796,-11.7955803142401,1136.96659770942,47.0803308657775,1094.95897110173,28.8435327500217,381.182581980141,47.6270914682435,3495.40905305436,-554.247009769527,432.369834112336,-15.002545697515
340.23585121994,-19.5138199488589,212.198484071784,5.89781041841479,989.152569574178,-42.4579542484903,752.273843462514,27.852038544882,407.953251165041,1.17965271714286,1303.36518809076,-30.6428636022177,1163.5797124117,-64.7806618401172,720.94868326949,-31.4284165527255,991.955168798046,140.333850550059,173.658960799177,-12.208464517215,1154.83933623382,47.6264213650107,1079.68008080089,39.0272933944161,385.195144353721,49.9630076683525,3510.56932650271,-552.392980051313,436.638889703064,-14.1510486826566
345.037744144336,-20.2337773442583,211.796496128721,7.17791474115189,991.385463402973,-33.5773328743868,756.624451996668,27.3090172906105,405.907960279517,2.86205921901404,1300.9234197608,-27.0154294294884,1159.21233896162,-53.0089351196584,715.620397357458,-31.5894333476126,982.142534191496,139.339614621441,171.695294785891,-11.85804642464,1126.84158825429,47.1675880712689,1088.16081083497,34.3278503966096,377.768524794506,50.0551608286869,3500.88801833226,-555.107356615136,435.807714577679,-15.0065900963187
340.13123233174,-19.4845192849924,212.430682940953,4.51296893207154,992.00046612947,-38.9937434479648,751.698929185681,28.3136856442114,405.884369110741,2.63731316327081,1298.75505002885,-29.4473097088957,1164.85349093836,-65.3753273824135,710.263541873202,-31.0141014155128,985.942872460448,139.86623507053,172.038044050225,-11.9102438115211,1136.29234208729,46.237446117147,1098.920241292,29.712579098906,377.056544951074,50.0300107222524,3505.91254881272,-554.666052701731,435.767036355532,-15.1393771021019
343.302471976589,-20.269263472638,211.561568227048,6.60881317419613,1004.09603310463,-48.2882109584162,756.924854031119,27.4229057013406,412.396891255718,1.85586899753096,1314.49775833098,-31.0120847271229,1169.91100997972,-58.5922488548315,725.933618681661,-31.2215895354669,995.524137526535,140.056058210781,174.606528736999,-12.2827421095499,1167.36139336522,44.5977144007412,1108.10052422538,29.5668759029688,389.571034544963,48.6930363934443,3536.6154347505,-560.667749345467,441.117524005637,-16.2569500886739
338.611908053516,-19.048279927853,208.621949558181,5.94626216179092,1000.47230882519,-48.458192882164,750.246007953846,28.5800911308065,402.347545174286,4.39321000339802,1294.5448500816,-29.8281928541459,1150.26650980109,-52.4711431200134,700.92685569303,-29.125690041848,980.401092711941,138.710003854958,172.282852385538,-12.2058758578626,1133.89100947326,44.8382952557295,1095.77891806572,29.4414136595631,380.137635360224,49.3038889452188,3513.72669821607,-555.771869096834,435.413053413448,-14.8660547164369
340.9751827044,-19.7098803131454,211.323595829504,4.95122727252792,983.469288255195,-42.036583943712,752.608882413639,28.6494015248915,406.259669437849,4.86159856946138,1304.63967603686,-31.2357543451577,1160.19077646491,-49.2861216772986,717.493859155841,-32.1103116590905,990.820202625,139.572640153827,173.271401628347,-11.9788821301895,1150.20310477841,46.5959017108452,1108.56693572592,30.9884013113085,384.496811118416,49.7664103170834,3529.85940640885,-559.860172991098,440.903794759434,-17.4032057002829
342.330112098956,-19.6146521487759,211.81301552309,5.63650032087422,989.338843329593,-36.4741716737853,753.066448504991,28.2458688952658,402.125490533803,4.20104672878451,1289.59041652245,-28.2302542528636,1152.6866305563,-57.6604618745768,693.854407013463,-28.4243322337489,977.026196477845,139.235997640162,171.04974575652,-11.8186819217474,1113.62584280423,48.0626002518895,1098.31014869938,27.1849361485636,375.32370196971,48.2374421372127,3520.93688010456,-562.175535875933,435.064142512417,-16.6653697531961
339.001228479237,-18.9584750778199,209.853331179739,7.17748106002792,1005.80195352804,-46.782335541284,751.922522847178,27.7540987407266,404.842549275131,1.85729760274452,1294.13457479658,-26.3983512992977,1152.17892242987,-49.6025394746283,702.960999852224,-29.6199578154053,981.191170971227,141.221609848994,172.068590683644,-12.0931892190654,1128.67357662378,49.1169453205977,1084.88139150723,41.7146296904735,379.34265090735,48.8037220578588,3527.31740980848,-558.406263951161,436.702060532067,-15.6922577859661
342.796135791674,-19.8272224108828,214.361863830344,4.42645045417727,992.839775667395,-41.20069197095,757.326832025452,28.4164608732842,412.034291177008,2.44219916952532,1314.47086872458,-31.2394382137167,1172.52434402631,-57.5639064609566,726.018931544817,-33.5844806245353,999.70222525784,136.30365537171,175.03525609902,-12.3858505241628,1166.59538445749,46.3468551510979,1108.20306570746,30.7472871352973,389.989413994046,48.5781988100562,3568.01279849921,-571.516125578246,441.340797566355,-15.6442547806675
338.051849130934,-19.246462298114,210.498595127806,5.7382783018896,986.653479890037,-39.5047047038602,750.203274591087,28.6023923260418,401.575847109161,4.04773305017083,1289.58717041635,-28.0702473569471,1147.98496142421,-53.4839715738707,695.737252441165,-29.2598921573827,978.869979781369,137.29434148781,171.501591626922,-12.0179356986309,1117.73636370302,49.8232989348538,1099.38750126278,27.1402904439721,375.550037891529,48.9041695396266,3537.0959234154,-562.259790994596,435.552158314601,-14.5293043713375
339.036204329447,-19.1573286503502,210.500747826646,6.62481768438911,991.788629477894,-47.9133292285292,753.175782893035,27.7530181677901,406.278824168856,2.60012786829414,1302.46254708747,-31.0692920201409,1153.04768261394,-50.4009956420981,708.093640764205,-30.2650487805886,984.805580498475,138.501014121732,172.668317516036,-11.8054495046081,1140.37257381018,46.2879093292881,1099.112968493,39.2186046619375,380.250264890384,48.9344753306454,3553.51934121083,-567.114538085901,437.026767925891,-14.4909193771585
343.022740269015,-19.2821554923939,214.228527046143,4.94093108446439,983.366563011014,-37.3803841360029,754.801613750102,28.6133374565855,403.896498280589,3.41462774602094,1292.07217823798,-25.1593450752251,1145.07084130576,-49.0497396125559,700.91704941206,-30.5027983184535,976.28138385931,138.18700933314,171.437915379102,-11.8374202111021,1113.22460902984,49.1774856866145,1097.62782973072,26.6826161983678,373.500212962817,48.8877086899437,3545.10795564456,-563.648196096573,432.146101793547,-12.6238184814254
340.070853670466,-19.1207697729435,210.668658322611,6.52608861309367,990.755156541635,-52.0463315548246,753.024283078025,28.8233818922842,404.373282027393,3.82497318858507,1298.08240682849,-28.7767900417476,1174.84195174212,-65.6387652488345,704.156773269988,-29.5298104213711,980.870300345349,141.432343165975,172.752570674231,-12.1367403461132,1131.2937071112,48.9226389152036,1091.35182598092,32.7739074561432,378.326988752608,48.3720881172665,3553.58052652652,-567.245074421805,437.502109336061,-16.6727887720372
344.173807395126,-20.2557600575825,214.339725723152,5.44353351957851,998.219914462369,-47.7066073825448,760.271833494493,27.7409569725989,409.592183426672,2.85120143458161,1318.43269654071,-30.4075045967353,1190.73418945353,-66.043704077155,729.776864286977,-34.1742419503037,999.707547150108,137.689527151182,175.440844903849,-12.3206435592959,1169.53687741974,44.7289524707499,1100.89600762463,34.9687405702456,388.444237451195,49.2249175158495,3589.61580824944,-571.544085164102,441.203511896809,-15.9531056542853
339.752963264808,-19.2939991920378,211.233046854288,5.57483716407366,987.866396159065,-37.2528794665443,755.590874464239,28.1966624174157,403.974727393731,3.48676759538892,1296.490730761,-28.0798726662132,1158.4572283932,-60.8408063222408,700.98269274608,-30.2792559467796,979.747054112555,139.423372707575,172.983546608052,-12.0690652027014,1128.82013786155,46.5710384718996,1096.05642586183,35.6534421887747,379.623684958359,47.3184765938103,3560.42105788127,-565.711196736146,436.868665257075,-16.962191830934
341.972275976225,-19.9061987547044,211.82542837866,5.89417465701722,1002.42030131723,-53.8603002242346,758.039551508041,27.7031061318294,406.129834983085,4.03955026887426,1310.02145539769,-33.7901554318745,1165.75841278867,-56.8642337740978,711.309513395259,-29.5478139255377,986.521839984754,139.524628207238,174.277798381131,-12.1879420044277,1150.08937252391,45.473859102768,1106.17789868576,28.8350214263576,383.693181878099,47.9753403563664,3574.32389682205,-570.433745281881,438.369849859066,-14.1978808464672
346.253820274273,-20.6526790433785,212.06427035444,7.31215717570848,1009.35869661066,-47.831022479008,761.447918957079,27.3364205262069,408.561140492389,3.07818631190934,1304.04272962189,-26.3041368419657,1167.45397139241,-61.307961906164,708.302317422127,-31.7525710199769,978.557865546425,140.48909535634,172.795172818594,-12.0194952371037,1122.32789104248,46.678788083341,1085.8521151243,37.1742128389281,378.521452080062,46.4631595332316,3562.74333596889,-567.398407975711,438.941162399886,-17.8374831926598
341.802112283564,-19.5377199514656,210.639373213939,7.14708576846368,998.652355637061,-44.8600799630274,758.47981782338,27.3418772698726,407.526238680893,2.86763164516823,1304.55767952835,-29.8915032248201,1160.24167927978,-55.9893203364944,710.008209855077,-32.3099417769535,983.407590112762,138.422094239987,173.716784381349,-12.310727384769,1138.51709301633,44.7850756294912,1095.27413155643,28.9419997660594,380.534749574877,48.1363339374942,3557.62364849521,-566.761091160157,437.999307461119,-16.5692255390303
344.611743910696,-19.9601815396219,214.794181836068,6.08510628388482,992.679354763902,-37.0836189014319,764.272563787893,26.8224178079941,414.559422928291,2.0451421605064,1319.52181125452,-29.3642552566232,1169.79210450348,-52.9724669589801,729.059457976212,-34.7835146562063,999.363665588848,137.657817445446,176.332975752728,-12.7041522593513,1177.5762026705,40.0008065619836,1108.292258022,31.1053688954134,390.914265641648,48.1882417614261,3576.71622135187,-568.813288992117,439.140642840218,-15.2614425622102
340.066728159278,-19.5442987405087,211.522558351643,5.44380519338607,993.669265012554,-37.2959851756427,755.095591677957,28.0385235400481,404.253462020137,3.18684015610717,1295.61613752705,-27.819226244244,1148.03880301262,-52.6138249296232,700.972601602192,-29.4532893236101,979.782721195383,139.893021691099,173.470756179539,-12.2621241182398,1132.39114316997,46.5815172316085,1100.38565655106,26.1111918406437,381.024272527168,46.3976974747988,3539.51931053188,-559.615166894524,433.885938088699,-14.6970811104695
342.152086983276,-19.635548185626,211.261128776538,6.17917770147912,1009.3578413997,-49.5137455376554,757.924689923147,27.8779374450645,408.877631344061,2.63587185934423,1307.17654304668,-29.2286134203182,1173.46838981789,-64.9781591007503,713.165395610996,-31.1756282753724,989.854903374872,138.356875227721,174.57147046315,-12.137043729539,1153.60927546839,44.6385066337344,1118.90778504269,16.6167271797989,383.25033521401,48.7236072873445,3540.70390284396,-560.702043306292,436.554831235418,-15.3578102353927
344.877695412822,-20.4150885420773,213.224990139801,6.56001362490293,1013.70870546568,-48.2445255377721,756.54202347279,28.100899794545,404.758609585382,2.90542763279776,1294.26286440094,-29.3716586992575,1157.5079765064,-58.8495293370027,693.332347941017,-29.3967483039362,974.389734424541,140.774401248078,172.137164399094,-12.0457741483536,1112.63157898246,48.8307333163713,1087.45750436696,34.4256204256434,373.902441809627,47.3192472048357,3517.19275866241,-556.52901741898,434.229154111261,-15.9192595405095
340.8534317273,-19.5111296023628,210.509548326911,5.2269836644363,990.459137841386,-45.2224452977844,754.42426354384,27.7245446219205,402.253249676382,4.65421646452042,1295.63880248239,-29.1472396929869,1154.86161924861,-60.5464622311071,699.38344544412,-30.0349126983871,980.132027369619,139.913569039916,172.570845918489,-11.8574304287573,1131.77593595504,44.3199717563891,1096.85458831163,25.5065981088701,379.35619007857,47.0065674195541,3503.7908874628,-550.911078766086,434.337553793108,-14.5747197989991
344.123926545417,-19.8818847880981,213.343946289048,4.44146728619926,998.762043743917,-43.4643095368012,760.331137864431,27.466171807511,411.115917308382,1.77804397282966,1312.48045619342,-29.1815067261659,1176.18348755841,-63.7161471923593,724.146853863824,-34.522019294633,997.516605053424,135.679693987637,175.543838734167,-12.2988155580948,1166.25203137223,41.2522955480619,1102.63378435356,33.2391335746825,389.761637861172,45.8961393637704,3537.84569751108,-561.942704594238,438.914873041858,-14.3604160208183
339.523702709203,-19.0676602221784,210.453814116749,6.27446428723839,991.614157412221,-40.8843633985288,754.207318010054,27.8574685628617,401.50686542587,3.81557075362538,1289.55801398003,-26.1710694375422,1167.21420012156,-65.0931240221127,692.984887110185,-30.1076341872919,977.868282131017,136.238784434779,172.036620121459,-11.9370999567226,1118.27640487161,46.1529786786834,1079.35199436183,33.9267970755216,377.008496553801,47.3742218385966,3491.26937629978,-547.599795681901,434.69984181241,-16.8597243547924
341.137445859729,-19.4713430810432,208.933764469103,7.26327764238353,1001.99262116369,-45.9743232569834,754.987703632726,27.6315362413469,403.939035398139,4.40631488281889,1293.6289594282,-27.7914779265899,1179.24987615682,-63.9229405018069,706.756229918946,-32.9947421949312,981.982899855919,140.23878343644,173.238777996421,-12.104513743754,1138.33024978143,44.6743064356251,1091.87855495758,33.4292497990356,380.543988478269,47.9621337011987,3508.19121259648,-554.52290360349,433.516859338337,-14.6397215440922
346.229309289665,-20.308649957405,213.68938558058,5.26847294512858,1002.59600447109,-47.4110917669328,762.963008337977,27.1133206997976,414.68776713521,1.08831106687164,1319.63750396549,-29.8485296045572,1187.40040263116,-63.1953497357365,732.140973428901,-35.5129383516987,997.623734093448,137.055644978659,176.229885229012,-12.5372522776571,1171.85378682678,42.7840610874238,1110.58323794365,22.0172618225629,391.115670205429,48.1457688810687,3534.82561646538,-562.870434694948,436.232422711378,-14.3195598152105
341.342813507336,-19.6248968768136,209.616359185305,7.44273348665716,988.152265312065,-38.1942470700282,756.12179239081,27.2203314155885,404.916131021032,0.641394677673826,1297.13394286195,-29.1561654306961,1159.85570500253,-58.1084690389912,705.622037655441,-34.1468533276042,983.644400673636,136.986990967422,172.943923682217,-11.8650453863037,1133.29201326282,47.8510519805915,1110.54840883232,24.306217136526,378.63572655774,49.5739691898773,3513.37130404778,-556.606791350743,436.592716321563,-15.5588021979842
344.133896234901,-20.1373574602595,209.536054587532,6.53190501562862,992.82229994102,-40.2321599968085,759.602100973629,27.0292151797459,408.709383855809,2.33064328459534,1307.23245882627,-30.1744345928076,1172.56732738755,-60.5340482568605,712.825564890382,-31.6630829969955,986.655292358787,139.775592661488,175.067219929047,-12.328055813757,1160.4444452707,43.0682554678057,1102.98143759249,34.8490958561422,386.412596626998,48.5187593452883,3535.27370488162,-564.016722971604,440.395260130684,-16.9085649574764
349.136049867113,-21.3186999668169,214.124919275191,5.63949666318517,1000.44633505665,-42.3662206768345,762.453955456274,27.134155189385,405.984796821005,3.89975956518706,1307.89313117281,-30.7606518250496,1172.02938688717,-59.6081845438466,705.424169841881,-30.8796110776738,978.046560613031,137.477815032677,172.822487686918,-12.0900340649978,1125.65872642685,44.3916810136404,1097.40603391808,32.9847231113291,377.306535799075,47.9813341739066,3534.32782932384,-562.013737929883,434.907903240522,-14.8339131133402
343.672273538276,-19.9222431737511,210.575850163297,7.47671355829564,1009.10389761351,-54.0387880557285,757.966054195292,27.3033668391727,405.087707419178,3.99193047989882,1299.89728801305,-29.3970968486135,1169.13973675978,-60.8898731851072,704.433300105847,-31.3849384682386,979.50900353544,138.921336896333,173.988194959468,-12.4333476493521,1140.66616323589,42.9046995504623,1093.75975148971,38.4914399538281,381.362893952644,46.8190191398876,3547.15511247112,-566.613887004392,435.149354399526,-15.0332038558137
346.373991271435,-20.3988144040539,213.324295694305,4.99719543241415,996.684805460562,-43.3899010706714,764.554647365808,26.492358579111,410.442894508038,2.66526072174739,1316.53978637623,-30.472726174667,1198.00401095287,-62.4009148218858,730.159323271115,-35.4370831667517,996.084406858652,135.897221829223,176.498748480415,-12.5492617642615,1173.53855009812,42.5611223335043,1101.40426754137,32.9496106724941,394.732327065824,45.9043947128144,3582.7014510717,-570.166558453,441.253117525048,-16.1216069151557
