166.366446433477,-21.6515223241,944.176298021149,185.779969807792,902.365843343969,140.103047840989,688.470387618908,38.6532228332967,324.62436851119,45.3797891043251,241.237419979228,45.8310495782227,924.81389766038,168.425157106161,154.205824952956,24.7150216169189,732.466914583271,179.360004461089,366.588263977791,6.63658794851924,623.785035019326,41.8655739264744,131.290238011431,54.9004252202904,667.117634924851,239.540162510639,1612.21165129834,118.779404080099,487.68980530284,-19.6835125313118
166.24241583533,-21.2735741992451,955.880694541103,185.130030668449,889.327914456916,152.852226006631,696.550950104343,37.6514466265326,340.256529186801,37.2048967870144,246.693917965343,45.0872237062237,926.656295504341,169.734003748123,156.534637656501,24.8509465245185,732.412729995272,180.930578953179,377.294035035047,2.30641980488014,624.272482061624,47.80770619242,128.963987397823,55.2936827438227,669.638068018887,233.836517747661,1615.72587373475,120.467876284855,479.394343355757,-12.6989823767969
170.625144190949,-22.3274174719235,952.571522931371,205.707587091282,913.352190068444,144.413268174278,716.828059996412,38.142513361016,353.926931834505,40.1011390174021,254.54694176587,44.1508659922457,956.946666944051,161.395576886282,159.770289964558,24.4768339734553,732.956807683841,173.967107604007,393.418147950864,6.1151461753077,633.327409237919,52.747608714077,124.812587597545,59.0280637045801,668.880362741048,237.456041027297,1643.11864794849,115.999219067974,487.027688117513,-17.2272734548944
166.826221494836,-21.1476539687047,935.769885606192,202.171786247185,882.784828099323,153.172214281585,691.363480527789,37.9789731156042,343.161077068154,32.3020714609587,244.323694091563,44.1887463381725,937.459249563407,157.611610156817,153.688487196588,25.3145528707054,715.365740367076,177.459945876879,365.760520807509,7.44120005893891,603.636548204284,54.5967027141714,124.113211523814,60.2825140790821,660.602187659241,235.989723455814,1600.05397131782,120.864442994637,481.66965229105,-12.4953564695701
168.692369658027,-22.0070642069987,916.438632421954,207.107661797042,895.945383175914,145.117462932026,698.754842899743,38.0767671044166,339.304714204096,34.4764599680456,247.02271172658,44.5474215073801,927.38253809425,160.179700353711,155.219953151485,24.2934018336546,709.339462544572,181.256801014968,367.680388184555,12.2288177192297,622.792028383726,48.2931747708683,129.90300709664,52.6049112294577,659.858871789676,235.320953628295,1599.43519709805,124.750218274165,483.718137287742,-13.4208809396331
172.586746368005,-22.8372150603656,906.348679341408,204.428743026858,887.926060325675,148.390816152327,761.67065448887,35.2736377550502,340.103021063955,40.6731665904531,251.499579427069,44.5951398990335,923.603362228362,164.242496165265,155.702275807536,24.4258397901047,707.833237727357,176.497457283764,406.175574799551,2.15943556912168,634.976999842969,51.6041318224332,129.085573697749,54.8324462822129,657.512185637731,234.388187780538,1610.71412457041,119.175558658929,499.322559101682,-22.7216463658814
168.445821341579,-21.7125109505045,917.212634652451,200.732662566743,877.421599704691,140.600989021367,698.910202729101,38.7555073787745,328.637057127018,43.9685439934842,236.957999478955,45.9426506978418,920.436114341794,154.478623410948,151.263626049402,25.0472665111904,697.720793451565,169.744852880003,357.926933707073,5.25797842379567,599.550991224597,52.8658539901369,122.824756411551,56.4481417296348,643.300874970103,241.291804648796,1587.26395804032,121.402041849258,475.549497929135,-18.9983465026699
167.747708589841,-21.3658079624905,933.326737035246,196.946571974544,871.673416772318,151.381013923738,704.267028090274,36.8634568791186,335.313917422966,43.0507473968068,241.05699732322,46.7912100433786,918.08514605111,164.912197171199,152.343756031987,25.2687464964286,689.545267257399,184.506220243069,364.851779477793,9.92510822911307,636.504055619597,36.1673676316806,119.411602354558,61.2510154324557,650.679152003798,240.956746781569,1598.83965208417,122.472603474094,485.188475278006,-22.6434832735864
171.867584186207,-23.0514269154229,954.321568393392,195.017367098587,890.117884080696,153.137217243467,727.557479506366,35.5934713088567,353.407241926312,36.6008574901096,251.727173329381,45.4354615329217,934.615362734698,168.632877476205,157.005873350983,25.2086888952747,695.582294702432,181.073169467845,384.90370437679,7.87340347683271,639.478414212224,47.9375610295961,123.312986021649,62.2390240897572,684.313094870268,241.104855003158,1646.55600263112,119.004375946782,483.196726741048,-13.489790674813
162.616909152542,-20.8963612086758,917.799975315775,194.232063482406,855.678444989908,152.273886562963,681.357995470598,38.3985223419498,323.811226414491,39.9281009666044,233.889668949442,44.7065291374139,922.15473125166,148.410885663999,149.260191638106,25.511525494264,678.573629673757,178.358172878703,337.040579208042,10.4846219374471,608.242533390286,42.1911060658619,128.817767739932,53.27214422063,644.620519926873,231.056153847858,1578.92121377678,125.620588766606,483.897204402882,-19.1427387193696
179.84217537195,-24.9736857794425,853.788172333033,186.794523972972,870.15840135591,143.144861603639,765.847087391355,40.6647775586313,323.065737361677,47.0179286622647,263.90762734464,49.2483888571581,868.975838985239,154.719126362667,144.371244381474,24.1030708294046,668.844042002079,181.415458156839,408.283332475568,7.16747353766067,608.550308365563,46.1151267577942,120.534957118399,54.0966252704767,635.394253531152,232.914645589077,1583.62137619658,126.143274390574,497.213689663347,-27.0122446562369
187.646145819916,-26.1898667041897,856.722367690292,168.196823390469,869.683340934054,152.485467112434,805.020075808952,39.2230505920475,366.918193187963,38.7301592166569,296.178845345824,52.328749947812,866.067389911962,157.513622887843,145.223690484149,24.2757179137654,683.179462907553,172.758890011629,462.124458080154,-2.67602857713958,623.891373596211,44.810536479847,120.584170924974,57.0198287593887,635.516265890645,243.465744574447,1617.85322116676,120.839826490646,504.014851676045,-24.6515868088856
183.965441056601,-24.5497029113427,836.381862267083,178.911200146836,860.119132108267,143.569177959582,769.675427867702,38.6417927919061,339.701246040522,40.4111084450078,283.674390968639,49.9804301982674,844.383290847688,150.806954165577,141.567535098409,24.2772565744917,666.054328421125,177.372623225648,434.301707097261,8.20167155891771,594.032415479278,50.6517553428599,118.910512492687,56.9048502753736,619.0713260649,238.975815575191,1575.11915551908,129.441240201776,482.394229472377,-15.9177994287816
186.577240419288,-25.1564162344601,818.250082056046,195.488246008726,863.055834273216,145.754107234144,761.290747468299,38.3883073571477,333.683599229406,39.8122413723927,268.526831002982,48.5147572308287,863.981151172175,148.794534383237,142.022956127405,25.2744305173334,676.56746070439,174.999930719495,440.131001136626,1.80835734911482,596.195718568454,51.1818460301794,118.163952302694,60.436508212476,626.485959692944,237.5206715237,1592.03570890039,127.407571155325,492.140213058135,-22.0453145965199
188.65881694131,-25.5513878946721,842.722874465093,186.767911948767,873.393747512437,151.970611811395,786.303297586697,37.5210434522953,341.587807708106,39.448188318485,264.21150471033,47.1181415117771,878.31788923491,167.568515699371,148.086912316516,25.1825632173055,676.822820828429,174.55611157698,452.943129507044,1.99177628986021,621.551843605833,46.8907025515392,122.367779923677,56.1388284376432,656.25249623533,242.134603415365,1634.73040760672,125.086628483966,484.209494618884,-20.6935293384841
178.172648943131,-23.61746319961,848.319697395102,179.953674856853,847.159346321187,158.56373037912,732.869328920395,42.2697477948042,339.137614925778,37.9588368872092,251.076886366342,45.270255315147,872.132661404054,157.576547125806,145.693155827962,24.6979499289205,676.472997873499,164.335625559745,395.420468137038,10.3477825883888,592.214765132506,57.0393874975078,116.650474519606,58.6366748811112,644.043108032614,231.731466051956,1604.80616606967,129.256378474535,490.458362924,-21.8001561237967
175.714135623562,-22.9479520243709,836.442660182459,195.573425603777,874.293034831767,146.756587849634,732.064886917647,40.3417354258658,341.63329980078,39.689699369067,248.330596607315,45.5651790329587,882.828090972742,151.497606826506,146.629972476175,24.3428213765921,687.416814103531,164.839388491719,406.188089201418,4.05691481996062,606.798844263781,52.7829004548909,120.068283487418,55.3301179165114,647.94772744181,233.829799088995,1612.51429286654,129.357892704333,472.808914403401,-16.0165458785386
173.162139456816,-22.9248658545158,870.757035137394,179.246439280991,881.899091752969,153.3349561643,746.49158150142,37.1692222456178,340.500444426996,37.8211218458848,254.932123260928,45.2938908704333,908.672731923572,161.837072176947,150.978574652159,24.9041489370995,672.953020312182,170.762124211902,409.739938502904,8.15685722919905,622.760720741826,49.5617971116046,126.248187152387,54.2588895108728,655.309959143999,247.895075813269,1649.49775013033,127.470702774215,488.373974913667,-17.1115016417117
171.090462651441,-22.7672997793798,886.855438272564,180.373307793929,897.224498766478,146.14243960504,724.590790250035,39.3791095696273,338.64772442938,40.2583952615957,247.854817153375,46.7353569943217,891.483997454108,164.311229070726,149.82311889782,24.9448477350801,665.853809319246,161.190439286534,385.451106139493,6.12164240647168,594.212406043939,58.9719949508784,127.738177739935,54.2779793724948,642.628736645676,246.157061775886,1638.31937806278,126.481764539752,479.591639551508,-17.9191118441368
164.569458072845,-22.2768336552979,879.688464200441,178.135240614182,884.820745251936,144.380445210686,701.598547236915,38.194752242103,345.188636729159,43.1825365644649,242.400537202497,44.9953544812903,889.468579220843,167.101767842513,147.813190768741,25.677492285963,668.496364709229,168.350450261558,383.874261914224,1.61306953864042,611.864739138536,49.7763450906362,119.127541972403,55.9038507051912,649.682165839504,241.351806267623,1649.78357716004,124.694826941114,485.244222122411,-11.3531748718153
165.618645920143,-21.7437799150259,873.168676144783,192.295359820243,888.183239385552,148.957222661893,711.949731202014,40.8469394068295,346.282662174556,42.4364827498584,249.090834372449,46.0220841403689,914.067408698513,160.424486043161,154.008705409135,24.5926414259817,672.500377126401,162.373340171073,389.549159070715,6.94430901893416,625.935898109676,48.3083777675681,127.042078042549,60.4710078193427,669.779174859783,248.769973780519,1685.36284783549,123.684325082125,490.322011815702,-18.8934583700845
170.033905587172,-22.3578496150155,910.93131033647,179.519955666844,912.130363051789,147.326760921963,742.166402962081,36.9032790064879,339.789494599848,45.454098701975,258.603723673761,45.0161671627179,945.515943573857,158.243855648329,159.488947049437,24.1955565182751,665.220681756089,166.928023516379,382.697959384963,9.03177626712873,643.576554242825,48.3043555412286,120.805691783945,61.8126130233209,682.410053885885,243.388959450806,1685.93892775833,127.897108075951,490.537615676647,-26.4188652413634
162.686839535579,-21.3853323975032,889.494611359567,175.436384747814,886.268575087284,145.250336026191,695.29569087027,40.8480941702703,325.886500700769,51.6327304380564,243.541877485864,46.002919899254,902.668326064682,163.913141425465,151.279201686629,24.9048456346723,665.170479218335,166.194760490711,373.021640979124,1.0215394820581,638.745826631254,40.4238976219065,126.649677638055,58.3236543931517,659.746252596263,247.186447427654,1684.75329345479,124.251262372798,496.544822436244,-29.959068709264
162.559800622284,-20.9303416625648,880.825478690071,194.233659084535,896.733886252383,148.922883449525,702.740012019217,37.03615740686,339.187416238206,45.435089498219,246.107839864885,46.4918041073157,921.337060213936,156.257992218048,154.085164021532,25.5102769798895,663.494055401866,164.611882775618,371.062005545533,11.1209129631677,647.860281587737,41.683109182041,131.965735443722,54.6460437112686,686.834199268243,243.861991812044,1712.9270545594,121.347236830806,498.522466928092,-26.2550117485561
166.871171957799,-21.9531057531634,904.80211756123,190.220407497843,920.376424394045,144.703745111278,733.398072278385,36.3681052688494,347.66017476664,41.1918809257913,254.479685948451,45.5539867432709,942.189961913255,172.070682857872,162.141996915792,23.7667939013479,670.692030094128,164.223005870781,404.888479230691,0.977682790177141,657.073809532453,51.3000040403527,135.159618022528,56.7732972071042,704.655127054958,243.852057931251,1755.15008080661,119.563099545345,504.309361679874,-25.4067415776249
159.843376156065,-20.7802858374212,883.664754522567,190.85686513604,913.92133128755,140.124023275342,682.828453494657,39.0671688592172,340.395083836245,43.8240359103187,241.974607674024,45.3632472326982,919.179902322049,163.882295280094,153.838376674935,25.3667763279562,656.2726899616,154.940331017231,369.027425196887,5.11306132322626,642.204907980547,39.6916109620401,123.820237369451,54.1043739912055,672.661760989588,240.371878843846,1724.6047473373,120.310822043821,492.725397557796,-20.4752541521288
157.800860159496,-19.7555782806516,890.540415798028,189.580058511881,904.267706823917,147.678793726428,684.102291664493,39.1636992575954,338.494890873713,45.8441818086949,244.453569119208,46.183796776469,929.705264202259,163.928794339049,155.267745835362,25.460155736856,646.552461629437,163.135432514943,367.97135570737,9.66558636146121,635.682607571479,48.4104893631031,131.95887940795,53.6071747916126,675.730424494981,254.192328978628,1735.67613514911,120.133774941511,506.842131149918,-29.774911556693
162.132929597667,-21.0683435339536,915.893033548684,189.100320860413,925.868390033616,147.884518418561,718.187832805078,37.0066182544381,347.32794568419,40.1158333524013,252.409259445821,45.707994684804,951.606137234244,168.645193741343,161.204267618771,24.647765192322,666.784925129865,158.082146219311,397.068773133503,4.17259233607007,662.858826053213,46.6875832053986,121.943497837998,63.0642550359619,708.887021962132,240.104258391393,1775.52952920107,114.284986656955,498.735084078297,-17.1116996736649
160.074925783246,-21.4190173545932,914.953652210332,187.366848465898,923.085613632343,147.062029801677,682.245926459617,39.8583633370913,346.992213630972,38.1134656522383,248.025183887312,44.3122803696899,939.801350758951,164.320273684287,158.09548910287,24.9354816646168,654.653405554906,153.423520266968,367.330933435037,4.77845944092645,641.993670663645,44.0806594549797,127.993512600529,58.5223885930954,692.478668930671,239.128787641611,1755.40520992179,118.932118037887,481.950431614787,-8.06637602289705
155.90728773879,-19.820894819289,900.326402966092,197.247911700843,934.288111962032,142.387748742947,676.609360264232,40.142999803846,336.324882618362,41.3419021744502,245.169592550832,45.229108448974,960.233586380473,154.913649161351,156.992525645233,25.6720466545342,655.684063402351,154.641284488193,370.693357451658,8.95382703057984,642.776291701963,47.2995713279829,130.375976465831,55.558114530479,686.158123590504,245.969595746087,1772.08428591523,114.482607336379,493.494543738729,-19.7003470421905
160.105421613365,-20.2638649927855,914.743176532891,195.395331300712,936.444772922677,141.585547322203,709.444744835417,38.0060872861808,338.476718380461,43.1747686077933,252.719073261998,45.2649379726595,954.987472584081,163.208166790113,160.100861256961,25.9638549984892,658.477553686206,160.459476807917,394.270330790514,6.39922347458224,664.934055109925,44.9277530692931,138.202810619612,54.3925054190406,721.64223931056,244.291824639128,1799.60082534308,113.028560504735,511.024107125041,-24.0221775441957
163.453281389812,-21.7480039587075,940.800617482099,193.949092213617,960.895945262685,143.971584010378,716.645242240014,37.416356588354,343.016546350495,43.4128962209773,255.90843482356,45.3165653700508,973.713473412966,164.639186805467,164.090589056583,25.8806734257548,645.762421825205,162.05554268693,377.846483701854,9.05862804951546,649.036823313565,51.5023845962406,124.079246426407,61.1748382524436,712.63779595632,247.66063264655,1789.35186604004,120.28257412182,500.44909822126,-21.5147540881249
155.617946586058,-19.9590915071365,927.485137681367,186.90339810103,926.849898672608,146.445581874918,685.375946662891,37.9654668091193,344.732637997228,38.5961254552719,245.923913907605,46.1798272637781,944.509589864287,166.371713823415,157.578831909014,25.4275719937025,648.336266635295,153.727748158203,379.033671739179,7.0359571581995,649.256112402515,46.1541542552577,134.600538258678,53.4470769184731,707.449225042308,239.746928936539,1787.92382845373,119.314798889493,509.91226457893,-29.9194760791405
158.213720185765,-20.8308839170949,930.317581441012,189.884124039602,937.672685806548,144.516163536615,704.745796177191,35.5475871544853,350.362042076075,38.1615939669484,251.704008719168,45.047749654189,962.39760765516,163.224788456365,162.103189856633,24.4280274320277,654.583562853573,149.253771467106,397.557002093437,1.91122631231812,675.110315143938,35.2861327242074,132.292295122953,61.4390396542743,726.992393553116,248.11172468547,1818.42157442175,109.536366862729,506.967521787886,-19.2355427148192
161.457108416334,-21.2183753636161,951.114593160466,192.956827083006,956.681493814171,152.292158412641,729.665780719009,35.3628111065849,354.856078121428,41.6027489396363,259.225191910522,45.0395452961965,988.611942925201,162.686754642713,166.89347854152,25.3420373109666,655.60351317679,153.369016971957,409.747716579382,-0.234434172629596,697.60132798827,31.4109916655564,135.840086871894,58.1691424146617,751.574162025679,249.534196506204,1842.23346607985,113.740281731598,512.049987165164,-30.2854519918676
155.074194603155,-19.6893777686256,908.32246607498,200.819541765823,934.513298156089,144.991293078085,686.530744744554,37.8835632717889,342.390218676566,39.997558693861,248.413566773188,43.7371577180278,958.717998110126,163.128220642026,160.37002915015,24.280446260314,647.064048542336,156.489809321816,382.514204067844,5.51430671104995,661.714277838031,39.5572292641188,136.424018451016,53.9466289178895,723.114595535957,242.118552908689,1809.82851253659,115.25465084873,504.941570625791,-19.5766521560257
156.532326350438,-20.121169068326,937.808589518877,182.1325706203,934.963980751331,146.329687267519,698.274057344241,36.309436829126,342.209287259685,37.5091027305565,248.125540142474,46.5691416146436,963.260493529175,166.181431642781,160.464094670514,26.0120344928608,643.683581024699,156.685455668339,389.195985860625,4.41783789925329,664.048953222581,44.5220601314688,135.508699926499,53.9069808559155,722.417592328606,242.900293496827,1815.9289951281,114.498468312701,504.965845472364,-26.6472918088876
160.644790893794,-21.4229257654076,947.600459859149,188.894512883393,961.948136828541,148.034878887491,720.518182139211,36.9094515709274,358.736473942488,37.5802164854324,257.737553478054,44.3586703878462,985.872543826279,157.389727525051,165.754888567472,25.5003921862402,651.842274154576,153.876985671687,416.243489047076,0.724622754572969,674.373944038526,53.0201000994487,135.86187379826,57.3487785041255,738.341105003806,258.411909684757,1856.50219457483,108.908872449686,512.23256215012,-27.81641263255
154.717736770792,-19.4286683763586,944.392796659321,178.573495102717,935.689279671475,147.594683476166,683.136995099762,38.6775481250873,340.138131393074,45.3833803388451,246.252746534403,45.1889602682355,962.691833995059,160.352232402728,159.98216796803,25.5127707377579,635.011706681435,159.452044804578,374.625530997796,9.73102304530478,663.428727186614,51.1416146289953,133.435768039631,58.1319273497606,714.136079429318,247.427021495027,1810.01125238352,118.150708421972,501.69480749003,-27.6096439402765
155.014432105564,-19.391676237887,920.88231593652,198.505327295437,933.694433592497,151.118221910451,686.883399711389,40.0744903251191,340.123143359931,43.2189526252808,247.961635478436,44.5447414555875,966.753252527248,161.144264784309,162.069635304566,25.670537816543,658.816634946514,145.284493106993,393.351475160786,-1.17081318875753,658.148673739713,47.9567101805407,131.703507544137,59.3936250559543,729.822322297586,245.293887473752,1816.89570898482,117.373798653968,502.402362634389,-16.4654624792186
158.689465719816,-20.6431572001848,919.216284917461,199.594676273394,958.158705097092,146.481284648831,711.709840721772,38.8282224114509,353.725574464636,32.6359641094455,254.239302377164,45.9436108982885,976.655663848696,165.244339506952,167.408832200941,24.4653002711622,636.894404918538,158.881845238083,404.373419802398,0.296355602387812,676.491768707471,50.0108449753894,139.663975120332,57.2065687836942,741.275198851585,252.479996839527,1850.19770609218,108.658649241825,511.11788568898,-26.8578521250396
156.02383509948,-20.0270975532671,935.140051262131,185.193298490725,939.104416512764,149.288759340761,683.627018527606,39.5771678558612,345.428288907498,32.2631831916056,245.800661141483,45.0120054388932,961.184570083172,153.086965627359,160.90614246165,26.6469803407781,629.097034767794,156.246463612328,377.936688843496,8.33313592020303,660.724736882584,46.2503194345027,130.708395406096,57.4007806919896,729.398171916777,234.495416911229,1803.92220737459,119.403184337899,489.249893001654,-11.0684620591348
154.001581984593,-19.1130230919517,924.167991346454,198.006111153112,950.598547273919,141.002241898208,685.506972177867,42.0820094718671,334.673313028531,47.9946807657305,245.641236993805,45.0364934366603,968.328543337494,155.421163952029,160.842899238262,25.7482473983988,628.442742804628,150.03991072802,376.458350179377,10.3237990210996,649.234418898146,50.8028605655959,124.729792582173,63.6574780475971,719.624493271571,246.114261935308,1802.96425412798,113.78982173826,508.088861234518,-20.395072450135
157.161061548176,-20.3486752589318,930.199816596139,194.846173400867,951.92621333357,147.089919905365,705.126141242446,40.1445334306116,356.412547118798,36.5839029765995,251.74306682973,45.9269813212344,976.864606724311,162.990302846301,162.582518952712,26.0204874104159,641.946058599739,152.506833299306,400.331846082186,-2.60017080686202,683.825633987771,42.0791603816426,136.151253416084,59.6315003046122,743.172901978122,241.372010505942,1827.64759619847,112.723631500893,506.985510777189,-25.3400335270009
155.141842499111,-19.4103584818523,929.877413716312,189.699452466074,939.91778429439,145.897876530696,681.856094780716,42.1685934251363,335.617694715678,39.0245544423756,246.575779127168,44.495880059795,960.16656628788,161.225787961677,160.781772316967,25.6815108514163,634.077961944192,146.845157287101,379.708452875816,3.73267529389627,650.782579943105,54.4863554577194,135.884367793569,53.8047151982151,718.266233420032,242.719754582661,1791.07948644882,115.205566518932,494.704831995256,-22.5413924171263
153.438640852347,-19.2741671785851,937.639973708766,184.986559481448,939.60616406707,142.83393020195,686.374953990235,40.6119552023675,350.151250008818,36.4526494637446,242.676389436567,45.8094962745845,955.045141607155,161.961407765239,160.054770508475,25.0831476868219,633.441611960308,143.569855194229,379.359624559376,5.05302244803286,664.609090984648,42.8781158942646,132.695329816032,54.0303675528455,710.40969208152,253.621405905635,1782.18376290213,120.492061373277,506.070167895647,-26.9163005680178
156.237296812169,-19.7099145444611,950.254452138312,182.221934762372,938.979190549203,149.996725868885,705.907215477006,37.9197748658816,346.592484435622,40.1653806520878,249.583518524069,45.4759404707501,979.658624214015,152.136129005731,163.153107453731,25.1997688190046,627.108589495133,152.930893180033,391.701824964225,4.75993476169387,664.744111135329,49.980248459086,134.719431930748,57.7237927157022,731.774913249151,243.795289661243,1805.24891231134,113.537339119656,506.636453039354,-21.0237422359905
154.862410570606,-19.1222036287914,924.308078633389,189.7731109618,933.929067210009,148.787497161039,683.507491531642,42.0805292964735,351.221432970212,40.8300047391411,244.669453536357,45.3289812685466,967.285151915083,158.875965373357,162.532235851113,24.3615864187297,626.806412588632,148.291169984693,373.333089396829,3.52431145641139,650.921310324021,44.4871793627221,132.678429701769,56.1347029661511,712.628388660484,243.696948727756,1771.86093927529,117.097112284408,487.693865992913,-14.8334416656691
152.818506732461,-19.0864647927572,936.881093245715,178.451083280764,931.882527175567,139.637285546553,683.934219345666,40.4157995711719,334.440030917144,43.233200004063,241.859490266587,45.3290815433206,953.458471538598,160.298761788224,159.733202061014,24.3314346715223,624.588852482662,143.778708305748,379.000656178824,0.267521256298002,647.593433129833,58.0140962768765,140.399672986588,53.2038267876687,716.03878378289,242.782330871609,1762.5600434135,119.271994813316,487.268521847588,-21.5799164724309
155.790990736546,-19.6048979017964,938.677341105278,185.794424485755,941.418268681608,135.353040581585,700.942941657107,40.6405489069214,340.963370060596,40.3544069597785,248.171894083092,45.716331602199,973.960439242769,155.981991782566,162.454348656591,25.6393374634886,631.454670467167,146.457740246137,385.53893803744,8.089442008866,667.291055876963,41.4071826732827,128.939150059717,59.6276102172547,706.273427872708,260.217931901153,1778.15541935218,118.241268366593,501.530090655683,-23.2243415049742
159.423940193362,-20.8915013686445,927.301939037575,189.602667482576,944.858187343676,146.712996582643,695.249932822652,43.0503383756935,344.769482193229,35.9835794000831,246.996487602593,45.3053495617592,967.206715045592,157.328334775799,164.420666584543,24.093923138324,617.954144970511,148.444158074048,364.518668047116,14.7873602257449,653.471253439272,43.3686657688149,122.147192294059,62.230626083765,706.836013514461,249.92709325123,1749.00768977879,122.426679644373,493.447148535973,-23.8314709783547
153.94942671901,-18.587347374825,891.017713043788,199.164842313391,922.098305024123,144.015313174976,678.997628581435,44.1644152736336,346.432263615307,41.363887687169,240.214845886376,45.8124305411023,963.257499858941,149.948677574414,157.953542307789,25.1710803098644,611.847985483654,152.664570436162,370.932520781237,4.51807407155503,634.769867070179,58.0546260268763,122.375605733751,64.6153831571265,700.804436944873,247.258369839381,1733.82168546168,122.925227147295,489.612396702282,-16.9920752116513
155.518440604637,-19.2364273207854,921.765559469364,189.263530429729,925.089874918394,146.448471267247,696.894375751056,41.5851930801992,339.93290529102,44.2771992966982,246.422787839282,44.7847496614074,952.291598924558,157.466179450047,160.026094324783,25.3135760318274,618.002850852743,152.802819416588,380.543500562527,5.0095236747621,662.327811092227,45.0327526630893,131.601033056965,59.572747799698,713.726655481851,241.515560317473,1752.08705402988,118.492467624965,497.222690825872,-17.0549063829486
158.915385510434,-20.1967204347676,937.0386888514,189.227630061578,931.483069279811,152.359750320876,708.209883662617,41.5744664588644,340.526540801723,38.4659153533361,249.46389927959,44.5697284753636,971.222593149941,155.505198274853,162.770769145848,25.6419487806547,614.302819496923,151.193026583827,369.329607882048,7.3731856227799,637.974096937531,56.9103774489388,130.116586728155,56.7499104393504,709.113644625572,245.094416135348,1729.959463183,122.397433898905,489.198533623975,-17.9115555191529
154.360764441753,-19.3068105975535,933.212411440294,175.052928610954,907.493277194039,151.109571022743,678.541301249147,43.4134617680797,333.479403901128,44.7047218650596,240.310371514415,44.6501883980389,936.685536852777,156.209432074188,158.742173629549,23.7817310511322,617.729950254749,142.315865053944,367.810119642533,6.87291222673929,629.339316598081,53.4510366366918,124.686087810037,57.9627232351796,699.743881470618,241.26561973479,1720.24681084557,117.924412448526,500.350189187868,-25.4026834182927
156.024280566359,-19.8034289616363,916.533578466068,183.919235341512,915.840052096008,143.481169706389,691.120857369672,42.4703567805103,337.148210899196,43.0368615465358,242.356570336011,46.2039806559563,940.356362473006,159.958760176536,158.916896326247,25.2316549025615,626.292991036496,140.984561993962,372.765677755428,6.95527411480752,652.953328644517,43.7859801468813,130.443745503752,54.6051385313721,721.879706489986,235.360089384518,1727.09819343721,121.485776283232,492.666028912381,-17.7925628448813
159.921866384999,-20.4349443832105,915.781816885464,193.266190816433,923.910782274659,149.88311302946,712.825308398755,39.4596575801637,352.541934178443,41.6993901861368,248.973275387585,46.8412232093351,968.533842522878,158.413900284298,162.620440699929,25.0757329852577,604.746239783897,155.768965187921,382.87934517349,6.85251774578487,661.353757629407,47.67121343676,133.658295272013,57.0004476880144,700.749534296741,252.187066765744,1733.56334097858,123.489552927423,494.349452790296,-24.5549322585986
154.754908831744,-19.6995800431198,906.917443606865,189.843786257067,906.868562951421,139.499125266456,677.959540753819,41.2941651121851,330.405021330928,40.1015438369805,236.858415044501,46.2512385105885,935.073350403436,159.97330001875,155.303671910564,24.9282647551279,609.039067196759,142.274883887024,369.631769115585,6.06214636611363,622.435114065493,55.6939919652178,132.369875371549,53.6929316892945,679.462255633019,251.231050035785,1702.10719859097,122.870769251969,478.839700414857,-15.9644287743681
155.012998169172,-19.2707960651872,915.315781010713,174.305658421493,908.150074252545,141.384003510571,681.772788409989,43.528579560366,337.355644968809,42.7236935824897,240.747991815796,44.7350514309347,932.116582508554,160.424241022072,156.569118429606,25.0037680318007,595.223956096074,153.765902816571,370.249375645457,6.94019723383212,635.263098730503,46.471312753112,124.132869627734,56.1354320320548,677.018416974347,248.782292454326,1712.35791777716,119.529410250611,483.736363209414,-23.7931607696566
158.512837389482,-19.6587845369888,915.084443472135,190.429543762236,917.277479914836,141.390940260188,701.297619185374,42.2286293647611,340.644795138474,39.6918127427593,245.545811076093,46.5239170502026,934.695525822662,164.741202169836,160.805082959628,24.9331318254958,598.090750741777,152.284811052557,382.574319188259,3.30557049624109,661.425339122091,44.8608639958192,128.793052389132,58.8127992892499,713.548569657546,238.738457409694,1729.49201977222,123.477352918122,503.392769575677,-22.964742554185
153.623583341699,-18.8732275233951,889.006449477191,192.59416566148,901.94997669104,133.623788953573,670.914737767064,42.8224294224417,332.993060640133,42.3030346685098,233.918221817148,46.4155546561164,918.472594046833,164.374547566009,154.632582269934,24.6932700683671,597.640289800195,150.455434424637,359.123038995435,5.52562922213174,627.155019611949,47.9999431170161,122.753130798307,57.4127794503279,673.818483318055,246.305771123923,1687.03654939135,121.511560128704,493.163847427874,-21.498455041289
154.203657908606,-18.721841207553,899.492406340255,186.582342424198,900.56590100267,142.558562218434,673.0979610794,44.9994958935934,328.249088417583,48.0921789829544,236.420746559915,45.922734716631,924.531583912306,159.277973142242,153.224949100212,25.7773478460929,592.40558137204,150.683434886638,364.449359204093,4.94029805410805,627.52751057565,51.5145999927775,125.619567457868,57.175665554778,661.754242971571,251.757733555628,1685.64575730777,126.001229803283,491.637903393325,-25.5797565909768
158.732919129882,-20.1799882011954,920.516417939625,179.244618681289,906.30043849179,148.529563642934,695.946086198483,40.9189287836796,335.326845436251,46.9419978622539,243.026376183605,46.3703991508482,950.136576893907,155.699437995071,157.050459159598,25.0227287495615,591.880694778556,153.18967457673,371.348189460114,11.1326838373654,641.806416447543,51.9500558520898,123.120132754745,58.42534554692,699.512985851746,238.700498302414,1714.91752421366,117.267867313493,503.974722169929,-30.5326583901981
154.425927600603,-18.914731986923,877.780241256833,200.181466546882,889.588958232657,154.268854175144,667.453407572801,44.4252389403525,333.185470027349,40.9572756662295,234.391563443809,45.343694720817,910.589028025437,166.320681874308,151.66210141231,25.8753738295256,588.729169429191,144.753421013837,353.972490008594,5.73868912629417,626.253722258919,49.2221968889298,121.779002522621,60.1617840983051,674.531239863082,232.370071929828,1674.93058657623,125.896954762671,481.055730866111,-17.2482887732939
153.534998723968,-18.8787927970114,901.701681217193,190.704921986017,893.446773887878,148.237748765849,671.494928083441,42.5302494704581,331.024021959045,43.5608725920322,235.195293281857,44.8236378864048,912.715552931749,160.237012197613,151.692236062432,25.3537189725067,567.685219390101,161.216540019097,352.649443265506,10.3112629763148,634.796736446768,48.547967629323,123.669944307872,55.6249046745244,656.19013284892,247.145250213298,1674.74279083742,125.223901061398,483.410548529796,-20.0375311430787
158.297108483056,-20.3991974927491,911.962176091613,179.930949195573,890.041719415621,146.430701223215,692.25360146228,39.8929517199187,326.023444930214,44.6316086400989,241.846110857936,44.6247070599744,933.270267039922,159.439551936106,155.585687257173,24.980440880812,583.967336600151,159.622422763303,368.165636211038,12.2035437655776,640.714392710428,45.779702047872,123.762069617053,56.6256163678271,669.125580794596,242.776058582752,1704.10696243584,122.083290891149,496.227585070943,-20.7612825909883
157.09570992244,-19.7020780901658,890.355231044234,198.199772886491,896.313425830185,145.103599639716,676.321299163796,42.3531640059625,330.737894788405,42.3085574542404,236.100488302887,44.3914405688034,915.498253111144,162.638356349607,153.336855804405,25.8640179092146,579.708978980764,150.089178140435,349.732818878904,8.76322018473187,621.364403348913,51.5298144117138,128.287076527547,48.9549313121059,657.988981440257,240.338212817159,1679.55610984115,122.269515605432,481.803685516103,-14.1135297043458
153.928251878162,-19.1419339551003,889.660379810655,177.579362243001,897.894203707673,139.783389312129,694.44678830706,46.435337864119,327.065754012603,44.1330531268535,232.10849823245,44.2056093908196,906.961948312274,158.460612934936,149.340897269651,24.9442247285237,572.804943393556,153.93469690424,370.901060044159,9.42559916465672,612.338556085487,56.5472339409615,121.064962463076,55.7818229871056,658.377765166193,235.55212470039,1662.68584361799,126.115253529399,496.790268384356,-21.1112002661279
154.557701936521,-18.7091571626679,829.042643846939,169.392448941413,896.560468711799,139.037457197831,809.280645524059,51.5758407634589,324.30255305452,41.2564515725868,294.253831162692,50.5988403366488,855.44203861977,142.012694430848,140.104145970388,24.5180715047151,583.065706764253,145.286701503879,520.006894488311,1.99751825747399,646.075636629262,45.4973089541763,122.477839616677,50.4112664927782,637.737786263931,235.913022394712,1665.76807063953,120.786466263342,504.07649509237,-18.5131463798225
151.505234815414,-19.0438447910576,852.196651977248,169.42911810792,892.208673745304,146.874841714297,812.15998461667,54.5903715719567,349.385411941824,41.5417343172929,320.416927977458,54.1191295237407,848.255417204176,149.61382097799,145.675574386687,23.6811129910076,595.470771552201,151.108548187004,511.314826425766,11.8679015197603,657.145404078468,44.4884559118665,112.627958693988,59.5496643233602,638.865263960632,240.050161316145,1642.77590155346,126.207123272841,504.801995096615,-28.5766731556371
160.001826120689,-20.4727535426445,862.779098888924,188.086755506323,871.888633535901,145.830477304164,714.75232189411,50.0250674390326,339.286586552693,32.9861236168925,243.021982527863,48.1355672112383,885.063644704846,149.272754187361,147.799329411594,24.6048514309449,606.695931276727,159.501979076309,368.974397096517,6.11346850523539,605.160120619137,58.584138749032,114.187759324873,54.3325307913673,621.017451102807,235.196543791635,1620.18521715293,125.253376044987,493.558917052452,-23.5956304774021
159.042736529428,-20.0363104756163,863.277191221616,188.864654821684,862.735754435918,153.070753929251,724.708116999377,48.9580484875934,330.371636272047,43.8309663291459,243.790536501192,46.117999847969,889.348495744784,157.603899903307,149.567256562199,25.1131537836392,611.866510147032,163.317513544667,386.942907540454,4.0306035232013,612.941430510701,52.6344556994663,117.668676533101,55.0049578563421,636.856505353427,233.842861636955,1648.61177046891,120.969559404476,498.407888577509,-25.413692140214
161.114487378481,-19.50956419087,901.466753940891,176.134122616428,890.5478366535,149.714423010493,739.37020047864,43.3375120721746,337.885326697714,35.2540085149626,248.288579561358,47.9775703007148,921.215418288294,159.112999117227,154.187994470678,25.1963946170343,618.838036750525,150.249817259179,366.61203674394,13.1750627375148,623.514567850714,52.4881379929112,117.654726177823,58.1957581111506,648.399110237414,233.716998266121,1645.75512368155,121.727327011698,494.710157798402,-19.2719973461668
153.581900986078,-18.4798706080426,861.359240053608,197.295324558142,876.668459674087,136.406277307157,684.758209703917,44.642150380716,321.418401857547,47.3966169829156,232.993106248021,46.5424159286388,885.745196606894,167.703788721209,146.642049213917,26.0426891860652,589.253634295626,165.986725185184,350.628862632297,7.52571180787589,604.389417930675,49.3237225237355,115.141934533239,56.3473364950917,623.605126527619,229.735779264516,1639.1601110334,120.967647116859,486.095729912362,-18.7399578801026
155.018348755387,-19.6399806376123,894.533413048754,183.468748960713,872.960316482885,146.150117085615,688.622473855334,45.1233807799168,320.198460595512,47.9561107338216,235.158194809772,46.5351168230826,892.690842389596,160.246808123658,149.141746874533,24.8767793624695,588.249962485129,162.614515541053,361.137006836494,9.69853333165601,635.162546736269,42.594678351269,118.556722743546,54.1395401726128,623.750677643853,243.506639979368,1658.10833094643,121.182125351903,483.842340380138,-15.4866659180191
158.36010111472,-20.280381099227,905.23313186802,177.475369406716,885.431080444358,153.018092040896,709.213928371266,44.3524565589472,327.892440271839,41.7901650120365,240.149109417792,46.932325086372,911.795539501334,164.234520151533,154.544385552142,24.1007839066344,591.180925100975,158.23708079383,359.213443198891,4.93483178282638,621.000623640642,51.5270278429122,126.994018643092,46.9604555069533,628.286592299785,236.716019475682,1650.30151136515,119.905543041239,496.621851607147,-22.8236103861661
151.157515348615,-18.9551553113956,864.238394392626,190.637688043368,879.809968903827,135.478976092914,673.463739653724,44.5321957771603,324.321631851072,38.5494209356569,229.506324622806,45.4077762878865,880.856131386042,164.24596836639,146.927477724456,26.2164629925986,596.276668086513,150.593375525161,360.139528109986,3.38808457942387,616.074657896811,48.7395459477661,109.244121714298,60.9318039251467,618.274227047215,232.855126593445,1653.28024782568,117.496661267071,484.362675918451,-17.0378077297516
152.310401181176,-19.1329218900302,887.071998940278,183.523814454521,883.930962839782,147.597692435302,682.271923594869,45.5184071582008,341.420262304759,30.383842739529,234.991960572449,45.0932468206272,896.817513839326,161.864825198322,151.708544099855,24.7832067792082,583.075938887704,154.400800992773,362.378080133047,8.98499682496588,631.238950978946,40.8019935227161,112.862929860681,54.8170425777999,632.549756540458,236.23738619297,1680.87939658556,112.201698910159,509.563530040011,-25.8326060025494
157.613597370882,-20.5920889433214,895.007717604731,188.086926350402,896.68173384778,146.605962209019,699.951817299623,44.6275072704512,332.419232320311,34.3411517176459,237.146730205722,45.0519671812461,925.131574237521,153.527217852916,153.956582964375,25.4400300083789,581.466628891876,151.849815662533,369.34872098753,-2.56774032681353,623.238407039904,49.2786014915768,117.776889943772,55.1505514840891,639.4263649764,230.504503980927,1679.50489262015,112.202894556482,492.833427105358,-22.2398675292114
148.994097429037,-17.615957105923,876.169297121081,189.233472521234,891.902460012428,133.724255276623,665.215210135837,42.6852907339149,331.513881893874,36.0371510373651,227.937505413907,45.5048602286732,911.08079912072,151.570126227161,150.328614246181,24.6973969576904,578.37288565586,150.441290336382,359.483918835878,4.36134968406483,629.7329908714,30.5037337052497,111.807554414032,58.2243587416384,626.951239734455,234.653844205832,1671.70037621948,119.355503119591,486.330309356605,-14.0332250550216
151.111552152176,-18.8782276447006,890.50548618678,183.637493742243,892.511251697342,141.794807359055,675.298316180777,43.3838296102705,310.193441730721,52.9134710677053,231.157889775487,45.8974659012216,923.08383397243,156.1936855138,152.585113089509,25.3249698558726,580.016225382155,157.602618780823,366.45619611841,3.22784728705642,627.034101943763,53.3035789909401,125.209845876473,54.2289686461857,637.886841401291,237.456289362988,1698.93381687475,112.25292538778,502.823519085946,-28.6622573607666
152.277188028941,-19.3594246332433,882.121488238573,191.538048349336,902.55320617803,142.017030187675,667.264767918621,40.9010798739271,333.716241771449,36.2275944059848,230.201247368457,44.4666919759844,908.220802852397,157.664714736325,152.843622229428,25.1603356594206,578.078427337007,148.939735890524,340.626373520581,9.5864306388332,611.210160991477,48.4636379430309,122.574209555881,53.6703043999078,640.181405775419,231.824675771894,1683.24870568259,115.459804970912,492.927523052895,-18.8077616875918
147.425461426932,-18.4154804963375,871.433448633242,184.605202868775,883.642830628721,139.573344383755,650.188671281654,43.2387067834038,320.183679420556,38.8589314779516,227.645666460296,43.5593523704541,907.161036148903,152.600457653491,152.012215877807,24.582404916463,575.884571866877,150.162338957554,343.980058591047,8.00133160896188,623.019121921323,43.7166503699251,124.622088271973,52.3750171693996,651.318060878401,221.68896014707,1688.80807077295,114.675052584176,490.659084145202,-17.6203264979559
149.753778484307,-18.9759875840302,897.874440852725,177.195987676258,895.744084530398,142.338573247744,665.171607709358,43.7097151422216,323.736071702098,38.8615701165911,232.835988146472,43.6857129105234,924.954398679669,154.995773132139,152.845443324924,25.2150386365889,588.224547324139,144.792074908019,357.064172545145,7.29211328207168,628.029627145947,43.1399044156485,131.297926057213,46.460882468778,651.131535528792,231.664979382216,1717.64017489888,108.91387960747,491.987340873884,-15.4235592370104
145.572880855801,-17.3411091734532,877.624588637748,187.852871321491,897.631250599984,137.663110685641,634.473363948786,44.8893161528589,314.136726527254,42.3317882104531,223.492063190415,43.6170409396257,899.865806142202,160.90538247819,151.684938496875,24.6133986268239,575.583482858288,145.806047221238,336.000531222726,6.62396045242528,615.458835562468,41.3874587554005,127.833929710381,46.8667301272487,620.108112405744,238.034004054586,1689.87041201827,113.473427717901,507.307454368869,-33.1122297927691
142.650837819718,-17.6947508827273,865.405708582705,178.799920606651,890.920760095706,137.873839477832,625.550651745503,43.825892768312,319.338258299791,39.1001012025202,221.475783650294,44.3110080132306,889.469948503883,162.342662718233,148.884575828789,25.8140219216685,598.641170854694,139.078987655771,331.776515919529,11.9891154477885,607.848783099699,46.0100099718521,128.292971950251,53.4205585002062,632.024757516044,231.34029247566,1691.20742399864,111.624508734532,488.525975518011,-17.3708056385645
145.705459815575,-18.8022564412395,882.165219378776,186.161826943768,905.090206976707,134.10322935758,643.164004401689,42.3609871487699,321.663778969735,43.6878722284336,225.312301707634,45.5305652072782,921.238530576028,158.741233279403,154.238776439294,24.3366421058798,578.026239200514,152.176260723447,346.68719770548,10.0217338366075,636.174316044591,36.1006679388868,120.95357918634,54.8884312529566,643.677933005264,234.980043331731,1710.6827513617,110.158953962544,494.897368340448,-16.1619605623323
141.107847318637,-17.9402436161462,888.430092737717,168.999427348791,882.032508384511,138.111417475906,605.342015767756,47.6540806730627,318.989457096713,36.6953976768213,217.939637403862,43.8106670380924,895.86813319031,153.475358262765,148.129329923784,25.2619726950618,567.636410226989,159.141859009614,327.873043297893,7.49337932335874,603.555495301768,47.2611980962227,122.352686597201,52.8884324611269,629.414460545144,234.525504275601,1682.50300268177,111.876981088742,506.000649394687,-26.2242518820034
138.520002329298,-17.1244375298793,877.589992399038,171.672361591364,884.688566886754,139.925447178547,609.293186611827,42.3411906848269,304.719583987424,47.7915286790549,215.984531299875,45.3359085663591,898.361727598551,160.006906606777,149.101785814057,24.739209394321,581.050009938162,147.968967679884,332.753205239735,7.045615591055,609.024933070231,46.6477737416285,127.47003543277,52.8276244069735,628.12173252621,238.816298413187,1677.84110667372,113.602272606171,504.014371780606,-27.6527790090564
141.388855099186,-17.6936564874271,886.228334615068,179.847414371305,903.900423477204,140.621682411368,626.572890929163,44.7466535857431,320.742791882984,31.5913266102793,225.014674363837,44.8946801049429,914.945213068538,158.689773077904,154.353880102208,24.451369013372,585.598916015443,151.216416690413,348.852943817658,5.24906150164728,626.747380283916,44.6833375410876,122.866678913345,54.0232916557935,647.152738760885,237.331162842213,1717.10148153642,104.154496196951,510.270067431753,-31.9155938949967
139.510435435516,-17.1233302139355,888.394040989023,165.668462890983,884.051941944461,149.067407641744,602.464392280315,47.0229617226668,310.321318436445,39.5434642609323,219.012817318655,43.7850204283857,912.075843901156,153.138931265032,150.418597707526,24.5596857644609,572.496789982248,157.287581739335,316.394296423605,14.0258936684018,612.434161940658,41.5902201286512,120.630269332957,56.8340875553713,629.758751954795,232.226408599883,1686.31970526789,110.70499916886,489.477844316421,-20.4815322436742
138.171551715155,-16.9065144296742,867.80332622319,177.633566718904,885.573675665677,150.639085631078,603.931966111102,45.353845777778,306.794603702988,41.4033318138233,216.180192317731,44.8135396393993,898.289482707038,163.665633350735,149.391025858698,25.3243385759122,590.699212865451,145.218538390042,327.650202442969,8.1575465539297,613.651415331593,43.6490421524449,128.396024907473,52.8425808815307,653.383769820116,224.388810035951,1684.41639785115,113.507137541422,487.918149026,-12.4311674930827
140.655391979795,-17.0997830959219,882.43352608969,176.428870117743,907.066187908838,140.264991292387,623.442907068545,45.8808902031504,303.248554016848,46.3948466831788,222.701906742462,44.8957155649215,928.810881812236,152.212686978249,154.624219998102,24.1126337299196,600.588461363206,149.435633132399,348.837915071953,2.53810053800027,623.18335727441,43.959414699631,123.395218506434,53.6058785124358,650.112407196926,231.907187570941,1714.14019559619,105.348445474171,504.599234092449,-21.8924420054352
138.698257241143,-17.3340805110891,884.520299213621,171.096668479175,889.790402795506,145.367057602629,599.058492604151,48.1324608313026,302.767156038749,44.5086643184565,214.123543021692,45.3036438215757,909.11079477238,156.088510104318,151.15024944609,24.51648339597,596.150863132833,138.731575332063,322.152055829321,9.5257838221843,597.190246020009,52.9449918130782,115.797058181357,59.6116640878093,633.273749727152,239.789541845598,1690.02844275771,107.757912940854,500.036338480074,-21.3854754188187
138.024844732918,-16.7215052429522,880.778783912643,176.985594778891,876.89381388659,145.943004668611,607.572501317737,48.6537107003379,305.012911051278,39.9470037705376,217.431507131325,43.8161684671052,909.244047978049,165.277884732803,150.573793162244,25.051352803113,598.798681071232,141.986198158131,334.532412777694,8.47311280426942,615.956144604826,41.2971426749909,126.42860584202,52.0057475805348,635.690644847067,235.34941956,1701.07866428278,104.843135602174,497.022456476098,-24.3860232672867
141.440995628523,-16.9426529666598,888.574738022329,179.300251087413,905.773136885934,142.824302574235,635.764471944762,45.3923055365774,313.914360279594,38.4176677476856,221.672021840341,46.4754804859149,924.95887444527,159.711034875431,155.891193672066,24.1779056920017,586.039484331034,156.420493582594,345.246225774463,6.46573659906531,615.181362852976,52.3190445753423,126.97971973182,55.7393415667253,665.821899905111,235.154070004943,1724.16109196332,104.189559054163,497.061677727507,-20.99080371881
139.995974337571,-17.0785563241535,879.530927742154,170.414110582818,901.324137058127,136.220089914806,604.336254778313,48.5439696884648,301.710914274775,43.910319239908,216.60651616339,42.6698178445511,909.327658692336,154.753157354587,151.118611703182,24.3977519685708,587.979771268764,152.7653106646,313.686137880453,13.2884975990417,596.597648555568,50.3077548178196,119.49203767106,59.0420136515812,626.427704766761,244.435657453649,1687.06047713587,112.339221565542,492.94380747169,-9.04567155282477
138.853990125285,-16.5594709743091,890.398127726667,171.770344296086,888.760028585144,148.36229530248,609.140650656937,49.3603079055378,307.896257346099,39.425957874529,214.654870355839,45.4024245227154,906.288314756341,160.567665164336,150.412193877391,24.9841006114204,587.915320019178,155.350674206872,331.162959450999,8.21929296769634,612.468995266004,44.7214311564998,125.686933468158,52.5843557370647,642.833336854755,234.408877814222,1696.21874381895,108.088008682389,488.246285711039,-20.4820572377497
