153.719187194759,-17.9147008459853,941.020086278574,198.26852448649,934.916941460886,132.232324390574,650.148914181086,47.154168805539,325.737241932864,37.1255280990634,236.646231882573,46.5202804326566,985.791591385557,137.641160073678,162.006955311429,22.2279975297086,674.779604268406,163.421186542984,374.664681165668,8.2645400550782,634.642676405688,49.2855957838376,138.793504972395,54.8921730274789,727.900389832632,223.332000737311,1768.60324735482,84.7846643233287,522.184180859748,-33.5939987577557
157.562278926729,-18.5704285470219,979.406071979397,187.495417245625,961.053188955296,129.410721026345,654.858458727143,48.114523833689,328.420695231071,38.4912885363571,238.439877157734,46.5934391117208,981.877686247949,144.599587323776,165.065701436807,22.1840009144404,665.493245644648,164.361129988802,368.561912087736,8.91565290491188,635.017240363666,39.5824116403502,139.674884974999,57.3281026117062,722.927348852736,221.609114331359,1746.14550651442,90.3329055669474,516.020689980898,-25.0458468896078
150.938760111973,-17.3956487206532,959.885079383531,180.988515057052,942.622563375543,126.099609274588,626.480402557745,48.2782708290077,323.676162718215,34.9468033662934,229.684310636017,46.4946945437085,948.449746001232,152.910291524622,156.88101654544,22.5594216253483,676.107861429749,160.041882191343,360.246731267875,10.5669663742563,615.463857481216,48.8920947127433,144.682777042573,55.1279962680747,715.72758926709,224.147466943638,1744.78778768778,87.3937496715809,524.150889237402,-31.4586151203403
153.09981678224,-17.9725729124526,977.115200995955,175.819838845422,948.504748712666,121.960251993267,639.969674034793,47.594775092985,330.976291010154,34.3721968000731,235.768048657775,46.1286969641465,991.915920892352,129.023242187957,161.698707132802,22.3429610950341,682.861721902267,160.400760048153,371.669167906325,10.4006429553115,634.755439611352,42.7229950700861,154.901230487967,51.0043530649371,734.674174943846,222.336810411658,1762.75160589235,86.1953820395154,528.194350332919,-22.5656112463829
155.724705374485,-18.1179900587127,992.507927845096,170.519576439473,949.109080568133,131.223920635379,671.575072087127,44.1492590301975,331.870074890808,43.8991274408424,242.335439901144,48.6627846052504,989.323369496071,144.258211584217,167.264912349099,21.9541807608262,665.219474738587,167.690191333586,386.343287885641,9.68132353766911,646.367706417792,44.5839236493546,150.248558609335,55.5958076543084,741.114732100124,230.237414413988,1758.38361976932,87.5352356270301,521.318249666752,-23.5314079970193
149.889468459888,-16.945383249691,968.933957411172,168.815244969383,924.974192398349,128.632345271029,625.222417000096,49.508969854648,322.251376223162,40.4385565207727,227.970437432791,47.1549320911313,954.642573052132,143.023893686886,158.054497214745,23.1863372689299,674.756676464875,161.298315059329,364.085885237356,12.9824384254457,616.828063243851,47.8175907673893,136.82682955833,59.0518597907626,721.829017405178,221.304402133874,1718.96209410258,89.4646927744404,520.898326326065,-24.7970101677951
152.127263339941,-17.6066716937287,987.435060807244,167.041262815335,937.527470268213,129.280200940309,639.139302437946,47.7665767824547,329.812838191273,33.5373859081021,233.562440205893,45.6152289734592,959.264215388698,142.580589174181,159.843751126559,22.9165188630027,665.970320434861,161.443302547322,371.380114689298,7.32599456582542,613.192675302696,51.9610216559604,138.729328996217,58.2763313502574,731.71313411777,221.54657882747,1732.16256296515,85.6727925275966,528.643639831955,-28.5705467290468
156.346447144622,-18.3002204680396,989.663355057635,170.379093664355,958.394108079104,121.793227577433,660.400984447274,47.930518554573,324.509540067867,42.3688615258695,241.029231888299,48.0372096311593,998.898248465901,134.321916463099,165.047166341425,22.907052164859,663.129407302678,165.87801108107,390.652529999756,8.51978435066744,652.14102383624,37.0689562791532,149.840398570454,52.4815505705956,746.054903929936,226.515985813321,1775.62443274465,80.0462840392418,523.449879743107,-22.0787927657301
151.728301942691,-17.5184356111996,965.445580581352,172.541343006102,923.099033281803,137.766311422439,632.905039836428,47.3529912325869,328.308176133367,41.2683856691492,231.205975078738,46.8075060838714,968.26186673197,134.191703575746,159.930760364609,22.3987771336381,665.757103339526,157.953133635969,359.508599201735,12.5636268352302,611.635191761885,49.2861287453898,140.020868573849,55.2710135852227,733.076000424167,215.916662347985,1716.42022095487,87.644202117564,517.709759989114,-20.2083046859989
151.725664782263,-17.1017686800352,957.930014600636,174.084666620293,925.750401240651,136.041837259142,634.627385304476,47.6872553740032,321.368952934406,38.5704405765679,232.170580427431,47.125945625896,965.912665654824,139.061572343548,159.910361836992,22.5403416166471,669.54868339592,161.172682313141,362.120498355419,11.1681671131355,614.543975688042,52.8708943946325,144.632078337057,52.4264873474587,727.340318426606,226.550844802974,1721.70401546501,88.8084281994965,521.655194657518,-32.1248705931555
155.363498611553,-17.8630338766976,980.030507410379,167.325994639156,949.325838718683,120.479584342211,655.596141766494,44.412646224718,324.254180816774,40.2009310839669,237.522428426775,47.6382291341796,988.675569001059,134.758443555639,162.427644513763,23.6364793236368,673.04076603316,153.957994646855,376.479628079979,9.59378852591041,635.578846673535,43.4572230532577,154.399851940994,47.9478504990686,743.587094995007,224.909067643217,1749.93041622406,88.9324286050682,532.711914726083,-29.216238288625
150.198121078508,-16.794983936786,946.90575084307,177.78114224231,917.786028458355,139.620703463335,619.230262050283,48.8154438617648,328.065057325667,33.2513791443497,226.784266269304,47.6834120065503,955.345766533827,138.946677764192,156.884444289802,23.0058583495229,674.474332916592,156.89159537441,350.132884799896,11.2519007708418,611.466167499104,47.3917028586521,136.55887147987,58.7228579698899,724.822002022736,218.485400735315,1701.45168195439,91.2827890282471,534.825689990254,-36.383746378249
151.967304388442,-17.4166476192511,943.654123153593,175.188305776477,929.590694305139,126.130869537492,625.844781556501,46.6357700326865,318.809165491019,38.7830239589146,229.813245830326,46.6173658700817,955.968567864912,134.675551167926,156.729820273322,23.5701029583323,684.302137142249,143.886981115335,354.455127135438,12.7295936779694,604.21989505986,52.0017583768845,141.475311695186,54.5673314649571,713.997754564465,229.75493306099,1700.45514834244,90.7188532950729,515.637390657681,-27.5337435574898
155.42577091901,-18.0271824324892,947.419812202954,170.591172797315,933.372784538744,129.376758428592,648.437360438145,45.8592336314614,327.204816325808,37.3617387837972,235.883363146834,47.0699112697853,959.39101603026,146.298932371397,161.468931193798,22.6081190732868,668.323035627562,155.31515726681,373.976560071864,8.64040275448216,622.785579352481,48.2659606072191,145.614051915957,54.2772413494957,736.455732600796,214.380635860543,1717.65856173094,91.0789941606007,527.100174289152,-32.367557555308
149.914089145795,-17.3214592236161,918.282410010667,177.10062994323,909.193817723497,134.188324263421,607.423332256218,49.084332485298,301.704756276331,44.0237402964124,222.242142439917,46.5354873479934,935.749339877765,140.100470100562,155.244518958029,22.4058297294769,656.915996804044,163.314600017281,339.4919919325,11.2316469067628,595.295067147463,49.1110073567627,148.240728383208,47.3036166208937,703.837003665805,220.75039783614,1668.78008429495,90.8476446840794,511.028564178163,-28.7625494768416
149.789788647147,-17.1306303776176,935.488750136338,171.518884923135,920.850274174888,128.851631213884,620.151628783914,48.4282934362438,322.29112852834,32.5130884762962,224.463865975879,46.6865631610635,940.375482212647,134.886404002175,156.575446390704,22.1962946154666,677.462296515989,156.997812444229,352.705701889246,11.2830084790179,602.743443203619,47.8918807647412,138.931340397391,54.4259487135652,710.021289800112,221.541151015911,1656.33039514003,98.3258482076866,530.303106719539,-35.4504708418101
152.24143773884,-17.3825431607428,952.956543515107,179.543961752382,931.459186372295,126.900793960853,642.811496541582,47.3687570354695,320.927306395664,37.827623202136,231.346620185821,48.1746899808561,961.696280729583,134.567985199283,159.613970362044,22.5129125889517,663.04287138295,166.165485174262,370.417510800415,10.5493709745657,619.012202127955,49.2964772916033,147.513883297591,47.6945484241933,726.151267540413,222.224799686004,1678.55934364427,95.0389567439627,520.60702954324,-32.2430385331444
149.722533525335,-17.5557267702822,927.600930092828,180.364977898861,910.667775293608,129.739651190454,613.036321474745,50.0596904583491,311.970328627606,40.255895731585,221.702452052791,47.026372775423,928.191720827465,144.807407113372,153.27392645857,23.032111207027,658.489872499906,161.276461786591,341.093609092487,13.3820247690602,595.602953069208,51.0252017081049,138.409021090439,52.7752508121075,711.095621656019,214.845164310461,1626.44429823549,101.891242216538,492.450696594526,-19.4206328910492
148.955765731924,-17.2503277241182,931.19121625421,178.394150284436,913.613292869361,130.124313651896,618.158745854342,50.7304782375793,301.718205233153,47.5500330208523,222.539794952896,48.53064297859,932.815096168691,145.187562464741,155.128742205603,22.2941922649361,663.906853608748,160.397836044299,348.674968186365,13.7384358588976,595.276719280111,53.2606862086658,137.254443012753,50.4900683100436,703.948056685774,215.405541273615,1616.91314622927,103.697473453523,505.878845456414,-22.3694139305389
150.352622591747,-17.2842209217122,940.932252201573,171.766133691945,918.79588991625,126.776734231942,631.796952335766,45.9161869235597,317.383302764646,38.9322575025575,227.337795387687,47.5554173511359,950.0773192704,134.792729831312,157.2133786142,22.8628404410886,672.553114644647,150.273958464445,358.009334279884,11.5088695528615,597.684735903641,54.6263795119968,146.319431939058,47.480673400171,703.850101442992,222.278619422853,1636.78134321065,101.33825921333,519.271594222064,-32.3009763408595
149.81272267894,-17.0563224133799,870.472498764636,169.338157457385,880.94384436362,141.307709888319,610.710739241847,54.0760729469484,306.234770026775,38.1113863341854,213.58819618713,46.17157009583,915.014589126565,130.310619765644,147.182823195521,23.8941887370906,636.186063920054,166.303615492642,320.835462300043,14.0362479702101,588.092024048975,43.3394961182874,133.266556276107,50.1544803161016,680.233058756021,218.15643162418,1586.42460614696,104.579389522418,506.837287569534,-21.9357015172551
158.498747766501,-18.4102543476677,834.642802210768,173.557493226578,878.064665619288,127.76767394248,635.247028373584,50.6383821650231,305.378077813101,44.2799481832552,218.628981387055,47.4873376214401,871.020646600181,139.740220253935,144.621107879702,23.0383493535904,638.966059601137,155.076914666711,354.768873454384,18.2157466420307,569.862411362352,58.1997788937593,131.378344151095,50.392009154303,671.450690082542,215.24109093218,1577.94562345918,103.581322820654,501.348736468917,-18.7100532603088
161.766160652006,-18.6216872575293,850.157572094297,171.246816860033,890.355898872568,130.560793118462,645.995875682678,53.0792110593267,318.618218137416,37.4723955613651,226.803902986339,49.2807930031197,893.76054030242,141.150586445339,148.677045145058,23.3312647944341,660.282937134952,163.273145698816,351.593110117669,12.237242146713,597.009826481837,49.8024698013739,139.208139953885,50.4345414009919,687.018131621645,219.870459515387,1612.53638230173,101.729387038717,503.646524860788,-23.7533123731886
151.114444507063,-16.5954480871489,871.705420656594,171.227068508037,882.559088919192,131.722256552868,616.522576402968,52.7956806083617,303.948222199612,45.0718010607583,218.044219062674,48.0163080066487,888.028618432978,142.956674310474,148.071107375166,22.900458646736,663.614726958472,172.25543816664,315.108000746626,18.4920851469402,572.430496964006,48.4952930722074,125.632563636688,55.2846502421897,658.607421531057,221.50069155795,1591.82805463945,102.920764618798,497.193368892665,-23.5568521115939
149.081423787502,-17.2334015130901,866.003878068832,176.906126224973,865.110019196904,140.59897117525,609.438207663005,51.9729053494604,309.734825794039,32.3165845506904,217.067275448258,47.9671400137863,880.162153190275,141.7535448611,146.667877626559,23.2999303352741,674.561327812561,175.051538660587,323.064267878851,16.9391095220792,568.793454182942,56.3037909019662,132.747657233947,50.0971149111454,654.328301903528,226.400569308683,1588.99127687501,105.302430509076,509.280187279391,-24.8888278923235
150.917099079048,-17.5492825572941,883.638140087512,172.570211123803,883.940928979045,130.641607157622,627.516779975666,50.3761341261429,312.599750012024,37.0983957594811,224.221267478086,47.8330324456634,891.905950448518,146.921063152881,150.165959528961,24.2113108110012,683.313017651654,168.620548382737,347.545002303773,9.27483454991667,609.907664724722,39.771146735699,139.404583187126,49.5696488530179,671.084577705783,225.355535562818,1621.27939750183,103.902499737349,505.477028225076,-26.9963024857157
149.151842658127,-17.3348849470089,876.73892624277,170.233793947223,873.796765357845,140.352628971796,603.028540937692,53.1348165216285,312.534268444215,33.0306705097245,214.639499930618,48.2139803739765,895.902264097811,131.256355843549,146.759712594894,23.2901538654949,660.789096894865,168.082400396954,314.633585649577,14.9907976063734,572.434851815008,50.3654352842767,127.030335132183,54.5212934527941,656.633168266261,221.149502067097,1589.74243820658,109.876753125328,481.484087885129,-15.4067345978152
144.306258265001,-15.4348412000993,866.696371187356,173.187944568144,872.050955943258,127.578858163395,601.339639920417,51.5346102993401,294.647453925136,49.0165848749436,215.946194423642,46.6083845429457,887.183044543269,148.68032312622,146.835620487196,22.7923191004151,656.312738778376,177.150502628374,323.069329421877,17.3107683138696,571.970456129703,52.4967437342888,129.384266499248,54.2207449910967,651.718481374621,226.839359667571,1588.70235514931,109.249906613246,491.328996891275,-22.049580360347
147.388638411296,-16.9580966596754,885.321545256073,170.266547521514,882.921500230928,127.285466004303,616.055847681702,49.1297783384191,305.066357529275,40.0380221808415,220.269311219555,47.8002800105617,898.737637512694,146.025979519342,149.108480802593,24.256687353083,657.455961110208,172.043064533954,337.018165079459,17.0349624079609,613.56595221221,36.5148750117523,135.179687169638,46.6616161840387,656.986822615732,228.760867723205,1618.85299591337,106.879305739179,500.730039524365,-21.1285235749093
145.700472181987,-16.7961243094417,863.304913741398,185.782484433243,879.656421029589,129.759100585719,588.608798470273,51.605281351551,300.17698330343,40.2420000686722,213.327259477174,47.2585730186253,881.741446721481,140.749290221118,146.219446250114,23.1396506429558,656.336707070591,166.66537266796,312.053800641668,20.7412010580741,585.114640034876,44.8709192190007,125.856929864905,53.1008089422603,651.875197237527,216.328133741652,1590.46306610898,106.329200498663,487.932023772844,-22.7946537471273
142.6743872366,-15.624382344544,873.829248152849,182.43074134754,860.373887953053,136.232295102948,589.188808655526,52.4503300109742,309.262725124796,33.5264679009852,214.230000896356,46.1130989985722,894.599178128292,132.902387851311,145.284430237077,23.2517668104962,654.164618239215,171.989419667978,327.128869011872,15.2707329164437,572.972672546526,55.7302516263475,125.828716764191,50.7522672802938,641.75648962567,224.541393511396,1599.8746290909,104.196907737837,492.998498165622,-20.5394132144239
146.096959524316,-16.0520194055988,875.790409128312,184.936113575286,872.712151443862,138.483567291699,610.702043477597,48.4397050903624,312.03750448849,33.5031276664741,221.186329025553,46.8667554331057,902.765014529457,137.620209487711,149.866591187076,23.4161839743985,650.179466044583,166.334338486051,339.87578474912,13.8615229446591,590.351408921363,55.142925939792,126.641930929548,56.6230517222825,650.362169993007,226.942193528439,1621.24338640751,106.149851061783,509.239689613327,-25.3535412805499
147.981253100542,-16.0435941391127,916.225807633893,178.060161665497,893.925681973789,126.473191809034,618.004653925737,48.3443681542185,303.934085719075,44.5695044296984,222.183481504766,47.4313509439533,907.950580848041,144.005944626935,152.842772085225,22.7851549098257,645.564670679108,173.04786630218,328.888681898488,18.8066321766339,581.333363511451,54.9334455501786,134.888870646239,52.4657098432495,643.059526725278,232.891966604031,1609.62428447987,105.241988783373,515.670094276658,-29.7807415336372
142.454863540479,-15.9506970602247,886.694151795803,177.821903962872,869.19904023928,131.588394637034,587.430833456469,49.6924483170414,300.288042734099,44.0041779290215,212.422786473,47.7983643133889,880.646399427064,147.288958256149,146.81913652642,23.766731754616,649.129731073207,162.61594483074,332.237853197457,13.3513259908666,572.751013974022,49.6258637504545,135.021343974821,49.8818429968516,650.584014781987,213.88248239558,1612.85948883109,105.264551475534,489.969410735802,-11.6253150485992
143.57571503657,-15.5800004368874,887.305517627541,189.231170431255,873.713326448131,135.847750333573,601.712090756816,47.7511250598341,310.538137255175,39.2481968645155,221.792674911325,47.1337260076057,901.289414881089,149.18158047168,149.842807832899,23.3520175699672,645.685235337246,170.110600093338,346.672841071524,11.168001326175,603.261273248638,44.5652633701296,127.174584454058,55.1665167775525,652.668343476085,230.917489406606,1634.86951654636,103.72536336592,519.787149520304,-32.4917876063736
146.303692944368,-16.1711447199654,915.994895778035,179.926854149098,890.762245749543,128.72828742769,623.123430693911,47.287085263288,311.809103700813,37.9027147326598,225.46773462426,48.6848600218904,924.502887619603,143.886638385138,154.736627324043,23.2720049033429,665.398300686658,154.570586924102,364.618145046023,11.0835300171748,609.110695337986,47.5483487798397,129.676047018581,55.2967798157815,685.458195949432,221.619166715405,1665.45185316052,100.170585228303,518.081161337197,-32.609375809315
141.077667561023,-14.8484893012245,879.195319947322,190.649177874149,880.384359951529,125.486570043386,583.659397460427,50.84628576637,304.253963152038,39.9923379835762,215.498860956044,46.9306563345379,897.839585681706,142.237925470362,146.231443543938,24.1772180374517,643.568695309717,158.459914860018,331.466179845073,14.9456785508243,594.402561919296,46.097142903411,129.742996728073,53.1554222275824,647.099794434535,225.385588033306,1630.22838065989,107.030742868621,502.169241447193,-15.87576370657
142.398565554082,-16.0264776422413,907.175104157658,178.19082928966,881.556129086601,133.622276037671,597.547070615962,48.5515178774145,314.555042420937,35.8947163077056,219.739945696148,47.6075330802619,911.074227569583,146.708372446657,149.24203276711,24.5029515704253,641.319879022213,157.038477179027,349.35274017011,13.1167941583069,605.033330733509,45.0854959820682,137.365259855275,49.6631363489334,670.8668295403,220.240036496779,1649.14243078636,100.91083400413,496.607412666671,-13.7807914507224
145.730828616819,-16.0813772894588,922.771130308456,177.887114740027,895.915484108214,131.935469793354,621.489386268111,45.6452615889475,322.435375137309,33.3693690438711,227.515626503098,48.2697543150027,933.92361639028,141.983784721782,155.491007984921,23.5993654108196,645.848612863853,158.281457619511,365.304807986457,13.6894629277186,615.457357406281,46.592862939063,134.329772368281,53.1084376795719,678.562043349624,232.619509949954,1679.07260237458,97.7970565137454,520.875710113766,-29.3612078492366
143.042296568341,-15.8830108419754,900.027619864791,187.444899285859,882.038114443041,130.35729457699,591.406744704237,47.6230690422446,298.803114145273,46.3070962674274,218.680106166229,47.0767060081952,903.428863816019,141.373274482378,149.56413558411,23.4651357814068,624.214244460068,156.124107435244,339.85033395045,11.8540806260314,589.79730178945,56.2735457336557,133.959109142862,54.3672259962008,664.745329579384,221.430754019079,1641.1102642588,105.821490002752,503.429005055652,-28.0080223078575
142.655533356146,-16.0003765995928,902.017328881347,179.196845555972,891.501457846769,128.604736795084,591.897594990597,50.139702886138,308.336483152829,38.2439193385783,218.562175578875,46.5643748212877,904.759413010679,136.795155276112,150.073390028585,24.1077462646489,625.553004050587,160.219423061528,342.37488172996,15.8997833476837,601.438161300118,49.9106822418355,130.131675192803,52.6969589243656,671.131606580817,219.725889850806,1648.28420170286,104.429828910735,505.727459487014,-28.2469768762323
147.601504233966,-17.2202593726561,915.371663782717,179.572274740117,896.903466694119,137.492525095325,615.267990656183,48.2782483794315,314.394300526249,38.3672096039478,227.138450479892,47.5351618468101,926.663822731801,143.457955815954,154.157004373678,24.2446974591453,641.079608639551,155.810220667282,364.465074438699,9.91182144459004,621.9979779952,50.2243964785142,133.495951392623,53.1174106061053,689.833776659118,219.102325275992,1677.84048426578,99.5786612933882,517.878258533776,-26.8705171957905
149.850046935006,-16.0452726481878,957.663732623176,172.228293436289,929.245306948884,129.161346950254,641.204036108614,46.0094854381807,319.555836632394,36.6755120694629,235.125357271534,47.3266221741362,944.756118042808,153.279699087913,160.010367796061,23.3568992630956,632.043000337093,154.117495037571,352.210740243657,19.0567243236036,625.832265730169,44.1681094678221,138.398538639201,50.2239992496722,694.010244499343,220.951350125341,1675.94244867265,101.364556589521,517.018985426328,-28.3999870726018
144.637136390942,-15.6152449324502,910.943056764182,177.914303419645,899.085512513032,130.246802556242,598.904027259985,47.5120407075281,306.295326360262,44.5603852145198,219.269795668014,47.7225345623627,912.636270110912,142.091773597681,151.572232035433,23.4486851759174,622.865536217967,151.097764265798,346.345370968393,14.8379061194423,602.037031285699,51.4857104154875,127.347060145647,56.539770940714,679.766954869918,215.40116571657,1656.67911632034,102.015179480537,505.608516141246,-22.516543894121
146.715392028988,-16.5261239675617,917.248250717022,182.510427421771,901.220634129761,129.71129323476,611.382349496581,48.3087716785149,310.920569537383,40.0534917145484,225.590380824212,48.0175512855616,928.011400178056,145.55153915483,155.116584911844,23.2098133411893,628.689366532822,156.390178957667,356.330377821629,14.6262835949396,610.085882338981,45.5393928136661,135.002187072464,49.4178792038484,692.938565131449,217.669983697642,1672.57294768405,100.184238737934,511.542490750339,-28.5925366518326
150.882057088566,-17.180755427492,952.367921865597,173.273373178637,924.100641867814,125.001858076287,637.423993979859,46.6396734794816,324.356030798288,35.8342177148817,233.464640615377,48.2466708054866,955.93458541539,135.51133478033,158.678699270343,24.2869657026111,632.587198530711,150.053622287774,375.049034322079,13.4220272497099,639.784567654834,41.2038979331585,136.188825598296,50.4385354323169,699.661365570408,233.045491081413,1708.27822682258,93.5097260291865,534.384930361625,-40.8816655768686
148.034526763618,-16.3518694548016,919.799467521394,182.50812329254,905.950376214982,126.741288297532,605.113361886252,49.0459982303201,310.083170843953,42.6487405833807,222.20032840227,48.4212361446947,921.367826071069,141.684532084254,155.915400820778,22.2677148710974,609.683340418628,153.814055447171,349.752175073712,13.5799537604645,612.279829826475,44.1867334243352,133.701976505736,50.57314453655,701.35118065474,215.99488922345,1675.43375915266,102.255971265968,498.998054819242,-17.1280714119882
148.316431622779,-17.1929359028746,910.540736205371,188.180763707076,912.134371651934,123.610965934174,611.575967260909,47.8160370474192,304.312265479359,45.8369370005182,224.941021640155,47.2998024137167,923.728587084993,142.750051404001,154.712141442429,23.0905014286818,605.357948616867,155.718222303834,358.73753569702,12.936065396257,602.8062746007,52.179761595765,133.179324786393,52.7506721257535,698.728404112977,214.411517627224,1680.79388713934,100.068282817499,515.332712442958,-25.4735142429043
151.214941793828,-16.9004130332452,913.449640974326,190.084511682325,918.415848424485,130.734218941235,638.275007795294,45.8945023433519,323.078514952934,37.6971795208427,231.798094766394,48.5852335062399,946.347928910386,137.88018349142,158.789675512898,23.8286474083688,617.021293037948,148.44402957695,375.481191051143,11.3876101508796,638.806176963238,40.1992987601431,141.292817325762,52.5929472579782,725.573697291366,215.69397298201,1706.45455386157,97.8406907616283,527.801119198705,-28.7923840974254
155.80792917688,-18.0346255622546,952.381150807533,186.211194538296,944.643679365466,119.858955118343,648.415214705156,45.9482378628551,335.619492938098,28.0662693166914,238.169202933392,46.2586111652325,949.751986139137,147.98761301508,163.051877869765,23.6066521632301,613.132894476004,148.015181308513,379.818272977521,1.69047996756755,612.277663151582,59.4960809685021,139.768568939594,49.2264512857823,701.378498215143,221.153851113854,1687.81096107969,102.428098613361,511.416249927093,-21.37598663701
148.585635106613,-16.7159064092224,909.504957608946,187.500415681149,910.989077224503,122.934481513293,614.174348632545,47.5977737149547,318.052532332427,39.5835119612641,224.662823451025,48.1489123083852,922.415765841769,146.018201275687,155.01177475258,22.7759233302774,607.120243276885,152.139590944193,357.511713555756,14.5761957967912,615.513667953664,54.0287868339961,128.122545646253,56.013645114022,703.207079186764,225.757391878901,1674.92579110134,102.153920177284,523.428426875799,-32.1120607377137
150.22413371375,-16.2687544777871,929.391517176576,182.541071502193,919.822899549958,124.095806008568,628.834134271534,48.0431044622699,320.754183663691,36.1907679458531,228.878587249942,49.5070084031007,946.507164165192,135.405299872787,159.146125019986,22.3509391576846,617.222188322031,152.265613030175,370.403621574939,9.95594611397698,628.573019575867,46.8127524127429,134.899288281435,51.4576295850105,707.577705966487,221.318305986962,1697.03997645744,100.17179673778,517.998318223356,-35.3906002781281
154.855674535652,-17.2712940694061,947.724824093582,188.55079340262,919.529028911164,129.963098641487,656.162902742085,43.4005308121631,324.183971348796,42.359828892825,237.866113547829,47.7348867468231,955.385541328938,143.344561082096,164.389000342645,22.3907425039933,611.617167296231,154.795520560182,388.362616676277,12.0829498606457,642.043525966087,48.8814912222126,140.098348373828,51.5565915326444,737.554229907593,218.034854989597,1727.91020346215,95.5505509131293,516.395589715998,-27.7938645109353
151.355688701274,-17.7610258982053,924.695036457564,173.421976712105,909.002551841369,128.116683831405,617.683503402818,46.3605737196452,318.487470198807,39.9247277266577,226.639588812097,47.4759430717606,934.149428258059,136.782599548827,156.444764647022,23.7609486452687,599.066101432614,148.875594671723,356.905679516183,12.2211843036209,616.283461761067,45.3385723068311,138.073859945837,50.1159458502193,700.370682915361,223.942954798565,1680.5641025847,100.812785095791,506.180444220418,-18.9037440659771
149.888548479853,-16.6594589695717,916.8195382555,183.29304420892,906.889150464389,136.230167063727,623.228907291183,46.6569228786456,320.017676968562,42.9457630958592,228.026022190169,47.925916819054,945.551617387281,135.602761427904,156.696104917068,23.1940442332981,610.839958198799,142.758209793813,367.872330753123,10.7999957205361,617.716857282315,43.9409748695693,136.466678829996,54.7040346547702,700.081862788194,225.639383936952,1691.24772458924,95.9411129527038,499.986311055741,-22.2227518249248
153.980516942367,-18.0174033510258,936.649706733344,182.37019275576,923.106851963696,125.786274455072,648.311591489308,42.8561525344591,324.956724407605,41.9848089609959,238.457549109237,46.4218433169361,958.108541157802,138.706047384402,163.042054118445,21.6579313306033,600.78420263509,154.910463245774,384.979531201287,7.32092967350084,633.551454806549,52.3073322140981,142.365733660615,47.0128720125554,734.620700846774,215.267236647214,1714.82392892614,97.2600893858893,503.308991780932,-20.5349892045194
156.098218493429,-17.4117626091348,973.227394207572,172.848180105145,944.619053306493,121.629538533957,657.698478319154,45.2952669225542,335.580848703376,34.8905240170693,241.412722725012,46.0173938893778,954.954770256434,144.118426197553,163.61360865674,23.7841986419556,599.794864045183,146.272451492676,365.888720440956,8.41345030574861,633.045029841769,46.7608029391964,134.219631240703,52.5919778086309,724.236021953501,219.774862736598,1695.84512597269,99.2505316497753,521.535919186438,-31.1456235242195
150.648046135815,-16.8890757557135,925.411371963997,182.047173504936,910.097016568888,125.321560140797,625.411827957575,46.8824481145113,326.175253180248,32.6531312301962,228.116047723342,48.1411267953438,938.415405892211,138.899495169091,159.116637099926,22.4708904311517,606.866159635752,146.017755918855,364.444719256637,12.0225914931721,622.414818053476,46.6456354989673,144.474345020449,47.1635663936691,705.078862252933,220.713792792808,1679.58295897515,102.815368581996,502.016084844784,-22.132161180566
151.262789461115,-16.7828143684403,945.051441482732,174.810108419766,908.415574020763,130.205748230292,637.164842079632,47.185217638512,317.363499595023,40.9045248275793,233.967106321037,46.8441893328707,940.015136931802,146.958823553929,160.216618865115,23.2638321270929,600.322551490561,155.159487629024,382.283286159459,6.12019244176926,628.033833813992,45.7627484792156,143.084536903515,48.8970259817719,704.669783102351,226.790006574399,1699.77991011695,98.7248513112386,511.705516020869,-30.1723670714404
155.708031116009,-17.199560333672,936.324618896066,191.204621884455,926.198068815094,132.337209061305,659.165633168154,46.7409219235644,332.082991371941,34.5698312959462,239.693477150041,48.8851955503772,965.775772295266,142.828963161137,163.927785406548,22.6847198266112,609.097932367464,149.677396253664,388.119116238994,10.1576222598506,640.666975424958,50.6403584637862,145.162565165189,50.5961076128614,731.288962007589,226.835885460323,1727.47040196357,98.9931939730376,519.058987517894,-29.1190889575966
151.137167449098,-17.5348087515578,911.951240570564,184.900480575853,916.43722427017,125.37968731547,621.482850212961,48.2339087559056,304.739320912094,44.001306095834,229.706995620656,47.9215015219206,931.452563297942,137.395106517684,157.656798955352,23.3738412702974,599.167982296226,146.295307513153,374.162425783158,6.01157412772721,611.936271474483,49.5020320869973,138.757865723037,51.6381056833761,709.111752144469,222.937356579104,1678.75907149171,102.255210145636,514.505751503349,-30.3233101971196
149.856836051992,-15.9708017495993,923.788538598447,189.346540486243,905.371740545588,138.384090831842,632.733613063433,46.9957596780345,324.978811590838,35.0357328383071,230.184198027089,48.4183422874141,933.803167465052,143.753027487164,158.599761457421,23.3650585710135,604.402789592314,153.311655097572,370.193655627978,12.3612378725465,626.787329985336,47.8311692936228,142.213993907314,51.2309223761698,700.678413361265,229.329991268776,1685.99628232149,99.9937994014646,518.11261192245,-29.4504012016714
154.549616355435,-17.5667995941198,936.876432202322,185.413997319253,929.76186349813,127.314755914527,654.302507466251,46.5774103280878,326.740555183953,42.9573514410991,239.827841015355,47.6535987554927,942.210831911658,153.863705785214,162.497319896961,23.3822614790463,615.384830626019,143.789224328678,385.651342130286,9.33266617644728,636.364940629136,47.2032373280832,137.220377095947,48.4514692280957,745.359991772543,218.264420036714,1712.93805926452,94.4628353094303,507.924681551375,-24.0043456941446
155.061125962726,-17.6623474185701,941.678896417422,183.75776094986,923.880573220635,131.763575842198,638.262647298076,48.5311567531776,313.653998524435,43.5373422616354,237.270815295228,47.2852905800215,943.610855587562,146.944450052385,162.747955149852,23.3345324041771,602.931289300709,144.845548943411,367.90141733367,12.3413494781032,622.120517972765,50.181935685222,131.186335446632,55.7578358856563,711.295208819458,219.986031909583,1675.35292182198,103.376485650502,507.95773204336,-34.0441834210488
150.363371771918,-16.7509458524918,932.798704273154,173.127113879708,900.28232809481,134.382689275557,626.914074632909,48.3108220731452,312.734957273022,47.6288881805453,231.01515846563,47.5017190337876,925.459890583931,143.028652141828,157.859230366976,23.3921610878608,586.609935362715,158.08816719566,366.271545343631,8.47952094013555,615.047873638352,50.3142024418444,128.278114591162,53.251000059596,709.212139622352,222.230987232573,1662.86381939908,100.41017856803,509.827233032521,-22.2494406690426
153.420776720048,-17.6949341209468,932.835982319802,182.312977889359,911.821644498433,126.598891727925,642.456510560414,48.6961876504521,320.829649644628,39.3192544372066,236.286512790965,47.2962038535475,953.223045894221,134.435530775193,161.099356393145,23.8260153114906,615.0422281903,144.22868354968,378.602200287496,6.89107680595434,637.548941107341,40.2555379688065,134.33775498585,53.0062970045979,717.205215434148,225.282342696512,1681.01592146102,96.8612570445202,501.154633116622,-21.7057505224895
157.264084689897,-18.2613424189917,945.833926112695,181.090791522118,942.619366071604,120.678590379585,672.846265718262,44.6203665947616,334.29731901306,36.8424889860604,243.246987989759,48.2073248229393,969.912913778364,138.73227105512,165.345987126349,23.1650136285256,608.995084559981,151.26962133089,396.016210373802,9.90391333945248,650.880230552217,47.5848067309939,137.755914884328,50.27906434755,737.044073771457,230.754895918259,1706.6825886295,97.0719558054542,516.664711275564,-30.8514593224706
151.048067586301,-16.9681581494937,933.014840336686,179.548404831358,907.554771311706,134.210627847547,627.885534290497,49.6716260143668,327.497098027759,37.3791542990705,230.628468226489,47.9907246833664,925.726452319576,146.545118272988,160.521185733018,21.9698654030354,605.960650761094,150.343763176818,368.230645355816,9.04007736119499,605.690678078433,57.3067893627672,131.622226786149,54.2806858734338,701.092603985428,229.080500454657,1649.23599467728,102.84447280325,498.236007730846,-17.7919089206368
151.767498034223,-17.6122461963763,938.121456131449,184.404300427978,908.933124332663,131.004078311087,636.653031757102,48.4681288195533,314.571746962205,40.9915956697799,231.738991206846,48.869818445872,920.610965209679,150.489903076391,157.807996805189,23.9630954171645,605.904208198993,149.026019660888,367.738561463109,16.0930843994408,628.077906956473,52.0464083560126,135.1742266035,55.3207021345177,702.756178901062,226.474331126557,1650.28185979185,97.9424762202494,517.627499525963,-32.5882614749389
154.727261567275,-17.1240104774355,934.185407488666,190.888428692952,914.477993068919,133.757569422331,660.883861828634,47.8868122229026,329.288962240842,38.6246213672649,241.135949938585,47.698253100697,966.134317654609,138.192399797104,163.398682508071,22.8567519854149,609.658389305346,147.314856728721,390.424256564548,6.6675385953644,642.003780517099,52.5213118226446,139.728454329601,50.4314016266016,717.216651709615,225.651452462399,1666.53525722749,97.9665583536938,512.340178869862,-24.4052658706483
152.941092299243,-17.1187207323506,918.47217199909,182.285636039188,909.832362946225,130.524517715359,632.674478130068,48.8012245139774,315.786812561077,41.0551356043695,232.612729642181,47.6300919111103,932.280730987818,142.748012554867,160.136966272422,22.5606228081561,610.240483952995,142.836759578258,361.727464127269,10.2656685417586,613.892546505364,53.8562311081178,128.110107611127,52.6274579049858,702.231141226008,221.476652164614,1637.51254910556,101.806663302916,503.914641273578,-28.4091868833126
153.096691741662,-17.5229809929677,930.925888361627,175.542605128054,897.006021557682,138.443089344423,633.058290448989,48.8229315437615,323.880349746153,39.4835523101686,232.15851651691,46.9924204639225,933.614321304703,137.915803699533,159.1636119559,22.1460438840413,606.24607715788,144.735544523176,365.875490859646,8.90769127139332,622.312210883653,54.8168414210503,147.815104674619,43.1773148268622,704.098282254621,218.526204373854,1629.7126225622,103.269125382033,502.102703644221,-21.1352985411894
154.617801619284,-17.5828473691779,937.365087262159,181.859027044409,919.322980455444,131.963582991209,655.873010538756,45.960189803442,318.557088353138,43.8632481892583,239.226657309152,47.3436391667347,946.704846393228,136.49506601771,162.465285761803,22.4910250102469,612.75872357873,155.363192090586,384.570294774573,9.64534541802593,625.045928371278,53.4462157675805,139.585993989641,49.90179086489,705.895088538676,225.830898790159,1650.36333113856,99.8593881014864,516.857680999626,-35.8568524524085
155.536906114034,-17.3532940116505,962.251674580604,169.292477965081,909.293696719387,128.733109469577,639.71358654876,48.6200072584254,320.536717433787,43.626425080229,235.344956289643,47.6751593285175,933.273582842333,143.1473691357,160.248922643976,24.4951339733302,609.057889550071,146.951598638877,356.357057688979,11.3737555292367,621.20699856175,44.6084407945359,127.706616235331,54.5312114570433,702.120027409111,214.886146496924,1611.96208686548,106.907600939598,507.025849407441,-23.3811840085238
150.929036387917,-16.3551017971302,923.699688955358,169.705084316297,895.890860744702,133.01694115833,626.236191000172,49.0919582856399,321.932288927211,38.4359425425392,229.661360207589,46.7582765150285,914.501067487804,143.905257849869,156.37806292145,23.0041116992699,609.619951444504,147.034236384254,360.89074663362,10.3094899955203,607.894511104933,55.8236745550684,131.452747592919,51.5885429500256,694.722652223357,221.343460171902,1601.01548364646,103.419995170452,500.691410382514,-23.7543566776431
154.009289658665,-16.8937379266765,934.842969165146,178.127312225359,904.859092639468,126.386431924973,641.147859405085,49.7162780077108,317.827847022709,39.3792431574626,233.245222061928,48.3210205949247,928.663712901057,142.666069677326,157.859456246295,23.7904698821348,605.82171521276,159.247921284259,373.528834155097,12.1192830462894,618.77529352655,47.5248913897551,138.095878498522,48.5381191273574,706.071441124874,218.169909726572,1610.45319042437,102.89201032005,508.315575782901,-29.6016033842562
156.951781083312,-17.2085215551702,956.616141173774,171.96961193578,914.797335312326,124.501438905054,656.774685996469,48.7699379293017,321.69671054603,46.080025962394,238.107958424037,48.4427926554152,938.357630274273,143.450674883865,161.716638215823,23.303660678423,605.088481217601,153.340867555208,367.430776749295,10.0837027539263,624.042553840196,53.6836491110958,137.435242541418,50.0190317445565,689.66663195701,222.777608754935,1591.2583359283,108.048695433134,494.9162004134,-28.2499829534201
151.598655385088,-16.8404917862495,923.806889717776,168.259727545972,883.457639877793,131.489553089426,615.278430897895,51.315948433446,315.124319160294,36.8935470477855,224.561473757215,47.9079347084825,898.335289699009,149.633053850667,154.006657041309,23.1755160413985,608.331017854617,160.922140124731,341.010046178571,18.7159153305173,588.957326508316,56.0981100050819,132.611899371815,48.6962797682385,674.941439800671,222.380956159172,1556.51726875344,111.297250631241,493.617461699473,-27.0342794503112
151.740467134798,-16.3495979385215,908.899681108824,177.036739242475,883.563416162796,132.64327592698,628.615258279443,49.9027193865574,317.057965292986,42.4141437896276,228.310248804631,49.0342692888574,911.838239745624,144.896083794758,154.419763892131,23.5928734824007,620.179994268214,152.6515909464,366.306318255836,8.22141061085612,604.86981212119,50.6721449486818,134.83767498024,53.0527624576849,673.526128390638,225.882212738319,1566.34659092786,109.385367680743,493.630284705194,-25.3092057552317
154.718825249444,-16.5238074807296,927.58262900317,174.576629139933,891.543168698649,131.413826472142,651.170091568207,48.1024897917947,313.533127059894,44.6088717868605,236.723831737787,48.0895968932551,926.115591123308,140.278543774024,159.620046869383,22.3522513580289,606.94819679296,166.633873560629,370.521253440765,13.6344780378129,615.230006731297,55.2133410576546,141.375968608562,44.2354135887938,697.915206960731,223.428494560807,1595.07347769209,101.23620719152,497.366231361584,-25.6330702628407
151.22537478739,-17.2345710830445,909.248599451964,177.628838144518,870.734319292584,131.034860306759,613.13532751404,50.1328155699517,306.567096627644,45.0344458723939,222.684769753671,48.3673176076936,900.280289209024,145.662106311109,151.402582586176,23.9194003001279,606.005035707107,164.406319061532,351.638302659799,10.1559605308323,585.978181788453,52.0342043817121,135.698457179632,41.6654112845339,657.999395479014,219.948858367849,1537.2937079089,109.612648413883,505.723387040664,-32.9281363574278
151.83592070567,-16.878228623639,898.376151191719,183.000165569627,860.125592090444,140.492027414103,623.572671302186,48.9478437654548,314.084467063379,38.4732729106917,224.737568729303,48.6674547585256,896.470437425419,142.456027593488,151.948312898557,23.4272637939039,622.936017919762,155.387057486772,355.637814855515,12.0326727834573,597.841978097553,46.003778228096,122.437040563779,52.6846477092115,665.651042842733,218.634815438284,1537.92214070524,107.406902097838,489.904241554991,-23.2827477689413
154.799865278475,-17.4211592731052,911.791198681591,179.268625673162,881.35783620483,128.237677942343,643.296948889338,48.7467825811416,310.159848705402,44.9308701665666,230.8779770887,49.7548211506505,910.000277322169,140.227372423738,155.882966980159,23.4726432220569,623.400005966828,151.907432606866,362.538079256001,12.2459253226711,618.479544393512,45.6691430231563,129.642814228297,50.5666164804484,664.46195466087,221.128192553688,1560.32944558806,106.036795921164,487.527948941342,-18.8301384008845
151.49423520632,-16.434484889527,877.502869713158,191.93113814364,866.099908398466,128.143777378517,619.603205054086,50.9797080879039,307.396332723035,33.9845287576819,223.982515815672,48.0716038786037,878.48118069198,147.301414777688,152.457258852811,23.2917431286685,606.65686831278,155.992049406529,344.304720162386,11.9308594536231,590.594595946919,50.0541811688823,132.093048572987,48.5340530226603,659.535980463455,214.519724239821,1525.02216425215,109.217231938259,483.361434619085,-23.0547435898128
152.21571073708,-17.0222850750986,903.682791234332,169.37898126187,865.02671385623,124.45355656446,622.170442397993,47.9857953978396,312.082571893872,41.0494350366567,223.057061283601,49.1538184136888,878.479507800872,150.298917261896,150.06631262023,23.6562550678871,612.568220400192,159.922031386968,348.296890704052,13.9762567503778,581.625552264859,56.0617283544671,128.820365347587,49.5104961950749,642.066950848773,226.027008759977,1526.32938684745,111.33452188827,482.230847947747,-21.9293552213512
155.058848486169,-17.6995712896253,907.12629424896,172.510204746719,876.133615110731,127.081226940178,640.132953210876,50.4208814767346,306.991534632439,47.0582540026401,230.601053248696,48.2973722113092,894.663469181978,146.107413753626,155.264052110684,22.9486050474919,617.468103973485,162.274780117197,366.647375342061,14.2856863661694,616.154141626192,45.1758344500613,123.402322603755,50.8567824187638,657.659587765725,219.32624453807,1551.42059349636,107.117314940839,476.616607031341,-12.1336905936747
154.749759804215,-17.0674445705843,897.313115958707,182.25623862206,868.766074932861,133.626807703024,624.128357854779,47.8407358573974,302.38990630527,44.4520750051922,224.862661659394,48.4733420387682,882.268700915694,146.134594631515,150.893767698032,24.149106934944,612.330966329766,154.197031320538,337.86062052022,14.6014621994177,583.752390229716,54.7838590279996,117.1846582118,55.0432171519218,654.301175792723,213.935097160528,1517.34025499938,112.356740707979,469.058855613102,-16.0763748614932
152.568985211457,-17.3803449733107,882.045667400607,186.03194352565,854.668050959785,127.970012644252,618.389231933425,48.3628056704794,302.0850996164,45.120883318182,220.982576214018,48.729160946623,880.900490350412,138.584625964911,149.844644286141,23.5649232302577,611.763235087766,161.117180332696,339.38473234328,13.9860786209859,585.072540047189,50.5729014767165,121.586260207049,50.2715608012693,640.968196301547,215.252491262416,1514.85820594704,112.392242756817,495.291168909262,-30.9228642004331
155.146767727667,-17.6040857191854,893.123972063332,182.278025547239,860.557823085851,132.027027764279,638.595081012224,46.221618967303,302.782859186447,43.3432412788595,228.376800983913,47.2058203629504,879.094662293154,147.006342037451,151.987958684622,22.7287081684755,603.07092492518,169.35475984955,359.016265789584,12.2559599643985,595.031166691113,51.146976683669,127.758967316642,47.4962866589552,640.46675145969,223.305912801111,1542.35199816626,109.788388827794,483.005044960571,-21.3969744343525
158.348070532228,-18.1901337312328,904.21232601497,178.24620384358,859.094466258962,137.480969817361,655.162565288039,46.3376740828488,308.36646342893,42.1107890446665,233.728365712367,48.1232026260595,901.974145087238,142.796165399272,153.968262774981,24.5879496363342,619.484559997209,156.608042473869,346.239650301668,14.5189722795166,588.483264878785,53.8391859331253,120.478178069904,52.1241855864152,645.49031646273,225.673368087096,1533.68440961774,110.906664330373,480.637154035015,-18.0255471387498
150.694112351735,-16.4492124097213,889.487768877463,178.198207533359,849.601899902422,129.295939806733,614.420018835299,49.3002371156184,299.622731596647,38.4534128931641,220.835868092152,47.9410672897419,861.781344836792,152.611182136771,145.706049066014,24.9878059419527,611.762200940553,159.231215164841,330.604797366166,18.075358814375,572.00988204848,54.7005552869844,121.230768922241,51.2490627856806,632.835592397691,218.535789768978,1516.69373622347,111.767608688101,477.355287067193,-19.7349487884648
152.693879368376,-16.3213180055061,877.282160819783,191.233770512726,842.963243203446,135.621929252262,627.244074966933,49.3231869967044,309.332079149744,37.6313413116032,222.202964162118,49.6186118745801,868.710120143521,157.34438686423,149.613046839895,23.4084725847213,618.706638777837,155.590653762757,356.186727179062,10.944167618786,586.822414552877,52.0629395303655,113.126203990669,56.3138644545401,625.708310027458,226.780185985436,1538.64712262028,110.227437374005,476.603877459609,-13.7767285051194
157.074970362975,-17.9647367937584,906.132468586839,178.848753690325,861.659307489025,131.831744962323,649.154941130592,48.3721378524214,320.093023520028,44.5132787613975,231.85732703257,49.0830840750535,897.916780850168,142.50328309626,153.411828594266,24.7882524011772,617.675214839672,160.270884973472,361.457652957037,16.0791611473659,601.771822352769,53.1045538312285,128.097229857606,51.2906880743854,655.849720837013,221.449768240018,1570.61210171305,106.363824475291,492.576999459806,-19.6200642302266
150.424743812551,-16.3476772932277,884.490060192275,176.652923970514,827.983274010051,140.967581271929,615.891739252482,48.5285021442382,307.426905794299,38.6457408662373,219.823851248203,47.7241729538175,872.751488292093,138.331261330254,147.831028639361,23.9352752306275,606.353208669496,161.897822013097,344.01580711253,11.8458875955305,571.067390198703,59.835436755317,113.73831920791,56.8454055744601,630.256208733918,219.317642742611,1541.78433978017,106.974828362543,486.383173501918,-17.9824010017187
151.610352141775,-17.1436572390618,874.15997005626,177.780397914989,853.984348457336,129.756184322105,619.134481459199,50.8734123376649,307.155405182163,40.9613340594645,222.60462025946,48.4474527598325,866.523800239265,148.222763560211,148.652142672543,23.2274526231782,616.480798759292,160.391108227007,342.58439010491,20.1556579579339,580.828566352431,55.3003095090087,123.478913993187,51.2573728871554,635.4517487903,225.46708360464,1541.65962070531,111.215877318819,491.268404420355,-26.2034642106077
155.433104364257,-17.4605425696614,904.267720272604,174.391709457298,857.793518898231,133.028072536548,642.63352194986,48.4508422182343,305.227400371916,44.512261902333,228.859086658585,48.6190134905171,884.096508891233,154.259835827427,152.198840258565,23.8384184908153,618.563872083173,162.349389252692,365.128281739276,13.0991860057731,597.760402367293,56.0511867724578,126.564539954793,49.6094379371681,657.642520827412,211.570814045774,1573.49977771847,108.039334928331,489.249020703805,-27.9284508553875
153.925346975148,-18.0048109252504,874.563837243408,181.834804118308,863.135136787948,132.841420208455,618.409611987999,48.8909387933969,302.259202923751,42.0363953661441,221.688366256464,48.0361367552203,872.76602972502,151.34525373945,147.985116039014,23.8509923331467,608.444692883195,165.819644962306,332.701947301111,19.5175088765311,576.183541131919,56.7480978522949,121.243371347148,51.552684989228,626.756640561034,226.139414420949,1546.89390770648,112.827624115162,478.736187742818,-15.6248455552546
151.725492927634,-16.7559253343276,874.790005126253,183.509849423846,841.307272330757,138.230739526271,621.579333480057,50.0870738100353,308.24502513617,45.5136758684867,221.354443519651,48.7289110080075,872.217674746484,145.978320993225,148.685017000731,23.7523847101772,625.710530259777,157.479221584818,349.976380476138,15.1464255849566,596.710974882057,45.8444170128621,121.969325039297,49.5576761327476,634.697306616245,224.741171870658,1560.38228732041,108.233059492811,483.507128444173,-14.9178915246252
