151.941952441087,4.5749587994842,746.792540570713,53.1293688407559,573.066121443678,4.21909521920657,309.046751148603,-4.22093917883644,471.495694496943,42.6123297174929,708.794537510645,84.5647192920599,1189.46137220918,127.260343459017,213.260036505677,9.33115996963748,538.299222013936,130.965162176282,398.869609711529,2.91848697289913,1361.07401157297,79.031448110254,90.9934692982527,7.85712970418346,40.8267725766938,2.17825883678109,304.752096565997,-52.4549522744382,419.25767304609,36.7162815145065
150.217586602098,4.65254256639744,727.129109778217,60.9957455686754,570.988400814487,4.63981769685334,301.722017810452,-2.9944578940588,462.60901285596,38.1649899106546,692.694608352793,84.0220255877961,1148.12414200647,136.955654566068,203.610407956019,10.5109456384575,522.331973700185,122.791841685052,388.086691121852,4.45750142275694,1290.07038542485,91.1652448753857,79.7234642818847,11.6563350390054,42.1926576073353,0.101037052449377,296.475582275177,-51.5046100258527,401.673311831158,39.6809113922373
148.746686161256,4.94223514385745,717.086255845361,59.9110372506457,567.300737780256,1.93889640335567,301.815313968937,-3.26805900435382,464.25928516451,37.1432391480213,693.973071062641,84.0578918860256,1151.41853668996,128.785462262934,205.351695634878,11.0395953698924,524.446829368079,129.68466250734,391.480060160642,3.75801217276109,1305.1558955775,94.3122295548667,90.9935222492678,6.96561166940692,36.9171439329953,2.50912037463809,297.943993167539,-50.3575369896562,406.944219910081,37.7726228416453
151.591313908906,4.68787163344617,748.317713592114,51.9233419669302,568.820549033839,9.16776877127302,306.976588640162,-3.53757087088463,465.826736239777,41.1100040496163,707.918915590072,83.6777822890312,1172.68634096385,125.78471357,211.968903510971,10.2760727438988,534.723638434424,126.330731521992,397.476895183224,4.58489074726438,1361.14962521563,75.5144108404188,88.8217487356364,8.2416763482986,42.6319614138592,1.16211156189287,311.994107666933,-58.5153242350667,416.622826139093,37.4108202578909
150.463696240878,4.81738900474861,740.224757546209,46.4018244695698,569.741781170213,8.18412013638007,302.695714698734,-3.61501741901141,438.084102216923,49.6516519378488,691.375189362984,84.1281701775549,1166.75767358242,116.200852422089,204.282596754918,10.8504859433529,514.676053129606,129.097967206027,388.873032831307,3.92533467628389,1313.64668867102,76.593151978602,88.2004323067457,4.89736939272896,50.8216768211822,-5.54460886466626,298.08632414385,-55.089399694902,405.297468055932,37.1761643589547
150.023352035512,4.61125423000024,721.703370068268,61.3688325575338,571.135896141903,4.01723520127695,302.694757158028,-3.33932550484887,454.491649414297,46.6524439246676,695.132413353318,84.656888486093,1161.33450091466,123.889885095639,205.122867523965,11.1368392280466,528.094005779403,124.725447846974,390.218135233981,4.44389279674574,1319.46064198859,82.5982415557947,86.5154540389538,8.06094736821674,39.6085728900264,2.19219667741735,310.755378741268,-55.4338372825179,408.291461363837,38.3253093824013
151.76063790068,4.87489358797347,721.835988505231,69.1010162461344,576.330304418883,0.0964289643799613,308.881288167542,-4.21638640477417,475.75244611596,41.4889615445021,707.00670199339,84.2955927030185,1182.65266459111,128.49136126864,214.741346661648,8.99101320499359,544.430975185089,120.866730870392,398.287896810359,3.46181631651329,1364.67981148535,71.0358325738263,93.9404392232786,0.802443262319241,45.5000104164388,-1.55764188879141,291.594730971127,-48.4435436176426,414.831244985998,38.0949949301988
150.186823405266,4.64948440105768,757.934787287114,34.3531210144536,562.770517965229,6.68183693110767,302.17526548849,-3.27410114744578,463.863196151447,37.2096965157224,690.011416659867,84.8504562156616,1137.32536573657,134.132985319344,204.430439289234,10.0613398157682,525.368509236953,127.874602136237,388.214653669877,5.78871584503611,1304.50412076708,78.2148939010616,84.7843089434689,9.56135479107124,40.3983667327109,1.91677653565942,299.363036526153,-49.5027817501764,405.512263312327,38.1732402865227
149.991020255758,4.84572296954665,748.66531859292,41.0090268832371,565.878345991657,5.58944645024414,303.355029936319,-3.47144681998786,451.615700900967,46.7954335496047,694.146322015507,86.1208123108341,1152.18819544328,133.254578300066,206.082543614174,9.98339665455491,532.222873995,122.741214042123,393.063830720134,3.60120187138037,1316.97923939204,80.8758096493471,86.8358615851269,6.07922979976956,45.5176416749506,-4.90892138432736,303.894680428687,-54.98930350662,406.318325658715,38.4001789221202
152.571221754743,4.65988753283101,738.096065887905,48.6664805619874,570.439493353074,9.40605604631879,308.874200113659,-4.24520439128495,477.356439804337,37.6036436868871,710.099220846622,84.2988171035836,1190.68014373647,123.251089459195,213.165301401417,8.980184666082,523.742801471981,130.648262888993,400.934401535454,3.73471239278379,1360.89971487895,79.0202680252278,89.6567584594992,13.571702819213,46.9541030925599,-2.83475349455608,302.055117054317,-53.3578126827831,415.466924271384,38.4973082106396
152.154109823186,4.46594162349359,720.081826815694,63.2290026039178,570.382197067731,6.81868843375593,303.823305245239,-3.41538188969242,455.766921069973,46.0304101666192,694.227886760937,83.9253654094867,1155.56377786471,127.12152874927,204.840333369512,10.8302701694563,524.674834636427,130.788664676878,389.855844012899,4.74810264028909,1303.24113654277,84.8527278604502,84.0639446996452,8.23734173904439,43.1181072409365,4.43661159837982,296.932145603014,-46.1257116796036,404.885834751607,38.0363909334204
150.100500014284,4.68161686729859,718.520528627962,59.4997278642951,550.312023124727,9.57339479370909,302.324079637175,-3.4091669917661,450.999583796549,48.2418519790292,695.280545376974,84.2000116010073,1160.11545803399,122.567775244031,204.505607316035,10.7403505826373,529.648573903228,122.043496606452,390.574484314797,4.8439785148485,1309.45565690052,82.1018375566249,87.3643666954821,6.77495801933052,43.8363704395721,-2.93511260869674,321.099341550635,-62.7885788146494,406.251210894732,37.2507326627567
151.760751323796,4.77489233646599,739.22799603055,49.4225909129168,559.546587664269,13.0983896933654,307.218713280851,-3.49468234520599,470.825727849681,45.0661480170169,709.450404369312,81.0603288948641,1196.18893614179,111.25259785865,212.210723344229,9.69216186913752,527.654852492674,131.746693715124,399.356868237154,3.05147680914209,1345.70224254381,82.801624755597,79.2383544322762,12.951299605775,40.3986325833184,6.94919575741805,305.147733340389,-53.2352169439118,411.638491529631,39.5515728945466
155.46402072609,4.24604351061094,772.082941344257,46.1589054879059,579.650270034462,3.38738808473176,311.565306295649,-4.26707263040705,485.490885577829,43.4956658551578,715.066926565312,83.0156264787695,1218.35301030193,115.165150843315,215.454370669642,10.8086192485848,535.911956089555,126.499979518713,395.786324878543,3.53644629003965,1309.75668855291,92.1499108751477,85.3432696571059,5.53516707710608,53.2037596231463,-4.60457670553788,318.047003939125,-60.4376759338254,407.371691008327,37.248624011339
149.57038729442,5.0659053365904,736.616159636674,47.8087338448297,577.474869717918,-1.99577958329296,302.869738545611,-3.051037026553,470.972798202196,35.6723608808886,696.715510056545,83.5716776808985,1148.12659044277,133.620379819995,207.550149118964,9.61411288531585,527.663205920129,127.754574300918,391.428344170097,4.69504796030951,1306.68580551515,83.2156068104049,89.9575083058636,3.0128161037018,41.7750990889772,-2.37323611488597,310.841530066665,-57.9471297117096,405.742338510819,38.8809179414646
151.202581090568,4.90413384363572,732.218566396991,57.707921053518,562.263570542088,8.32049691297277,306.556627342223,-3.59625406318664,471.042586984901,37.7872436036233,704.033097219929,83.8441644369899,1176.04959366322,123.375832988358,210.168005906769,10.2918774466674,529.657301571533,131.005431584732,399.556735835225,3.08983165602108,1357.97843263203,73.6108316302886,89.6421299021211,4.12568437936335,52.7797755048951,-4.47994912198122,302.947830388052,-53.4866952071623,412.448102363326,38.7826665715907
154.56056288921,4.32734875850661,771.52526901508,40.295064265114,576.566984878504,5.34573159200233,312.939571409017,-4.19398814184723,480.741335160832,45.0193522975539,721.487403454316,82.291990686617,1204.44196272458,126.383260964737,218.668356433563,9.24338588810282,551.120173839547,124.130907594694,404.499853949024,2.27901344161837,1385.98920021122,74.9692955717327,94.469368983277,4.50718977713743,39.7918334727273,2.2611596799705,314.136378817948,-55.9048939402215,416.744134339371,36.7360990686448
150.019714719939,4.70183146604483,725.781865739912,51.7767128834692,563.982029790863,2.46295334931757,304.186868794708,-3.12106922796556,446.619872894497,49.9003970219417,697.123577526228,84.7096176231642,1160.53258826504,119.1463221337,205.473648221667,11.075882327126,530.198442179904,123.121560535598,394.539036584577,4.23569726322988,1327.32570603651,77.3633239122881,91.0397353663965,3.87184154589213,45.3392752449111,-4.71375581520156,306.621746532511,-57.86722980632,406.833028211023,39.8494455587193
151.307462848425,4.84045654874071,733.678488726259,62.675178666776,570.939135390046,1.8454480686945,306.679448028834,-3.407587183015,473.137307499219,39.9343904852341,704.979376124312,83.9625737647647,1175.97260487264,127.865834186978,210.044590605253,10.7527578024616,540.836250177507,124.873602863272,397.767394381368,3.3559061358275,1351.64928534799,77.8825559363146,90.9496533664797,3.6418325017259,49.5632885391922,-1.94863329182632,295.681397109866,-43.6800062381723,415.37641908589,36.8318870047799
155.062731713475,4.36582945581111,760.947881344919,51.5606807719886,571.958618947254,8.96679550578685,313.988031047761,-4.7130926866157,480.478080077027,39.9056026952466,724.103206265839,81.4356815335553,1208.1237578449,120.267485186931,218.618492716581,10.0794235527124,538.527336199076,133.667635108962,405.424954954781,2.99239171237348,1396.41725263752,75.4676089119459,93.3301163333225,5.94842246176733,51.0505766096128,-2.35862192202662,300.972439700182,-51.7760603105494,424.056468778403,36.4414200436458
150.140941303486,4.731526293444,733.618547310711,50.9632254322391,564.473169040491,5.70066816180993,304.06955050351,-3.22242564381974,466.999869129813,37.5762061933832,697.755488912457,84.047275374517,1173.11077703533,116.706789755876,205.722713155556,10.9385724901894,528.663634797401,126.690727153894,395.662651846625,3.33822918506118,1330.05272949962,75.5929834911011,92.2060026368719,6.61327973961641,45.1752319610205,-3.31681204244625,295.985866698117,-51.4625891540053,409.749584414168,38.4006653268875
151.406680481351,4.82495966294524,724.295934987181,60.8020480350784,559.702368609044,8.7147438830887,307.098557825037,-3.48471409193716,462.324756502049,49.2579754801567,703.055120189515,85.456048715035,1173.04106124893,126.446499069157,209.867866768397,10.1097267224522,530.091966183086,134.224585149363,397.537464583404,3.29725631373055,1326.31419865834,88.4614370301604,90.9227064990947,3.2949496104995,39.5886311987254,2.28031324986083,298.431263996234,-52.3830365119937,413.879192077699,39.1035073526384
154.900528634105,4.47652228826716,747.712734279119,52.4142925639472,571.554661494208,7.07754578251274,313.538130148273,-4.45821345388078,489.94766924052,35.550406289242,716.64351809973,85.0279936649588,1205.92785406688,130.076054406133,218.132185054312,9.04697335474975,546.709183291654,132.909415210092,405.321344215745,2.73533382825242,1371.97389315269,77.6275101895452,88.7754048115863,8.60169596558663,51.6817227733646,-3.56502719056326,313.555918107946,-54.7643711423,421.694122418482,36.888349444529
150.41639561351,4.61064981235669,733.716818719268,51.3912324481965,560.772802861941,11.3481226365284,303.500972164166,-3.38662654818963,459.877981651442,45.2089498549253,697.146679854904,82.6711497044117,1167.67994388798,123.599550498822,204.96046479154,10.944167042889,512.241046821538,135.375507360862,393.224574129217,3.62175559507318,1316.01176438354,79.1048825820968,82.8197433961361,6.51850200535595,36.0187434442624,3.5877630481076,293.311965835446,-49.5626760415592,406.055803116132,38.9444236777991
150.870703074606,4.97052514490686,742.596905696996,46.1628684361075,568.662680365105,7.53434431581453,305.257323724347,-3.45796317688472,455.294688334115,52.35281461494,700.309890679075,84.652062468617,1165.75356834971,131.259881496047,208.792738420209,9.86428907588398,530.769989854142,123.932266688505,395.916692250332,2.78032099255548,1318.29870902447,90.8050076412479,92.3755032521406,1.56560612018443,36.5488061557631,7.21258521320028,301.155939647224,-51.7461697745435,409.058785423452,39.2123989015841
153.798761559667,4.55255876614897,739.248669047801,58.9859206406435,578.89938344658,5.83227268130169,311.170608617646,-4.09114641926762,481.946218173538,40.1541648024294,716.880693027916,82.2658241019634,1194.99500798264,125.981023354953,215.242857715688,9.61441245950003,541.534555898978,127.455099091877,403.901626961731,1.71194535174274,1367.91769028808,79.1454717277261,92.2500409504098,5.07439909241554,42.0598242874927,2.32994594726937,301.794769658333,-54.097664568727,419.463325992835,37.6056816059053
152.771805948492,4.487163361245,736.864718181389,57.9402211919874,569.164578198641,6.22000430189318,305.342895667823,-3.44437241723205,453.272678133834,46.7438404102905,700.299163253832,82.3524292219758,1173.03847287693,118.223093573326,205.873532733821,10.908543304803,530.10182367656,122.52207303813,391.539272373053,4.7189514867281,1314.62024770177,76.0280653863926,86.2605486731667,6.31145853715568,39.8754395303664,0.460045945386438,299.577886214047,-50.9030176543291,408.754329525024,37.5128758156041
150.745595565977,4.91938070658586,731.925487389768,52.7946105171257,570.208579771422,4.24323979889111,304.300094669268,-3.39046350147798,460.818268219137,41.1924906564205,702.705326410482,80.8428585669548,1159.79881597181,130.592640963669,204.396732418028,12.7557485091811,527.749992210359,127.653793663243,394.244750124273,3.71443889603839,1322.34926968806,84.5976528727557,91.4594507457326,4.99584515755743,38.9402835966003,1.9475989374215,306.080860428105,-61.1911716870912,409.112935520065,37.6847283634418
153.098013724871,4.65290216301326,727.543200102857,64.6972060311973,574.301605306176,3.26823288630666,309.379580629538,-3.93432180423512,479.819361253244,38.2048155759135,711.298695346768,82.5737405654776,1190.4289867119,123.57233990197,213.702500210449,9.53438016759199,533.977862245867,128.285788147113,400.705140358986,2.41664195674483,1350.09856008405,90.406567138228,94.0693384458316,6.31665177773989,45.1152392514632,-1.45624434174006,311.5539383236,-55.3778443937983,415.630149949054,38.6306519195421
155.457966562165,4.53264117440695,755.340551911894,52.4184191055508,581.520662968068,2.4791038255205,310.922588187998,-4.20987346199753,471.689445691745,43.0197638838972,709.378823322459,82.0579664687963,1200.43093046175,126.732308259013,214.315643164685,9.38080404890947,541.253093520081,125.471780374515,395.441749155374,2.94368155688283,1309.11233442684,87.0066121323383,89.8761174130967,4.91411999432287,45.5115826330382,1.48520762457738,292.225604721116,-45.1463479469966,404.962458776655,38.7475832068198
151.333167083004,4.57167964079728,735.956464765674,54.6375207798441,563.914289911412,9.2622473802085,304.50802466704,-3.11617607556635,458.039574057716,47.7446194407937,700.478744704975,83.1933820096646,1172.12306390592,121.700381345442,206.489295667285,11.4142376112119,527.576831479133,130.674985795526,394.947394320264,2.22004161023266,1320.46310737819,76.05917658867,88.9129874465194,6.14935489956292,40.3315772384415,1.13481638795554,292.990555612197,-45.4778119632915,407.166426066605,39.4040474653417
152.581899797541,4.70535813056858,743.195769000415,51.6384963981116,583.536049978951,1.7141897513547,308.562732875502,-3.75461209117938,467.522107904441,40.1537767220636,708.952716352534,83.0028073431232,1170.276738964,127.769622358777,214.024465400337,9.23625075062955,534.688842668825,130.624958732213,399.190337614713,3.53517654314657,1350.964157662,94.06473230727,97.2822809154015,3.69818325524873,58.1531871099464,-8.0974515019593,300.451240789634,-52.1666407016153,415.275390195224,39.4694751885337
156.154197920517,4.2920874828871,764.367495032569,62.5437646760387,588.773015457503,0.48096956766332,315.163465925905,-4.53232891250391,488.27081751744,39.3551927570466,725.91940368829,82.3534529226525,1206.06551901624,132.611068680222,222.557610161072,8.46878171096122,550.942836982559,128.116567303689,403.414666258621,3.89893176041479,1380.39347311608,78.2400287607899,85.2492951659972,11.6650654990497,38.3928168628081,2.6556987033595,307.607866861248,-52.8346306354202,414.74071905202,37.6358725045197
150.178437920939,5.14723760037741,734.345466707542,53.744752385966,565.97123834066,4.72882018763391,303.511493934187,-3.01141288306574,468.024416791683,40.9168483513407,695.339404642372,83.2908768845994,1160.58620249269,126.595773357184,207.907989893202,9.16840883840096,530.602037535783,128.68161993067,393.947725937305,2.86166802279241,1317.66527020685,81.6982284916164,89.9179668333247,3.65857997875164,47.4489354030048,-5.15021689407216,293.524146003419,-48.7213659134178,405.6526797115,40.2945714329466
151.579462869666,4.82244919865729,730.228864803316,55.2694687234695,568.565693944437,4.14340755487263,306.237328323517,-3.33605556371476,471.512946799121,43.0782812850869,702.738399032131,83.9883747420337,1173.38963715342,130.77187987704,210.187577017031,9.51043712902241,533.303444395815,129.865039079713,397.944370548854,3.27917848740885,1333.37645845279,88.3047189204385,83.947953826384,9.83654634063862,44.173062052022,0.0701455426711946,322.886087628131,-63.214542747464,412.628356527463,38.6727630255183
154.830196466033,4.6486653664885,749.276138575559,59.2886139777238,573.215449951067,6.8748196342895,313.107149559219,-4.27519745275801,463.128551230026,55.4588111083397,718.033588206526,84.0078263377245,1201.9914506909,123.115781159451,218.396656801809,8.95593089385316,538.010423511201,130.231094600562,405.918844264132,1.42819106856027,1380.06748259778,79.247300508687,91.6449568030825,9.10335975646921,51.8491573756694,-9.14450977282041,299.480019937263,-49.4077144926333,420.436607669261,39.449475756106
149.707719003903,5.22481012465264,731.40251378309,46.4498264443822,562.638239284745,4.57672225050328,302.621440788864,-2.76620001025054,467.837992892819,39.1637461900992,692.2739705187,85.2334857542062,1163.8504740269,122.191474378001,205.379513712659,10.6253110174384,531.696938356337,125.086773562817,393.044619951366,3.65604547320836,1312.02072061245,76.800481561094,88.1111750970028,5.5909779052511,38.5844326001233,2.11023162474096,296.842245839302,-50.1506652922927,408.905626445856,39.2864389207495
150.947944642466,4.89017988405693,737.85448886609,49.9900900802338,562.181597538107,7.58609674653056,304.595164873771,-2.89102008177856,463.303943191229,48.0642054498375,701.186333223597,82.5860901842722,1169.97413815391,127.772946820311,207.236622262352,11.19019306316,531.138915516967,131.544110663347,395.975111977579,3.91982813286609,1331.00946106321,82.488951084658,81.2309068740869,8.92498420112443,48.0194859407403,-2.9080625982788,291.187488054139,-45.8255861008849,415.085488345088,35.7007907092788
153.972935642259,4.78992944870696,743.391327356845,58.1513024505118,571.402072870727,7.49054474428042,310.935822957237,-3.51557541749715,473.112712735761,50.8340350706934,714.158471908572,84.5502904148941,1189.12375254884,130.335087238084,217.097095786723,9.02565029155969,543.044587591325,129.088003228868,402.187305738536,2.40051179160823,1375.14977597614,74.0232840191925,87.7772338129717,12.3469331342589,55.4141012922062,-7.39636382052653,295.18027698912,-51.5730187871788,420.058707026146,39.104106234769
151.216767547901,4.92208447712739,709.251687552378,63.3701782718663,573.021104998659,1.79686999092309,303.19852322439,-2.72066157935318,458.575180609756,42.8249438845983,694.451241251063,86.5052559588767,1162.32559976087,126.15506273266,204.853915578163,10.6050940891134,534.021247227889,122.039379140364,394.142968042261,3.20853042134542,1314.13312617494,75.894754408915,93.0797936799997,0.539220891844878,43.2539418380822,-5.54287119458287,305.366634515041,-50.2796454839315,405.994197008788,39.4181158108551
151.077010774551,5.13252669243935,728.345994495681,51.224749424754,569.331000256059,4.93341420270229,304.208632397424,-2.74151103532477,462.558409996919,50.3302613484249,695.492041551936,86.8541159595449,1163.67581875683,129.738546621657,209.303065517275,9.83305408997592,538.413200270009,123.886057122181,395.422251890629,3.6158896228401,1329.47916756686,73.4421199438615,93.9168738010497,1.27809523158572,47.1274702577785,-0.628427060143032,300.615266924008,-46.8602201711163,410.293510045243,39.7158260409634
154.05520664954,4.6131347709584,731.111246321287,66.5539807214463,569.612629757514,9.17102477959888,311.27405403285,-4.13046311046307,475.239178843542,47.6138302005827,715.611264279839,83.7955089358824,1201.07801134736,125.117088401549,215.803750757021,10.4264889994942,548.473002850898,125.76922678328,401.713603112628,3.83653528725027,1381.53891247588,69.1185729511135,88.1985812917381,9.46421842446009,48.2096001897152,1.75378108790138,300.0071626906,-51.1313577972968,417.938523771042,39.7252624729356
151.634874130745,5.03413716538118,745.850219354698,46.4508336087479,565.262545617069,4.43853593233757,304.589345721251,-3.24272797154744,458.40833552504,41.7223194441178,697.346716970795,83.5275185092046,1159.0783060501,125.345768765002,205.719954290889,10.9510320441037,528.946898517467,128.047700342187,391.782670670131,4.73528737536029,1314.61760879051,81.9233338153436,84.7611847810876,5.39985577825544,45.8384203487277,-0.755043368477624,289.843086693329,-46.6289490772363,403.355637421466,39.6447412448588
151.412661447313,4.82523535927739,725.457082997531,57.8185004501962,559.685016753048,8.00648614521162,304.294976520801,-3.04585459532842,458.192663527083,43.6802957144809,695.520201718826,87.251345603383,1160.17173427252,139.113162111174,208.020263159215,9.66827424313379,537.540438823128,121.757862737096,394.00113130369,3.02928082129673,1314.34755962092,84.0724255452668,95.4368945381807,1.70270488032636,42.1514400412356,2.38577094950369,302.799134436438,-54.3691213853105,408.457950021779,39.4739569328294
153.510453910765,4.69834440245495,750.450014759832,43.5552836398882,566.60281100622,6.93115101548978,310.020400559238,-3.68635661337238,471.937827288646,46.4772249661129,713.663949581373,83.2094110071029,1192.04213534153,120.740856951613,214.75371264144,10.3388055405933,532.474072489288,134.023036916148,399.958149305521,3.34731457897919,1365.64475962559,80.4668008362846,94.418620326331,3.38946071494376,35.3222274778805,6.41478981329693,302.876976965453,-57.0758273367538,415.558297147941,40.2040917702413
152.885164984299,4.76178006453296,736.366266165265,50.9077625106923,569.725072125375,2.98072074788073,304.245806013586,-2.79363424764275,458.814967290554,39.4415503548665,695.319157301139,84.497337851088,1168.10193453781,124.732391821614,205.89410635745,10.7900500744751,522.326177728456,127.048361945597,391.708067558119,4.22370405328044,1309.96481426072,82.5802092711291,95.5077348932865,0.829936129242539,49.1844361970973,-2.35527188262345,286.950759511733,-44.0196718159295,405.310653813115,37.1554511738979
150.206068798004,5.27796582057377,730.871725025038,54.3302953164099,552.509650040203,13.0662843389263,303.541137962477,-3.03999867681652,459.706059659746,42.7499520197314,695.515712782807,83.8910269652747,1147.60692286691,129.31598466218,205.830378824389,10.8016014780045,526.479522413428,129.494959098162,389.606332593489,6.41439566627996,1307.59060465631,89.3888602635651,85.5653147227936,5.29976398677531,45.2742206745311,-4.09925232092424,289.725529863431,-46.4448780193385,405.615626503147,39.2656108651941
152.384036798744,4.88634010367451,744.704657046369,48.3551772724363,563.285939725478,9.1663416768427,308.791382677598,-3.94568599353535,473.578752936524,40.2383607329666,707.476770022843,83.7133112022004,1190.78222777944,111.394656425263,212.671077673153,10.3672212198086,553.928307126765,116.114676195885,396.471076298678,4.44748591029416,1349.65445246546,75.48332613773,84.3342453126808,4.32536719820004,46.3584358785431,-7.28114149808492,301.255158995024,-51.9143838996687,410.709402627998,40.695168536173
154.153689010584,4.70188348422069,746.754588908972,51.5403582569997,571.36754536355,9.67852422227903,306.756821707775,-3.19780572806657,444.019146443504,53.7956154503948,698.99915324828,84.2048585714211,1165.49218216075,126.335947948289,207.66222299979,11.0104408564656,524.195721514489,132.207849703247,391.119885871246,4.68428959473513,1313.94852694804,77.0894867590192,89.3551959337872,8.10027339136588,41.9684057113818,-0.45045080716484,298.745254506207,-52.8549690646107,403.76878197284,37.903315853965
150.181245972821,5.21867147649767,736.959897035682,44.8787302444835,560.940049522058,6.52666483551799,303.479488856168,-2.88062186567329,456.441002812147,45.7787678519126,689.723156356858,86.5429842891015,1154.37736574671,128.153253118354,204.186768418455,11.2682889937389,530.101198924095,125.5809024195,387.378455458576,5.73939825149173,1287.36242648761,87.7293477465397,89.1178020102728,4.76777896987225,45.2645493180982,2.30788259002594,290.85835882656,-47.3848429660783,402.946530209148,39.3484645028473
151.656366440199,5.15689855024142,749.083926189089,50.032270441087,565.336069122174,9.61852751432424,307.277485176774,-3.03445790759399,465.516087519531,47.337167573153,701.817287069118,85.4953066097212,1171.19219974864,130.235227674451,209.607011448896,10.914288510416,537.266192858376,122.895364805722,393.598976826089,5.0659749738258,1321.15737926349,96.6024535244467,84.6334797018273,9.01185219524358,40.5294424657664,2.57913245953394,300.889994125666,-54.4141823838923,412.639208846021,37.8877296623326
153.872901565604,4.90829949271992,739.730919317189,50.4909881530625,580.405506017054,0.914480902783387,307.029251382077,-2.98427968380068,468.470951138176,34.6449276365884,696.50645376567,86.5947900002697,1182.6982662614,117.390344502214,208.244428637495,9.92568023430856,522.44786148728,128.327283943842,387.834872270128,4.38969573050369,1305.62938565659,91.2058806237399,94.4708593439634,4.02073117643749,34.4037614381551,3.56283408732465,296.390367031366,-53.7173569693182,401.837218074652,38.9020430449499
150.107503379035,5.05434488430412,724.150054472687,59.9618690287794,553.160425939216,11.2528420550989,302.825406542112,-2.34091374124443,444.513329897608,49.5895715856363,690.193124962483,84.9051401763097,1152.36577131342,131.009261696244,205.36678231778,9.96933071344491,523.413025933048,129.056207573325,387.421145798917,5.51751337989179,1314.59067577378,75.070022335322,86.5830501674387,8.09052598853821,33.719756302118,1.89810151045758,304.398254330465,-55.9741506026606,402.904832020734,39.5387495777182
151.313320356797,5.42716552722282,713.148684030182,70.527554563802,574.5274882831,0.854473362992144,307.81858781329,-3.20236128160023,458.104526581748,54.6332529604387,696.48628572917,86.8228389961162,1166.13666365055,122.906954559812,211.651798815057,9.26800465212831,522.390839807359,131.152047629127,395.145251902459,3.76367695211391,1332.90124135439,83.8765309921184,93.4987470021585,3.28302334214253,50.2720392890468,-1.80839839923146,301.856666004119,-56.5918698916105,412.858715581726,37.4493386693676
154.758701463523,4.84563672005504,739.801690987549,57.4766940152591,569.007000910469,12.2410100653765,312.0446924643,-3.58954848166525,474.335201875271,45.1442508741666,711.913562621309,83.7466528852272,1205.48988308602,122.200110623079,215.732808761859,9.79575489139166,545.679295575853,126.314260160999,393.129548188023,4.67640884109003,1317.76445951914,92.8380373413844,81.6227172142987,12.0332354482273,37.6231870307793,2.5443665957649,294.101076079315,-54.2417971824925,401.405485657827,39.6903059443403
149.261229455139,5.45163689076129,730.983110801238,50.0152209270572,563.035261883746,3.10499128099054,302.534541489604,-2.48923039449146,451.095031314002,41.5252731295427,689.551704538689,83.6740823850606,1142.79367052783,124.777961040502,203.14967198844,10.540422429828,525.282720648651,125.322936263129,387.345192409164,5.12009686541364,1287.34392451145,94.7563130862507,85.455494330054,7.38485060209195,40.839764657136,4.57808522384023,303.822233107517,-55.1106373471731,401.019730481128,39.9663606923331
150.870287748066,5.08520676464914,737.302940875705,54.4608161143621,565.151572550305,4.88074294064311,306.006342546801,-2.96863254296405,451.171428918703,47.5925608183158,696.571966349975,84.8640448372594,1155.67353981242,133.128984038866,209.032969790696,10.070336276721,526.056390512661,128.37225514878,391.266143909777,5.45633748805414,1322.08734262409,86.8182624232473,87.2739965770523,7.10908725655154,49.0058720909417,-2.7523527215028,293.250558839955,-47.6501548324097,409.081608121456,37.9773406168923
154.224323176048,4.62296956221015,744.102020363701,49.7891658874061,579.59580876563,2.00389658645529,312.962484019531,-3.62739547393596,473.756693106138,49.4908446717264,712.221358986005,84.948419324615,1174.8440648459,132.136704430464,217.232646432465,8.71317633142002,542.212201506341,126.891915766278,399.501410279964,3.55944486799857,1370.45887848754,74.1818079844954,86.8593632370027,7.71763335874115,33.2857479822963,7.15901063987041,307.457083903377,-57.4072680248816,408.013872406662,39.6346221710176
148.997835871301,5.39495989993455,718.522460457583,56.3624462121464,557.434516915884,5.99112301852766,302.599853639817,-2.38513555794647,448.52359441378,48.2110387443169,688.272074027541,83.6457242941546,1136.19260823836,133.204583521381,202.503164370225,10.7266975421048,524.08953756314,129.440249908467,386.178816558746,6.49578666026552,1302.9009794084,86.2091179806467,87.9517436984176,5.85801099905174,36.547173199052,1.78432887026835,295.73958401581,-50.2250936538532,403.171767498987,38.5982024994063
150.671086623644,5.01619794232808,720.94009500608,62.3958891558677,564.947714808477,3.29856369433621,305.634972595495,-2.71741986054353,456.633771711473,50.733018540347,695.157016284363,84.8202337408998,1151.6176954758,130.949851137672,207.109461317662,10.1088662884435,540.007850508676,125.034186606395,389.366329519395,6.45931571035602,1321.01657235197,84.3162229020363,93.2553871990118,4.48484453210321,43.5075937024962,-0.701796888286457,292.823817394884,-45.0201120809336,406.975945574281,39.6264549982262
154.04027171442,4.7772766147273,746.988760207022,53.0988729460468,568.990414902794,6.2388821094895,312.444024799591,-3.74339051013964,467.011621453919,42.8805923386716,709.087385027504,86.9137302747473,1186.72460033926,129.019578844725,213.716612855886,10.4183781775714,533.253075256549,132.622411702779,400.812154432484,2.9040666955437,1369.68445133674,78.8848624380321,90.0481273398911,7.78446745504529,41.6598703043696,3.11503294947198,300.390233645148,-57.5461063888879,418.069909356742,39.3414215054038
149.738636587324,5.05401868000121,720.57623147214,55.0685327482916,550.800634161276,16.559460094587,303.308163803273,-2.72350070242881,434.860688559048,57.1591326081959,688.609240941927,84.462714617966,1155.07290620208,122.775161863708,204.828507081175,9.88511150193391,520.179168592984,130.918842713937,387.742993207078,5.96052265092054,1306.97107311973,81.3274658950453,83.5128979380674,10.6036157419203,42.7049212298077,1.08966030390436,311.832430336838,-56.7703334802257,403.857780254826,39.8383910680837
150.591491303802,5.04551706425697,721.254020475814,62.238205055668,572.26850354362,-0.443933019756435,305.836402538685,-2.88933892922608,467.469933802854,37.1864830759366,696.533411511876,85.3818733908752,1166.36744510191,121.553734940668,207.23335584167,9.88699437474466,526.837953887141,125.793571745176,393.281178321446,4.37400990126939,1300.61641734547,90.6857000971994,84.1795385402796,8.85210219069244,42.4684808097014,0.795502599854616,288.465299894937,-44.8832528786227,410.23658296031,39.5254607960571
153.611041346706,4.63435449510299,739.333329276852,57.1086197366959,585.220749060329,-1.17863147830553,312.889222055311,-4.25862325132526,473.834719990351,48.1471524811907,709.58180415507,85.8057992155609,1186.04980247561,128.672007235928,214.436985643731,10.8805014680025,533.699938681334,129.865430557562,400.415459594686,3.33381569453902,1381.58226278268,73.3898111267567,89.0838754742029,7.28109202572539,42.5303645049093,0.663003273389227,317.054009956625,-61.0186807313339,417.320738706798,39.0154088596432
148.919137885129,4.9990497311494,722.841413877613,57.3349777186994,559.229535941793,2.76466873307005,303.417587292616,-2.95007999935048,466.547924677503,38.6558790569325,688.821758884765,85.7338250189004,1142.60632323375,127.38854764381,203.758820347005,10.3385586853086,528.518446486189,124.73722874317,389.514166121627,4.59810705554916,1309.91390187141,78.0371179846865,92.7748789134287,5.53420804298593,50.5014321144568,-5.51427565702466,303.627642956064,-52.463293804903,403.912603941274,38.9396380053093
149.987570571422,5.06278072222596,743.412197805503,44.3244107688787,553.21918375173,9.0274087951917,305.843591025558,-3.0002669891688,450.940502830324,50.7408430640129,697.01693982832,84.4492720255166,1154.27053552979,134.932699090694,207.377252554918,10.2959033235008,524.55862604275,133.639742472603,393.655040640082,3.67253691296645,1320.72048964851,80.1043300980337,85.1275628612497,11.6650144644364,35.7729744344198,5.38564298070573,288.948276667482,-43.6751328285473,411.063724138911,38.2443908938504
153.215372142892,4.71740251969106,746.922329154507,45.4195958621484,558.552001682675,18.408280822152,311.68818160101,-3.8601379278558,471.366544418151,48.0746920855217,709.266603137601,86.0227303260293,1180.31970503833,131.884956806712,216.315356479804,8.76349882981429,546.504531329691,121.469588797573,400.57302023644,3.56578034621904,1343.76235439245,89.7414631033123,95.2508903455105,2.05759666465698,40.8544700771083,1.67569514747269,299.0083230489,-49.3544295375488,412.485298226479,40.9160196336303
148.526139875054,5.03999441198471,705.301912689033,57.9394537531332,552.929584414272,9.01913514701221,301.90881008259,-2.63061119770648,454.620128327625,42.1315420126044,686.135150024245,84.267262834437,1136.75012296043,130.027299913084,200.39087102282,12.045718634525,536.525496448753,117.05141127655,385.760320822894,5.79194885856705,1274.62150561765,95.697508567019,81.8118426505869,11.2928761053929,36.9258377440784,0.967960634393527,292.086319339661,-50.8801414316021,402.012616854265,38.1813616905998
148.6796712426,5.24415115364527,711.523821317935,62.9120218076149,552.523066669246,15.7839753980359,303.366178840597,-2.83135723273034,466.356587438778,34.194022889482,691.087351518239,85.4033723879194,1144.81842733582,128.705028424528,203.574930153082,10.5899531827067,518.370153512636,131.191107539931,391.329326783656,4.45041705060447,1293.17552993597,90.2245951490746,92.0990777564482,3.33973925353083,47.4627710000307,-0.359861300663445,291.844006688375,-47.3837956868974,403.600214990489,39.2619003087768
151.674671542321,4.91905164967331,724.363367444305,65.1922777318099,561.999162547977,8.31770334073438,309.299498625167,-3.68666470708064,470.171621475526,42.4774180132676,705.360809929873,85.2196516839081,1180.3652231064,126.126335613482,213.092863482469,10.3275079189194,535.365516872334,126.423944728224,399.528990917539,3.08903896614093,1343.59043612331,83.9073395051301,93.6087831734091,6.09512197833802,44.0574919689801,0.0831138318291885,295.099750713113,-51.1468290377069,413.738362114817,38.1837398688905
147.954862051529,5.14813751482006,719.219513173464,49.6878802726825,557.938841489024,5.84746953930258,301.303191764066,-2.77245189652628,447.535469985575,47.060882636233,683.265253762193,84.9226031671563,1126.26483398432,133.827486568288,199.762736853067,11.9945083806486,506.888802349849,137.460019360491,387.616728777302,4.41044108244443,1269.79896634238,94.017685257603,81.3902530927779,11.5306340785925,37.9916771764591,1.54066374861431,289.517057704505,-43.1659467483082,398.028018220131,40.5173334490102
148.310560780974,5.24719119652378,719.540111083329,58.2004627209905,558.48495163705,6.70557844149975,301.865738000623,-2.66786210027648,446.249387961691,45.8481112907523,687.789906980706,84.5066368931793,1136.17361582844,132.759188204809,202.861793299706,11.2766809189906,520.900705251407,128.953207420879,390.394810957908,3.74875327305646,1298.09108890759,80.2854403936702,78.3276611185163,11.3801377951,42.3155337490538,-1.60739037044987,273.387562235788,-37.423537393993,400.936140176574,39.3221274496314
151.142858888605,4.82296736680922,739.876563396166,52.0103734302292,565.131661922953,6.88917140075578,308.884132738381,-3.82694441203229,466.746961792405,44.8594818501231,700.890028779876,84.3117153472606,1177.75336830301,120.310496223154,210.429974699452,9.92957162022696,522.447560094236,134.053128969562,398.129262140938,2.32361734942563,1349.18623173359,77.315260283578,87.8947648025427,9.94348697721793,34.8886473331998,7.01690575233512,301.373419570404,-53.0666476085625,409.118667474184,39.3099263480036
147.890000151748,5.11000852750471,708.529039506767,56.5708895837088,553.116148442069,6.93495007376152,300.433459663003,-2.43438351406133,442.354059169877,53.4190924527167,683.428360623881,84.2080571015221,1128.80326501977,132.239256660412,199.230419563999,11.8229160590864,515.41602435805,130.258868361069,386.432685728686,5.24144218128609,1281.97690417118,83.994537314992,87.6910531155291,3.37531683641232,40.2927724529698,3.08805612557602,291.92768677705,-44.9678411235117,400.867735464755,37.7493534888535
148.698502376009,4.8109325423191,732.047530038964,46.2355095712027,553.048647933701,11.2052288439748,301.414217691332,-2.15134331908037,452.180898963782,39.958013362312,686.330785868643,86.9713844212354,1142.1690549289,123.423737390786,202.66660103956,11.8643987139883,504.39297279338,140.83360377391,389.251915065004,4.9386928738809,1302.05814727515,83.5082059008032,87.2077583442282,6.31307623024369,38.854777299634,-0.871756384813956,301.105615789265,-54.4614713779517,404.60091637458,38.5708860555334
151.124397480255,4.877861476608,745.382910582797,51.0777985924967,556.062074519696,10.1341297954579,309.017345132859,-3.83649018565675,476.376960425215,35.190064338009,701.471661445179,84.8895894617482,1161.63021745315,133.754375354042,209.744025386579,10.9793522905667,533.400915829116,128.238325253018,396.826683935907,4.23881466216991,1318.48888260429,100.650882017442,88.5691882915949,4.64850045515719,34.7771837391077,6.29624169590371,290.699776646569,-44.7487725272699,411.597493656392,39.2757290416097
148.622532384068,4.656001439492,713.63870158288,58.3284194982537,565.363617473096,6.63600014113409,300.86861250794,-2.96437482047524,442.332293521906,50.0685589593486,684.731480866419,83.1933800854153,1141.12223061564,118.180820166037,202.497771969493,9.44751750732289,510.108829553636,133.098259762624,387.145103448585,4.00373244374932,1276.7148737615,89.4973539194879,87.6993008006303,4.10568256044813,40.9130725826237,-4.77621178822612,307.886116298873,-59.1455551976293,399.780912915782,38.5823069950251
149.055450068568,4.75870746834443,723.72989856693,54.7709386764645,552.057962892132,14.3528311107721,302.153816051558,-2.83374907472504,447.549190133034,46.9835965372156,685.862896700986,86.1090213657798,1139.03565827515,124.343701355163,202.649484740598,11.1243463881118,511.652738216706,133.419936105932,390.38447884269,3.80377826729775,1275.78985910768,97.167734066231,86.5299704409993,7.86575767839217,41.8735508762537,1.61160731893365,304.484247938789,-56.8875491216829,400.571724606068,40.2853886733253
151.453894620951,4.83816254718463,728.054975056883,57.6352275775977,559.750307183533,13.9816397041851,308.188718714756,-3.57467916519414,453.864405893793,53.3316912515732,702.394713735757,84.0435145359824,1154.47227484525,128.074939375168,209.809802680477,10.3830711376916,536.196819540768,124.536897918404,399.525525798907,3.04210833566696,1329.66880430157,85.5800648083784,88.0935452960882,6.3497990715076,34.0022085991618,2.27806350070737,301.832574172378,-56.5597159013129,411.468745634943,38.7131456894614
153.220992398042,4.54656258067567,744.368821000221,55.9643704444189,572.204919014865,5.40256977815792,305.89569155739,-3.13644911194218,448.591132672844,49.1658368894417,692.638571935597,85.8004365463099,1144.01787973162,138.466491590994,206.42923364467,9.50207291005362,515.134105615615,132.4859488534,386.942736075122,5.93208162936049,1305.20526755029,69.4137546091704,85.672632461421,3.62985415723295,38.1904347718046,-1.3966401506518,308.067281631383,-55.180652952648,397.787873431854,39.7423539467264
148.998765070299,4.88706584112824,717.67198168773,57.5815680353955,562.647082441713,4.36327487570961,301.408113236769,-2.42938581077843,457.830708943196,42.7642053630606,687.076712028921,84.9112133211975,1138.53898627915,124.895185244456,201.677928931255,11.7305084865413,517.556470943597,131.980980486084,387.840043712457,4.49477966119589,1304.42899798818,78.453542798979,91.9895709495351,3.48652021717819,36.1306386802256,-1.73332239613329,301.684549972442,-54.5662369321572,400.309838176819,39.2653954830093
150.734149083836,4.67408379642903,728.461510660875,52.9143302986213,554.020865610948,14.0964932054739,306.290923881672,-3.43619499873103,461.939807196392,47.7028131611148,697.744406279328,85.3533677741824,1155.67352642819,129.765439289748,208.525923475402,9.67695920080846,532.63352760883,125.188927900753,395.788618114929,3.93434271414033,1326.80939180907,85.9076753379083,88.4146169838047,6.93640278965091,40.5737041742658,3.22237197323824,309.095409973482,-55.2063329100163,408.3483213991,38.7585781682127
154.022811766704,4.53265174584267,735.050707816996,60.1586045960806,575.734370040314,2.45132224849936,313.138012894551,-4.37201285385174,474.537596287463,48.1167548407223,712.966229763909,86.0440401052166,1196.89621652394,130.168110069452,216.548700330025,10.2742121900382,535.039981635019,131.647117657569,402.441305930514,2.77972815315106,1368.50788231177,84.6281906787636,87.5622680313679,6.56851550973944,45.7296049874074,-6.23530904482079,310.474486209871,-54.2080155082169,413.585378021572,38.0003033492128
148.874487261643,4.99015529427704,708.741871414087,61.7345340520164,562.513948537762,1.13448966240564,301.866192897456,-2.79480162560745,450.500634203758,49.8248941300783,688.282173031418,85.0263828544119,1145.63053080167,131.381636238293,202.907266290437,10.7677622939058,515.25542351904,132.441401197134,390.872143707457,4.03283090793217,1300.15632394147,80.8527335335149,89.4904557980798,7.81393713209029,42.2703990590317,1.19120852908916,301.782385089016,-49.5477494360899,403.606834606385,39.1583846393358
149.859126553229,5.02826683033339,727.344561880847,55.7732437290206,569.832070566466,1.85065797364222,305.211308353271,-3.54143583269188,458.864911994541,48.3488268994435,696.856283519615,86.0248918995134,1145.79687197594,135.09114606177,206.32509204571,10.9610688374997,523.67261846073,128.35895473698,394.511104867943,3.95561311405628,1308.07639891013,92.9253164775697,90.4696197486269,5.27553316900965,41.1795742827903,1.15956090963981,314.696995886073,-62.4013215987452,410.488581402853,37.8900432259678
153.847142238743,4.36132770219053,746.329041114229,52.4456551411531,566.165955391641,11.8729667653616,312.138217022635,-4.1876890045586,474.105278550386,44.6878346932093,709.289013377912,86.5815103276022,1196.46270432397,125.39470477891,215.789178906881,9.62265007614822,539.881314678039,132.553003171975,403.470121298869,3.1130243792364,1355.32662798598,83.8075555329365,91.2985931192641,6.68916779292156,39.8433577086506,6.35642186265397,302.659324009482,-46.7419886657432,419.932695118265,39.4340980663941
149.680830130879,4.77595233264987,718.257063026475,58.8560737024942,567.750824045416,6.21726988814529,303.065122202159,-2.73828791759259,453.277172558545,50.6745975339334,686.083455885333,88.490666549134,1158.61655552023,126.113649037238,203.233195171946,10.7264762766509,516.323982323261,132.883367073678,393.04132626115,2.49667947135429,1312.45680369418,75.2860791917873,83.9119864848704,7.68826637583629,38.8272025803728,4.15739414107521,294.636662584034,-47.7212593967241,406.911064132104,39.8842375592568
149.972519075317,5.14164128365608,731.524518316383,56.620994708047,559.560335072596,6.90139033699696,305.070196838068,-2.93397103865966,461.976299434093,46.9351190078977,694.462458949395,86.1032558869894,1161.04541780261,131.79381537566,205.860240502206,11.5197456378687,527.531536106591,126.497990913869,394.928245245052,3.55788314811834,1313.73500533463,91.0064543150845,88.0043742369385,6.77629054349791,42.1524539849844,-0.599947760002063,298.603245657669,-51.8558445082302,411.331915349147,38.7843417663615
153.671118463649,4.6052721397746,760.959353411541,48.3724211952458,578.776231871321,2.17444843143535,312.24403124443,-4.13203907071542,459.208751133181,55.4360046045845,711.437850729904,86.2272173156774,1187.12880241953,124.943214723095,216.261154001244,9.85775962854028,538.05584502043,132.592433180079,403.388034680919,3.57345453736574,1370.55141169715,69.6099034213022,90.6623267857414,5.84659653495916,49.4218891697287,-1.03095768919654,311.739277071423,-55.6778561310616,421.245882572558,38.1237086659957
151.537828296934,4.47398497588845,731.303923865883,53.8687299010041,558.200809970297,7.67217130864193,305.839261109508,-3.60845701141645,457.179636530161,47.7181526292159,691.478282794488,87.3949846201628,1169.28398900063,125.726848611301,205.9837857231,10.0480438784379,529.741058122543,125.161592013885,393.174508933805,3.48495098073231,1291.95894115472,92.2352121368711,81.6898057212745,10.5629371973675,35.4199793844867,1.80551127024432,300.958056043804,-56.6376207818535,407.731356235005,39.2038425451505
151.015851327169,4.88279011487187,727.696146624236,58.621921016026,565.295077762522,10.3244778627684,305.300877929137,-3.00458008727899,467.296980136929,42.312766307984,696.77868075237,86.1730233972078,1186.94684600847,114.70458110984,207.961451990616,10.5655416385889,534.16953449571,126.237249776068,396.148495320133,3.01405761822656,1304.27683718175,90.9324176629367,85.9185338091384,10.3192504602392,44.0402941831353,-2.99983169931066,296.798992132922,-48.2892299696772,412.474301045454,37.896770927824
153.876887597605,4.33316657197683,739.268812548104,56.2524473228032,574.343650765977,7.86674462532113,312.190514234135,-4.1138301125211,483.565365644047,40.3279597734844,711.683489178267,85.5999483607046,1194.47555004733,124.410944250179,213.981111147542,11.3617717239854,544.367354155041,129.635031625596,404.476631528464,2.12657182800834,1353.10417500989,87.0125919015588,91.3128183907129,6.9249070867862,38.9870574381306,4.5806825523271,304.659804047738,-53.8958818332523,419.44463629349,38.782119141871
153.910084526881,4.22144747125094,750.278203354272,50.0638360372517,576.520710661486,4.5604136711515,307.042689937879,-3.57084349473868,466.208087495938,41.4475947172553,693.899414747027,88.9299138888981,1160.68970106849,131.574262368492,208.79942713635,9.17000752940694,525.203436219997,130.756601336865,393.448323667841,3.55666038538414,1301.41113726895,86.1545315695959,83.8258292550177,9.72524797300074,43.3426875744359,-1.06218227695393,296.138251386603,-49.0696616688272,403.796919286082,39.2770377875243
150.528504665974,4.97353716509061,746.989319578634,46.7879366200848,566.423753928401,4.88703602921913,305.393436424478,-3.34379724663118,447.485365177755,50.6861545172004,693.430756970021,85.7763233495634,1164.18060097653,128.529894362722,206.206590064814,11.0367119924203,525.116657626764,122.746139692956,392.105484408198,4.44494775891262,1324.31966984488,78.0589769470038,81.0503330059006,6.83358366677739,36.5799222552644,2.4199252639762,309.841018828045,-61.4440552391268,406.96878117308,40.2753722051638
152.49961090272,4.84955284969561,747.452018320187,50.4475441351411,569.2257477445,10.6394989075676,310.320244993253,-3.9122049093304,480.636457856161,35.5896684010099,706.122400681791,85.8630883960809,1188.25693278641,129.78366022105,213.480251837631,10.4804719981158,541.74340607281,123.389745739076,399.909548186839,3.42798000331162,1358.88930193342,75.3640647395166,95.6599385908001,4.83625200632786,45.1499443409632,-1.48652022371584,308.276382033401,-54.5169000360701,418.976462658842,36.9436018551981
155.63893783295,4.22829272759496,768.699484186649,44.8171101385782,572.327154450076,12.983895934024,311.337720004812,-3.90008470382448,469.642866340925,45.5213582050478,707.108146167845,83.6822807564995,1192.40933362705,127.399747202884,213.173913279922,9.45369639322563,530.238344817867,131.782917068518,395.353805851275,3.11493881590918,1307.90270093777,82.5698970476276,90.8935224075794,4.03856808622788,40.5185419926785,1.1419274895199,287.706130588357,-46.5137334373038,404.732951546967,39.5785542994654
150.172827777451,4.82790372389921,721.867451971077,55.6699891022975,565.941017600752,5.18567371333528,304.490639710921,-2.95703359523794,464.668224474735,38.1586925034304,690.608270154968,87.8623954878388,1164.7052445758,132.071121093646,205.911082751228,11.3485794928114,528.84638574386,126.499910245735,390.962029739405,4.71843549998353,1308.27525214234,81.9394304878224,86.0406865516112,5.8538555317053,39.0038908547929,0.269449888918295,300.128153887035,-49.7737436985755,405.748738789875,38.3828529210615
151.543132737992,4.87969536900845,732.093131509451,56.0414016379135,569.021160386845,8.82526548308236,308.330854525014,-3.25157032511625,466.676702518535,45.4351643436639,702.147684315926,86.1823021277776,1172.506327647,125.387226931965,209.435931901365,11.2037391266556,517.82007275179,138.120667842062,398.318433264996,3.32243948727572,1316.54628371864,100.431787074529,88.8522064761228,7.46489537257081,42.2754706765467,0.293815109556842,298.518043956636,-54.099684165912,413.39926063984,39.2392660342882
