340.392129395518,-19.0809856008319,197.926684077598,8.21161092045509,930.965368830328,-34.3830411021272,761.992163884301,25.7359378534225,370.847705899301,8.3053023277741,1261.99193464804,-24.7870868433624,1079.62190202796,-45.3827655357017,692.904987958511,-30.5935487089508,931.306406298206,143.279331807167,172.602454541563,-11.5627684374956,1129.67116131916,48.5908873680753,992.029345296461,37.1713765642582,363.239512277928,46.8591400818612,3308.91460038844,-498.787820368149,393.140199215515,-8.45086852153791
334.840009796505,-18.1432051143657,192.664806642917,8.52106415442776,903.327236000657,-28.634033162944,754.569572950204,25.9573022206855,364.602919736786,8.21262000125662,1230.09467180584,-17.878979997707,1056.17322372788,-49.1064857271362,665.018957209222,-24.64688109253,912.915133038409,142.550610651481,168.826908276727,-10.8360510284404,1094.67707174682,49.7731210501791,977.192435939338,38.6966686728418,349.851686218077,49.0199528832087,3243.57608677141,-486.868885931998,389.372043361919,-8.59533043830567
337.635554686825,-18.8066236188052,193.442262765173,8.44600899702625,907.496061188435,-30.4778793696959,756.162493100519,26.5704963603806,365.311052046605,7.1750539535939,1240.2421408885,-21.3648792134644,1059.23469373959,-44.7426838592472,673.266103060167,-25.6627602396343,915.60487492758,144.896462871888,170.275861678645,-11.0231594002599,1111.25046439892,49.2142970417641,965.734396477564,49.9634452604056,352.355430106886,49.4447800240911,3253.85262212035,-492.736622909071,391.871210393214,-9.44936028782911
341.743932739337,-19.0495206452479,196.627506386523,7.91577740366094,912.494168870792,-32.3508786305861,758.85408892701,25.5970489531706,362.546441058062,10.1079575608443,1237.65058104082,-21.380937288449,1051.7041742313,-46.9759805323366,665.409936952827,-24.887771060603,905.877979156795,144.996640150476,168.187231669843,-10.8204907140305,1077.28973312124,53.0477202093809,965.129064402003,40.043226942265,345.872286225557,47.9366095051427,3194.11904983993,-474.72233048251,385.01295694701,-8.04327718100146
336.729719575679,-18.535794174322,191.663485004228,8.90477202573357,913.853575531127,-40.9223881431921,754.041487907865,26.0267150275991,357.626219191689,11.0945019112783,1232.27242896279,-21.8449554906407,1049.40542415954,-50.5516162632842,660.770007113808,-24.6459531244565,904.069370640411,143.902489924021,168.473557245019,-10.815521971431,1084.84261046471,53.0438211147501,954.500398368075,43.661693298387,344.181925840458,49.6589747686782,3169.70368254293,-469.918417333535,382.813365098282,-5.87500528224883
339.43362100837,-19.0402526843126,192.753681500235,8.71669104788396,908.143507772587,-33.6863659301097,759.55521920285,25.2393506612379,365.673918055605,8.91417310016945,1249.84984234038,-22.1917073691968,1063.86665209688,-48.0203209218542,680.539189323462,-27.077551947095,916.361410090518,143.568362190506,171.596340415275,-11.3336367627939,1127.9342962519,45.8901829444903,959.892058828992,39.7297779718587,357.33098267148,47.4133032147412,3188.10907979642,-472.962495859432,390.398004637022,-10.1753394456418
335.252891103242,-18.3382039722631,191.291513794878,9.329741461154,899.098972281947,-29.5405612065456,752.337676292555,26.2989266160275,359.012035060463,7.61636289897438,1221.51344234321,-18.983683876857,1057.05949596261,-50.7797849902039,654.909139175327,-25.2985565328133,893.866104346137,145.595768668529,167.979722041282,-10.8619671548637,1079.0812295392,54.0971091696984,933.22485533796,45.0665705909684,342.25906248373,49.5880624669039,3113.73274896916,-455.23276974623,385.494083283351,-9.36338510420576
336.0650637065,-18.081347784424,188.218296084819,9.89769855404649,890.07215688391,-23.2707587871672,753.577969681255,26.5064832110673,359.418882773364,9.05237742675419,1230.80800703113,-19.6381219504168,1061.55852748403,-55.7102631239501,666.861891636314,-26.4992554427217,902.568091375044,144.585971976492,169.630773432989,-11.2776970876601,1101.72436045709,49.9198883359603,932.063732523144,45.7787771580843,346.951640829416,49.0904743281707,3110.56134432443,-456.205786973221,385.742757038627,-9.42377976453738
341.867367101796,-19.202804617706,193.40470698587,8.77510318234052,907.731190733238,-32.6964006682271,762.262529536011,25.5529156519406,365.011886460838,8.93079956359349,1261.74295119144,-24.2208715421374,1061.9638268611,-47.0619472291618,690.405847609776,-29.2343987213975,918.271082776311,142.838456124806,172.446200468859,-11.4770446650607,1138.3832313043,45.5264308597554,957.609215532796,40.1331515972615,356.113708538276,50.0931031687761,3134.74480207605,-460.654784455053,385.799865624931,-8.80919088815611
334.878685001515,-17.9536478610664,189.564426863226,8.84522901223332,894.570012305299,-30.0249896711605,751.981833370438,26.8944274963655,356.62310608771,8.84271166992371,1221.50183734479,-17.5759117874395,1024.74687984815,-39.1781155202379,659.421982965127,-27.1574166544722,894.217881709862,144.044027232853,168.033832297579,-10.675377790199,1087.35084125841,50.1649067298051,925.005319604643,49.6098555877789,341.669347042389,49.4146008933378,3063.47701520486,-449.205473705062,378.373665792228,-7.9501692573577
337.018491488479,-18.5818639878856,190.070003480769,7.64041843949104,898.032266722047,-37.2949117823279,754.736683943967,26.1674345304397,357.437555109015,9.35649775018593,1235.00919266106,-20.6286874802213,1028.65383665376,-39.325168369245,669.315091604717,-25.9698697631466,898.008596059283,144.233916225194,169.664805129815,-11.1434443843473,1108.23399066815,49.3924875853222,927.719402204139,49.3047340081245,347.280990351856,49.4633356397044,3050.77389204026,-440.506018239565,381.11461191387,-7.25689229460599
342.680103021627,-19.3742585389973,191.594237462447,9.73749031188185,894.494553430178,-26.1300965195258,763.445378863495,25.5596652773925,364.169515551697,8.57644139985421,1260.53197644473,-22.1536236942509,1060.16380186964,-43.8138382010915,690.501023601808,-29.2362458069261,915.876818271367,141.745260967466,172.604895039727,-11.6681270577165,1134.35518633592,50.2524481205389,933.425162624656,52.2042055686534,356.127334155693,49.2687120586917,3081.00865718572,-452.200175210425,382.926775299654,-9.23459732679594
335.911609882952,-18.1082681972428,191.271956996708,8.07211015891644,877.998018655454,-28.2876845728728,753.540479744149,26.5596626224962,357.344974545366,6.82326862607225,1228.14948014028,-17.6332520674711,1026.90857353367,-42.1311096883903,660.947306052288,-24.6720589847373,890.662063601048,144.0799097803,168.805853399859,-10.9079965284905,1093.97825795541,51.8915312823599,926.272051677546,42.6512883614378,343.97014122547,48.2454595734143,3023.09788450328,-437.456566459182,374.304325127221,-5.56295119691569
338.151267315742,-18.5247087654419,191.005171509571,7.69262535385318,882.846418545343,-31.3231631694291,756.942153319656,26.1145458944746,355.454843858313,11.0932924550665,1237.7167471943,-20.9756993462509,1039.71581416727,-42.4706903170721,671.084523522029,-25.5471020931882,899.972106305386,143.279736113345,170.427125328916,-11.1043888022991,1117.78369347131,47.2147002276835,923.854670767237,49.7938001651051,352.148131703339,47.8730283176659,3034.73390010478,-441.550545940977,379.922328339631,-8.47416360053521
344.058958098989,-19.5910330443189,193.412140330183,8.04688845204561,897.460066363239,-29.7670642769333,766.033748754668,25.5931914745555,362.084014391529,10.4672857314888,1261.47225224263,-21.6375714366296,1073.56248946903,-57.9130822523306,693.962049520613,-29.6307532607012,912.377545098998,144.011420185483,173.494539564108,-11.6366963334482,1142.65761993835,46.8242342732557,938.550398353525,47.0483900203376,360.143232787858,47.8132317570509,3064.92576080696,-446.216419482387,382.555392701787,-8.56911094786569
338.141486898586,-19.1220271025946,188.819369181628,9.84743708698332,888.756093995604,-32.2712279723043,756.158982375921,26.661302758233,356.261911237038,7.84994937542426,1231.61264376364,-19.2684259635228,1040.79512556164,-43.671659903406,665.654585266635,-26.1507887121999,888.813968349688,143.682555915473,170.092164386963,-11.2803790441278,1105.64531514206,47.454219728462,912.152788306598,46.0361228407659,345.292129832193,49.2300931397958,3021.4623535395,-436.729637755719,377.376669843245,-7.04150233210148
339.833366410142,-19.3458072816026,190.986993124029,8.71254071499605,886.781174416784,-27.8956662530721,758.805897721624,26.6681616382893,357.430356447192,8.8509627549039,1242.06186949673,-19.5236126485496,1040.29103157325,-45.0165793796994,675.25631112308,-27.2910713785143,899.567130398918,143.31158564787,171.666335985476,-11.6086843779388,1122.83862879701,46.7947023093883,915.981539245471,46.4099513828789,353.58214691923,47.9503799004548,3032.03303042528,-436.90942576214,381.129559503307,-8.27658604385679
344.791357923236,-20.036905160827,194.283378781005,7.63409290347354,891.430765058769,-33.0637530220699,766.954053614791,25.3806309758735,362.531367266278,7.97420801386313,1258.88678031808,-21.2907002546112,1054.2523198227,-43.020174911247,690.126097532708,-30.2598205665189,904.617672851752,144.232546373433,171.325918031476,-11.3172955045436,1119.95006709523,47.2610587449381,906.819058868298,59.2017526159916,351.14728623021,48.5609721076047,3029.85584562401,-440.439643072324,376.413636990478,-6.88039735528598
339.076941296672,-19.1577107322421,191.480065758585,7.26353368191859,877.882483331732,-26.1546493761164,758.011739822716,25.7457992039473,353.429182420169,8.65048278529302,1233.82165268918,-20.0929638348674,1032.63310086334,-44.4417241987027,666.496145705431,-25.1945484935294,893.827077365655,140.914695705608,169.947284303198,-11.1465080871058,1100.18140809815,49.1274784501519,903.427268541993,51.8676733302139,345.700242725823,48.3838142748041,3017.3404175014,-435.566869528708,374.793537562909,-6.90077041597597
340.607287306818,-19.3394721389833,191.773888318213,8.17539469468268,879.760345470532,-25.4523876845357,761.570449847456,25.3805381842917,355.875339570743,8.72798110674144,1244.23157022343,-20.8545625018652,1033.00348851526,-37.7716961781433,677.706795660263,-27.8230683752556,892.78684465421,146.726481557688,172.013213677373,-11.4911919308931,1123.68053171761,47.6884881987049,913.864524763685,54.8788132072509,350.872598443092,49.7745872681812,3056.63451352823,-449.037086640458,380.587673463745,-8.8179051915253
343.234982598473,-20.1351460165825,193.943827868573,7.01553220219231,877.956472405825,-27.627890761877,758.920056934109,26.579838804986,351.449382853526,9.28553484062818,1230.77594402465,-19.9950526806475,1027.62740621546,-40.4109540973969,659.815525382131,-26.0243564773843,884.308848379181,142.113763492126,168.749798637028,-10.8530413392852,1086.13974307311,51.0466604352574,892.618768925065,55.9018178611474,340.266994654242,48.4139136481092,3023.17075963815,-440.771006621979,372.270793487423,-6.93917156381881
338.010025792632,-18.9916306241199,188.743168467094,8.32929099584943,862.103420167284,-19.8145854174684,755.893424824787,26.0533806342619,350.192974978253,10.2732351587554,1227.21500981563,-21.1468382387075,1017.00128654483,-42.1648655126474,659.132692102545,-26.5686425574378,875.02284285091,147.14520549485,169.395783118939,-11.0829992639804,1094.87194803501,50.4445614565368,891.950546395655,51.2700313459844,340.127051007752,49.0763357344123,3027.37846578829,-439.726315934439,370.797432500504,-5.75398981029153
341.017418811962,-19.5055676847577,190.449611216531,8.78678923457034,880.753392398169,-29.3114776594679,762.240518000174,24.7252106799016,355.097896300004,9.24712527427458,1242.10145335071,-19.3397146997886,1038.01302487145,-41.8886303187397,678.712193882256,-28.5383414715513,892.394199752631,144.978155169396,172.188511896238,-11.6520086386196,1123.11025456876,50.7445011614047,913.677550588408,49.6210686213775,351.570388285465,49.4330230511759,3067.10965567244,-448.171799511146,379.618591105742,-7.51945155386873
336.596633002409,-19.0092097471554,187.660667205324,9.52072928076911,879.405845582038,-33.7218568583009,754.276419156984,25.8450979557847,344.775271440287,10.8037133124589,1213.90312547407,-16.8554082456866,1012.4493236178,-43.6793229059029,647.640402148124,-25.0366169086895,870.334558532481,143.16614360941,168.120249046085,-10.8469928000349,1078.3984778383,50.3353655615178,882.813051148662,47.6771154169138,337.00556259466,50.1718747513579,3020.23906422748,-436.613631135401,369.972633375815,-6.33166337676334
337.164317732522,-19.1461276268792,187.546612341592,8.36851149436082,866.275301690984,-23.6442246710691,754.048860476987,26.0200088046614,344.672819166511,11.096766707503,1217.53947441629,-16.1119528985984,1020.35952901192,-44.0151463307434,652.746635401442,-23.745324995363,873.21724300963,144.790501085822,168.582721139114,-10.7380316694338,1094.46274282801,49.6958583015714,898.184568368523,45.5906087895213,339.423994658726,50.8028479320808,3039.98123695104,-444.425923871705,370.337178241444,-6.54537455479394
341.787464941837,-19.9316762504446,190.807487277273,9.01595526786399,873.654198957543,-25.7806573149366,762.481724149591,25.157007112213,354.071815838057,9.28529337267624,1245.68816403062,-18.7401696886444,1032.08944104049,-43.4048924441197,679.592890049841,-28.4434224399014,889.457976020864,143.017338838234,171.944014777281,-11.4851172147542,1118.96064439191,49.1404095640242,903.926353081016,50.6698580449371,350.613076018117,48.7209061835416,3064.23014693296,-444.877748788465,376.56304612834,-8.42791655832666
335.349539843723,-18.4347800785901,186.478238072498,8.42517848147321,860.842786738999,-20.8944157592479,752.287411297942,26.5871479594001,343.761362094456,10.5457581981489,1211.1251110643,-15.9804522607911,993.328750323956,-35.0981156362837,648.090633093822,-23.9070813940805,866.002967077125,144.821590755643,167.819929370078,-10.8600292261115,1080.83137438638,51.362440726063,865.632971224742,57.1292871729905,335.832016850933,49.4311519233171,3016.20920312115,-434.719539800332,367.491627460086,-5.29010833575381
337.843869140603,-19.092053558453,190.704467314182,7.49216905628208,865.738965371301,-28.9248696335863,754.641162121666,26.2853980737718,348.023571462553,10.1128411780201,1219.57092928412,-15.8918542598246,1018.68762530859,-40.4531832469505,654.849800963961,-23.0958887614736,871.631779962851,144.371659769447,168.954658278486,-10.8977583446748,1094.96954798878,50.8981112805917,896.773151229803,39.9391494516417,341.766258128757,49.8772274000203,3039.06300792756,-443.828255297885,370.538139069344,-6.36198799181748
342.651147550376,-19.7361402629311,190.751003868241,9.32712985789659,871.159354270041,-25.1940385988662,761.102808099786,24.8478980416865,348.542932039244,11.7820127348644,1232.71084799016,-17.4896365692952,1022.88223676185,-42.022568980527,663.853845776802,-25.8045298260989,872.858143453633,144.050174782051,168.448171499273,-10.9155621526701,1078.10794681234,51.3733366258465,871.535168962651,51.9116135073153,335.878526967211,48.5992787942181,3018.49032060508,-438.23859504913,367.015232298559,-7.16220220932959
337.211218632091,-19.0185490233319,188.060790024995,8.14424963778972,862.184493862224,-28.3980228648678,753.823803748811,26.2839615146977,344.204818411447,11.3760737457145,1211.52257535539,-15.7136118938334,1001.79202359816,-40.7162281388846,644.657170508919,-22.4101055400709,859.045253531127,147.602961334297,167.38395644668,-10.6353781621589,1071.48957319131,51.6186894627742,868.714522799462,53.7658397377947,333.047175091562,49.1812697992184,3003.09234579356,-433.94418431034,364.866980287559,-6.42631636844118
339.898590222186,-19.4197338351507,186.51038529079,10.1408948741094,860.805925529358,-26.3417626821646,758.258642177945,25.1810525326198,346.721897435495,10.4806236130529,1224.25380133898,-16.0827447170719,1006.28494969862,-37.853182367161,657.871263298527,-24.6216701067069,867.235772420359,147.911022330321,169.983929114632,-11.0505281761946,1094.56111945275,50.4707670367085,874.991391008956,49.8862113514421,338.612420969336,50.9776096426841,3031.5193849264,-442.182377526844,370.104328603321,-7.69118414579517
338.90882700268,-19.5044823506882,189.372680355418,8.2886582013894,855.147904410872,-27.57749751831,755.460737157127,25.8757258057517,340.658741538518,10.4640086939134,1207.12428202697,-16.8669274439658,989.384451769821,-40.9350976099075,637.569865951331,-23.058049482777,853.441451504488,144.061024769152,166.778880417462,-10.6212854315109,1053.13381921933,54.7636380143876,860.679809451318,58.9801351203768,328.099037686016,49.8181538678622,2991.98851282482,-436.773080090547,364.999314709561,-7.29400952531378
337.533189668998,-19.0578052948586,184.919246932396,9.18620592439371,863.810174912886,-31.6687220769744,754.545710752549,25.8540380184615,343.428675638997,8.68734541751635,1208.63400796465,-15.4585812868129,982.046182667066,-29.394300700441,640.678159557257,-22.2774261156691,853.48401992059,146.016152805306,167.463251621647,-10.8477292767249,1061.94908772175,53.1393130673795,859.479252990728,55.9487559572446,328.420663633134,51.3208369837489,2991.75037577858,-436.396981825607,360.322567075159,-4.86597055801097
341.117467473841,-19.3187897122554,188.965134886182,8.20442164752823,852.915331729359,-20.1946228931215,761.949189725248,24.6775297042086,347.588083653393,11.1554874805055,1231.35921220359,-19.3130803087271,1004.45191710803,-31.5882210306039,663.574692516157,-25.9726338496783,868.116596420881,145.960964691317,170.613138909426,-11.229370692067,1098.01087830619,50.7470823583951,872.06387152905,51.8309802764998,339.46055813302,50.7400196821039,3025.47940398598,-442.187389661303,368.95244266807,-7.20370336492412
336.666020245214,-18.8108287010227,186.009710488967,8.80855327479981,844.183419977346,-22.5399070886305,756.38053696165,24.9257388471332,339.63601215149,9.76495185413061,1205.88774527339,-16.3324988184531,978.775075549048,-35.2514011290727,628.872012702824,-19.8053237858636,849.776069744006,145.09946840331,166.316795000704,-10.5807226647669,1042.62008199545,56.805477685489,850.873357393066,54.7983072505119,325.134902810224,50.0378888095036,2963.00315834878,-425.212989162792,360.492537637397,-6.89880804495877
337.525503030405,-18.9228659516242,183.748429758943,10.1181075820744,841.147825425982,-19.9078456531265,756.991199293726,25.1641730169502,339.72153171891,11.3090045309321,1212.7665266139,-16.7113465354571,977.238612161794,-33.6589746470777,640.797092659459,-21.8455861772891,852.053472795939,147.016646820558,167.327874114215,-10.3686024437815,1060.59327641196,54.2504830770357,846.434469588526,58.5105931399922,330.136881808879,49.7417967607542,2973.26971861081,-430.968082819156,361.575464012389,-7.12386597528418
342.285964165699,-19.9245472433413,188.735838413208,7.54323557508683,858.391690009331,-27.1773907330694,765.261531245682,24.0752586730918,346.271174911072,11.129568252825,1232.40603730365,-17.404171032534,990.932423810468,-27.8009817943389,662.976966165083,-24.699887637083,865.081904486076,147.23102979722,170.641544803616,-11.1052165624978,1094.6386108791,53.3042069854995,870.241765450964,51.8729569749702,340.785992773579,49.7493361054347,3013.68136861556,-438.302101473904,365.315445626665,-5.96161374932387
337.293261105068,-19.3633689533792,184.412133393359,8.96353105977251,838.49187431723,-27.0675032121074,757.780386441671,25.0178323540235,338.676984719238,10.2942788502593,1207.64841419069,-17.6229128616806,974.004686327003,-35.3543138350743,629.461432360099,-20.2263467296165,846.154180535364,145.71092793908,166.70090890371,-10.6948777263289,1046.66040446078,55.8815245275142,853.135664277564,49.6022355992581,328.748944401238,49.7432772583842,2969.16524557824,-428.498441434128,361.148642123911,-6.79403418458809
338.629608140624,-19.5355932470752,184.715414918961,9.05636714325616,843.143066571191,-26.5273076633016,759.721010229948,24.8086536167459,340.712809841706,9.94210736641928,1213.94734758582,-15.1043808526645,985.241681061894,-30.4909250840034,645.076925921013,-22.9327164562557,854.94802064689,148.608164629229,168.555228090079,-11.0271684914147,1068.61535918916,53.6754182475181,849.7503754277,55.1894309022964,333.49588320755,50.4023617673854,2989.67095964283,-432.104363001091,361.97740908502,-5.88731437411094
344.032036702859,-20.7125927393486,189.164383896168,9.23616059718215,858.982890692135,-24.1379583079651,768.14140645983,23.5985883173398,347.541776334128,10.7147813391835,1242.45698799525,-20.46736867383,1006.8776187723,-33.0447390608502,664.665824602124,-24.6998789788697,869.460126225644,147.662751825222,171.161055188941,-11.1562851549624,1099.45563805262,53.1745449556746,872.836216834491,49.5375622459879,342.552139383724,50.9588147547264,3025.55753345767,-436.289258570857,369.480956249992,-6.61336981311415
338.900958213216,-19.7616902485164,186.668800068911,7.32757777981137,839.666874080802,-21.6879708749829,760.859856553543,24.1933654661009,340.081356620878,10.7521484566419,1213.32691943151,-17.255273469776,984.968205284377,-38.3159724706295,636.319065542964,-21.1582329331872,855.639086508305,144.333255172464,167.25469723655,-10.5152361441549,1053.53305502069,55.4212371830738,847.28520269762,56.0938656935361,330.540430641454,50.0940677354138,3010.47964870665,-439.002064993514,363.777989719462,-5.95584719046742
340.053474810696,-19.9222787474714,184.979908961019,10.2637131871463,847.94193781052,-23.5061102179711,763.099571684488,23.8674271241943,344.083290157925,9.98408969643763,1220.92329733739,-17.6102566458162,991.499190563083,-34.5384898202002,650.541764037826,-22.2460093072792,857.36416231092,149.591598890785,169.059392475879,-10.8935604778817,1073.80626378942,53.0846197441959,856.147555950696,53.1318736071982,335.143232000578,50.3072245002576,3038.5757775468,-445.014329607982,366.060355538367,-5.19897594537192
343.923088513037,-20.1125728130618,191.693938396374,8.14294406274465,866.271320674527,-32.8178151377354,769.974366480557,23.5742023047907,353.662058349753,8.60058704061771,1245.8493928078,-19.2638113996744,1013.40568047904,-31.272377942426,671.585164002331,-25.0189880165567,874.755263533701,147.818066973509,172.055099655626,-11.4086211311185,1103.77115358663,55.061430338805,883.203370474111,43.0664441084532,344.409690444755,51.0775402871249,3075.17460445827,-449.114906606471,371.106055296354,-6.35784726931443
339.823313159332,-19.98805707327,186.744920876452,8.77086810716398,844.712496042123,-22.1579288395417,762.112188572403,23.7537604297554,343.583061350659,9.87459350427683,1220.15907732103,-17.7597614161602,990.928944780394,-33.6888571711134,642.872502287081,-21.3441613321178,859.231420721539,148.175627574707,168.22982065193,-10.8524431302626,1061.82990917587,56.3572782654269,851.631232569233,65.8142391319048,332.233048823958,50.6935772826187,3053.32585626254,-443.795389954013,369.104358992168,-6.58532645436742
340.994826156999,-20.2709601041744,186.297006405985,9.92805374030304,854.638046056713,-28.7679186171916,764.590138255809,23.3227691889119,348.697101299419,10.0506449981526,1236.10420980463,-22.1242964230676,1007.54216991387,-34.7984456504431,661.490631193792,-25.5332556858895,869.683200908528,147.327268778718,169.937036480918,-11.0164794274747,1081.64166465025,54.5308571762182,868.720865543675,52.1835769613656,337.876091521411,51.047928295271,3086.15259427042,-454.055616749311,371.54244589138,-5.39626752237157
346.140030692415,-21.1994791739275,195.039294464849,7.6981043733194,875.768568117435,-35.8535130789765,771.706189941614,23.5810226998591,360.120561912776,8.7677669442186,1259.72170717341,-21.7471324242818,1035.52006162984,-41.7590428124393,684.371641165099,-28.1565013688124,888.3730154023,145.373441962765,172.762965711305,-11.530634293249,1116.18905619153,50.0844583194547,892.847787097845,47.6794442617147,348.037221503597,50.7877486236068,3125.71951913976,-460.605389705111,378.642067688121,-7.39826736586671
340.374175560391,-20.463518638421,189.283826035643,9.22353150376219,863.099116941191,-31.7825986299523,762.039089579279,23.8202449567049,350.936067618454,9.48231486703953,1233.26208069222,-19.2156147251443,1022.68644402699,-43.8562867150757,652.92444089928,-24.3417860466724,868.817404654343,147.744556584417,168.53738834927,-10.6303394467229,1073.12291905057,53.1140738084107,861.056386063625,53.9167224262161,334.908207270643,50.9391325651589,3105.71731299246,-456.870338957282,378.306471288974,-8.44206327902403
342.167151319481,-20.6742407450793,191.888323579655,8.80723637057181,865.278821858636,-26.4898115955707,766.225870286811,22.9733913513517,355.420443152518,10.411955322455,1248.29160564792,-20.9383958475307,1037.31743073809,-43.6527411109915,668.240663171109,-23.9080266785807,879.410993187105,146.900766811707,171.513586759866,-11.4900097758962,1092.51810954611,54.6991156283037,869.650808801099,59.341628908922,342.053554956641,52.1674754370081,3136.43236700173,-460.887901584555,378.444344844194,-5.95610774308265
346.801013521279,-21.2935943171338,194.97204264475,9.28199507270937,877.591185491522,-31.7815046144877,774.043008798905,21.8276425912465,365.077664862987,9.18348086390984,1277.60586432562,-22.8871351618961,1062.81693510655,-44.1557503786203,694.632267494645,-29.0512007381685,891.21030811484,150.072888727912,173.956574885684,-11.8355297699105,1126.94854836989,48.6143920462188,889.125055835335,46.99194094707,350.593503680839,50.9500813141613,3166.54280545832,-467.766223468891,382.100229963901,-8.16709022822591
341.409430809123,-20.4456973791667,192.644503269716,7.91856189025041,862.282524055301,-22.2734322510075,764.127587447719,23.3346048193132,359.419475549287,9.71869736920845,1257.42902079205,-22.0655490891193,1042.04652263476,-43.7845000258284,670.123170597552,-27.3150171107503,875.473658508626,148.688561479285,170.472955482998,-11.2548985279774,1086.15806164928,54.1350908471935,873.68271520386,60.5780186545535,343.115787086532,49.7766895113725,3145.985364219,-467.851668635118,381.033693790272,-6.31526920279583
342.870260333111,-20.9711180394311,196.844659570507,6.64146999726412,867.253017820799,-23.2907672718279,767.44300526138,22.492874207259,366.866106488155,8.70090552655814,1274.31868054009,-25.2286789879137,1047.10618888615,-42.0704603408203,682.600950966948,-27.4179332531201,885.310840931443,147.645740605371,172.478850374997,-11.3879719289029,1115.33984755368,48.8931610927371,879.553694331442,56.0240274290997,347.877659659296,52.409639441919,3167.93666408234,-467.059357300162,386.047952368027,-7.07916430025166
348.275220150124,-21.5920883699519,200.141839199284,7.31803158366022,880.38705949093,-21.431878144133,775.95023834649,21.4535075748097,375.08239634051,8.6148486573509,1299.16630683073,-24.5708112605203,1072.17105146038,-43.6028508831905,706.647289911174,-31.175911879963,903.739440584251,145.788465568345,173.99378308081,-11.7212547309428,1131.23204658017,50.6509329418363,904.887547335958,49.1720867160859,351.65618532552,51.0666334560995,3178.47189053985,-468.613648376188,386.043185876518,-7.38777765518238
342.188073539931,-20.6945862282681,197.198439379349,7.25987911407726,874.764274415029,-26.8127103016114,766.948599817365,22.3642860278098,370.45988743873,6.69292230157857,1278.48903192934,-22.3740759673019,1056.93733835951,-44.8514317446284,681.732963101825,-28.0586348889112,885.813145838272,146.156736755467,171.758764165815,-11.3449893101773,1102.44509543917,52.3259767306369,894.527278636449,52.4886712531249,346.619893906846,51.4926406446797,3169.95608215681,-470.40345565042,387.459837051265,-8.26871681642105
344.689999608133,-21.4040455167729,198.809915796371,6.98379372269557,878.231961051831,-27.1272214168871,768.290391965061,22.608352475598,373.618169486087,6.65224736178603,1289.57917626764,-26.3049086797777,1068.01385970912,-47.9963276699864,692.849285123161,-27.9511116149807,892.681995127054,147.194733536154,173.534949169206,-11.8503014216539,1126.74025329773,49.7052037469809,901.975933003662,43.4941193751665,356.646900578569,49.9347273086644,3191.04419209928,-473.897220366719,390.673116322153,-8.28389318361853
348.480036428558,-22.0089600178085,201.096274126059,7.03922333644435,903.109235071869,-34.0122515150054,771.001906624928,21.736766920416,373.523233434314,6.88660461163469,1291.26101415648,-25.6552113153042,1069.54395953522,-48.1970129842517,685.271836656737,-26.0078839377542,882.989689676173,147.08464615939,171.127845637707,-11.2199560734358,1097.49926109884,51.0051858378592,897.006101879915,56.3668496315473,346.240234813632,51.6209753634866,3176.29888120055,-470.462381045264,390.756845655907,-10.369382042212
342.191026581572,-21.241198254381,198.213917230942,7.36217461217055,877.642992631343,-24.4548776320729,765.283259236956,22.1687606951928,371.60366718438,8.48059824822586,1285.91356434555,-24.1400297628605,1065.85126195138,-46.929688437094,687.795940504922,-29.3188826818342,887.659958671487,147.245624159834,172.107914894264,-11.7622922054919,1108.472759463,49.6399759235746,905.346123365262,47.1925778007178,351.887055784542,49.6880690168706,3175.31263535383,-472.53740066756,387.5345421766,-8.56821501780527
344.033142454901,-21.3442319977415,199.41350259417,7.480602187057,890.602459829122,-30.9860505945302,769.329509325968,21.7129919639515,376.296223476231,8.23426457277154,1304.30937921876,-27.4767348676481,1086.68840712697,-46.9898201615774,707.295801501744,-32.3063736310026,903.737875793198,146.268372939186,174.537816951886,-11.710176201886,1143.98196231512,47.1449391470795,912.440322921085,50.5000965073967,362.83954170435,50.4226845089579,3217.08752731229,-483.042755176944,392.939488009584,-8.70534287203815
340.712335495989,-21.173062834013,198.749505397964,7.83148329755032,884.568906670627,-28.0933976749415,763.92991615797,21.8578917916942,368.1552227964,8.92964398070965,1281.69524132487,-26.9666033116014,1050.8377228942,-37.0141125644053,674.524483465013,-25.0387828088765,888.762788216274,144.913663309595,170.95888654169,-11.3262674652781,1100.69646470537,49.6432785490183,912.187072801529,49.7647362653116,352.198146792394,48.1313599730047,3180.27214855921,-466.533195157214,389.541856431917,-9.00836466613758
340.545738709784,-21.193339183368,197.726878519234,7.12757215713866,892.361975445231,-37.2105709389354,761.183089995183,21.7886367732306,372.977092303175,7.30557671323648,1282.50838736187,-22.3824941307825,1064.3220580558,-37.7129377263095,689.61681439299,-29.6403531029268,892.525535118796,146.25470178867,171.693419282305,-11.3626231361978,1121.93648624875,46.7303007705659,920.296759400244,50.654394140511,357.195321406302,48.9903304685064,3193.47306593223,-474.138758653496,387.907657661749,-8.22806253161155
343.442748223579,-21.3693710397374,199.732758308539,7.40408760430579,903.457647035099,-33.7209117805851,768.677284579648,21.3367860275577,377.338050973397,8.38496751143331,1305.93099403258,-27.5859655258211,1098.90761801369,-56.6410762202068,712.558415242132,-32.6473812144647,911.416539383778,145.883953451164,174.802337158802,-12.0597724072821,1151.65113179161,48.9549955981423,926.835273164808,58.3899762685827,369.982442903135,48.4531479682239,3241.98515215889,-482.209966672717,393.528511283873,-8.77005803916875
338.572193287075,-21.0276065902207,197.789845760159,7.46915132866556,876.170501358577,-28.400924755469,759.661851658248,21.5981745683759,370.876058515938,8.41447431794364,1282.17620368041,-26.7482176823979,1065.32668708629,-40.0462183978254,682.353846664322,-28.3160412648954,898.428079326636,145.397674249168,170.870561998058,-11.3431564245802,1111.01459525301,48.1927803943594,919.867175755618,49.1768787621185,355.737697251647,49.5509555407667,3213.77885753648,-477.611555702177,393.052551236239,-10.4824624755104
339.373569819971,-20.8304083702871,198.541122261402,7.66556288133402,884.597202226612,-25.5536149440847,760.657611370027,21.6118718031616,374.219082032761,7.34781878965722,1288.43713193563,-25.8550213099013,1077.86638010149,-40.3897800846945,696.177570671438,-30.0219661680694,900.184079429079,148.1770765345,171.975805433766,-11.5798671475069,1127.25131000223,49.9769115669329,938.624189659118,47.4835500859226,360.195031371276,50.606366138478,3239.92964615023,-485.401784658053,392.005788194173,-8.39488859771115
342.410708644512,-21.506608579542,199.438586243617,7.18555061047125,909.457581656623,-43.0275411518325,760.012518041619,21.7417393946513,370.792015855018,8.26439592507621,1274.21460500163,-23.5897605025447,1066.76568911048,-48.8114129868995,678.860140457512,-27.5363616430498,895.484611582711,143.230164883332,169.16022566582,-11.0619448233946,1095.22417304545,49.1188080589161,928.059225050289,44.0564095786403,353.627877737265,47.9931634270092,3228.85662757512,-480.595289858588,391.977934132435,-9.26449835688667
338.596103602704,-21.1569924058783,198.355254788383,7.31482406537877,900.271931581695,-32.3294738805676,756.437673279798,21.5592119390687,372.525828744313,6.32743871840994,1275.82805900963,-24.7454584872302,1072.24662376822,-50.2167977242374,682.526181902925,-28.6096445526938,896.736998848909,147.850507038792,169.672580957765,-11.2158098892175,1106.71802667352,51.8516934914434,937.878348236453,48.4224751103247,353.168314986064,49.9466539927405,3247.79775077978,-486.171812305726,395.293217430849,-9.86668720226105
340.837524270432,-21.0126364304061,201.448860264994,5.83997833812614,911.277522763092,-33.8937674738208,761.213951517444,21.4931148276634,377.052067798466,7.24483780688919,1292.63390141321,-25.136259427654,1085.87357927463,-45.9943362503262,700.900697914253,-29.6308690883562,911.169129492805,145.688202767562,171.979798271758,-11.3602804724772,1139.62667393704,47.6230079438733,956.290633442665,46.0319707062922,362.917091620347,49.8636319272933,3292.49147381563,-496.167650408025,400.756435398545,-11.6602617055112
336.43473352125,-20.5698602343654,196.088191131294,8.01177976720002,897.341432455267,-32.5353489685811,752.833289288586,22.6301661943207,371.061827191995,6.85440991087067,1268.98163024521,-26.0098025858848,1074.7860918843,-51.4942483131142,668.301196593039,-25.762092074055,897.306227849667,143.98651120471,168.481868356779,-11.0819263471528,1089.49852475451,49.8231853978237,944.123520534919,45.7271097156222,351.460148759744,49.5120030907242,3272.45017265873,-494.956459749077,392.76819284691,-8.02242579237605
337.853027279423,-20.8314265841297,196.954545571339,7.75439387205535,881.392792127797,-24.4174590536322,753.553687672247,22.6798734046239,373.103939254869,6.58597374061411,1276.36062187866,-25.5015694087665,1082.09811261325,-50.9273834708167,680.225147645631,-27.1097172099334,900.217850480563,147.414845217063,169.022114942203,-10.908051399276,1107.78335892396,50.3311281402439,952.221676852216,45.1584703896502,355.080644078746,49.3552477569441,3300.03649168566,-499.346513173531,396.783531640127,-9.45104804656066
342.49471547483,-21.9306151075218,201.277534097403,7.35336050782269,920.607609625652,-33.4885847234543,760.938265696738,21.2098176384858,379.729179344004,7.44424723651246,1294.86056058899,-25.5102967349827,1100.18344805531,-47.7782582590997,701.567594162785,-31.1553434281732,917.615651909796,146.989033414167,169.721364348136,-11.1351142607829,1116.8578026817,47.7490128020353,960.12855955512,39.7306905540655,354.556548647308,49.0997517961019,3304.97930596074,-497.916515504855,394.397393523908,-8.10936630698603
336.847014709394,-21.0267553379426,196.734235093608,6.27066266660218,918.102301046847,-40.4016688609372,750.945633693296,22.9154188484918,372.271930230025,7.11105705774074,1269.11332981619,-23.1864741768413,1073.97352988265,-43.9799133243695,673.499008758612,-27.5425994048037,902.439294692483,147.206497755523,167.784627795474,-10.8413248324713,1084.52278031032,53.9856317971731,955.054754051499,45.0751537797001,349.932245051778,48.2368178992312,3317.20290071624,-504.250818622989,395.057892632624,-8.51559685091313
339.371346076512,-21.3355724816634,197.532642912889,6.957380638944,912.085217995378,-38.4535279019228,755.278425670744,22.1023629732714,373.192712590434,8.88597406869431,1281.14834437576,-25.3452803764815,1096.31502765777,-55.4236357004907,687.407637803944,-30.1532912554884,913.128673369158,146.564328268477,169.702993672908,-11.0924820096419,1114.56309759515,48.455106674635,961.476400847219,36.4277753778071,357.102508629213,49.2536299705759,3342.46362770589,-507.036256516257,402.03019436787,-10.9313485637142
339.300070167846,-21.1877277645956,197.667518898015,8.36733892392381,900.525621248835,-23.8624343043456,751.379547693646,22.9708652395105,370.764757424912,7.21122835405311,1267.99335024903,-24.3459176060664,1079.93214897129,-47.7634242205341,660.409953992879,-24.6318994972501,896.113872648938,146.66181993633,167.361375675353,-10.9646600952718,1073.15066366288,51.0933353484613,959.919105074308,41.1228975144591,343.954879053193,49.7386696796718,3335.39918363301,-509.576314129149,397.296078671461,-10.9750618738319
337.936492761619,-20.5424906194278,197.355331682951,7.63394358484206,907.657135934895,-30.5501148028236,752.35137059393,22.7725228057831,373.282963282727,7.27096175321575,1276.59158954605,-24.4179290048817,1086.83468536297,-49.7232961728561,670.634093218081,-25.0077498479482,905.716855272591,144.734437652165,168.312107925798,-10.9180603675166,1092.22321377749,47.9158251989875,950.747937093667,44.9121810955503,349.308203962465,49.5938251691116,3344.22865925362,-504.47021381357,400.200658679841,-10.0879654743849
342.553021799097,-21.5918007597795,200.359424337824,6.97250804379174,911.543785030094,-35.4046840692201,759.414428532715,22.3305806616479,379.33889965351,6.76182340191502,1299.15752384239,-26.5520909149431,1098.15762749233,-40.9787340271833,695.975794621152,-29.9577139511229,918.666448605016,149.537002376582,171.099336576372,-11.2914193146554,1122.16330926666,47.3057818263792,973.624480697992,42.1321244892124,355.654636825586,50.7186700633874,3369.25282710181,-514.158362101212,402.384233105906,-10.7015447467748
337.909283298899,-20.6331544405652,200.377209405855,5.73250449708257,906.012846718537,-33.9606823922881,753.804608048357,22.509828768655,375.11149061586,6.42860590166985,1275.58174556879,-23.7826688559879,1093.88802840799,-52.6836283591635,672.106294279363,-25.9618840043064,911.15019898385,147.114241756461,168.761698623695,-11.2235684840495,1085.61853884919,54.4185818462555,969.279753933779,44.0740556814684,349.206120800451,49.4313465586805,3346.90053754554,-509.014531430276,397.507417833524,-8.44865397387935
340.901127269948,-21.2412324856968,198.255559333249,8.34005417283482,920.475103847388,-42.5947924196478,757.320487783757,22.5665336187761,376.800117355261,8.24668256726142,1290.05751954871,-24.36697830186,1105.74184256416,-51.7181653040987,688.296302513992,-29.7345511940062,914.213308614255,149.233666054232,170.734661385782,-11.372844036555,1104.49595626468,53.8128183856409,958.669578290158,51.0083206415852,359.836741310466,47.3631500546671,3368.97734870829,-515.427417501007,406.653539227995,-12.1706474843115
339.870612427516,-21.0650068196721,198.638150831397,7.44451692663972,912.282764817761,-30.9681361954496,753.260283662464,22.086916168177,374.595302304665,5.9845220950921,1277.39670715276,-26.0076478541762,1087.84903199401,-48.6663108991651,659.881046312101,-25.7990822706226,904.019553166341,147.71721214533,167.636786028341,-10.754107299386,1063.35404653454,54.8532063951999,959.659461255082,47.7906011905673,344.718085283797,50.3778075759749,3335.72154019602,-505.750921477302,403.460946554429,-13.4958536833155
339.477220005563,-20.9110588603691,196.945179645147,8.01164834867763,909.385992921616,-27.2368279350193,754.82586834497,22.7348887637786,373.389276365459,8.99822164867375,1280.64931275826,-23.7577359290004,1095.05131561945,-53.5916681776672,672.005847078498,-26.408457528253,908.783456838368,148.963570712525,168.91817831433,-10.8874278705472,1086.37400113541,51.7747873450575,950.153487222428,55.9995101925862,349.74803203826,49.6902958810745,3341.25512779861,-504.633291698388,400.660167315692,-9.64149764948944
342.634181026939,-21.4070952920843,200.722739104267,7.34027530149649,923.625350794502,-33.7378338168186,760.798691314711,22.5348222025957,381.178426896611,7.20602572981414,1303.8307112484,-26.4285703531715,1120.57595184808,-59.7965456821703,695.428377142369,-29.9517461332227,926.248307176897,147.420432595882,170.884167664067,-11.2869002775764,1107.79369043733,51.0887787899012,965.735562395591,47.8928508088177,353.375787011606,49.9357190653413,3349.6902409786,-509.238169858928,400.387111698811,-9.95388228664784
337.680924047125,-20.7995731702323,197.118528253164,8.9914753958938,920.588247684967,-45.0944540289112,754.614879654438,23.1365461054686,374.034018131427,7.36881861287977,1282.75419044046,-25.1151514808475,1093.96414164799,-53.8508690607318,675.185904605709,-28.8623718377436,912.386631964799,148.887631706894,169.018158745143,-10.991946481128,1081.15427774374,55.0132988620106,953.461404953125,52.2089963648589,348.356694430126,50.6601752258952,3327.31644063143,-499.512979241336,399.928753700403,-10.0405778040226
340.002763072986,-20.8821585686562,199.303705930743,8.4151902206027,899.707992381126,-26.2601139666976,758.213350055246,22.8526977257428,378.895387327499,6.97018888749521,1294.28051280818,-26.6823382249794,1096.12956047935,-46.0807865751652,686.740368255578,-28.1995590489368,921.966927294714,149.944335184952,171.315686381814,-11.1839989288635,1110.9568344197,51.8073987438687,970.270676954958,47.1208145939911,357.990361480933,50.7426063611588,3357.08017752357,-512.713190237454,403.043863326991,-9.88817187433827
341.142660312699,-21.3387820031149,198.788223678326,8.70490711151328,924.34118710579,-35.4583629003582,757.081143589365,22.7257271986161,372.122031623997,8.01712850940619,1278.99173911975,-22.7292216355129,1089.44031628005,-51.1494869636517,662.437658719363,-24.9102064156097,906.979071724416,150.345107158116,168.802159763703,-11.0113011019666,1065.59739481084,55.5305699164855,959.417911951709,50.9967782785025,347.693590607972,50.5291020169817,3325.9966519488,-503.29086734686,395.923297120452,-7.48111232840406
336.615719410821,-20.3457580460686,198.423362827347,8.11315714830572,905.241002210548,-29.9761955815771,754.914845970409,22.4476825688631,372.981991628274,8.11460825577478,1283.029624022,-24.927962424209,1085.75334422758,-44.2755748849204,671.13591377439,-26.3633380389071,912.427601197097,150.553817661375,169.434334688491,-10.9731747994603,1080.3945777484,54.8547867758335,959.630992581356,54.4805590826238,350.436894357569,50.8296199243487,3332.46786538592,-506.399393200271,398.193029278507,-8.4053133945981
339.599709744797,-21.270784179212,201.433865139686,7.75172720896872,930.288267023942,-41.5179968667686,760.574611138826,22.4612671281567,380.910003382738,7.49377683496264,1299.25565990715,-24.2863015804199,1092.79861266033,-37.7009490111787,693.828263045499,-27.7936331433095,935.800337425569,145.427621770072,173.216644628392,-11.741673375179,1124.99130129298,49.735208362992,982.568545137069,47.8496471965836,363.65909011439,50.6112148022039,3372.4141282925,-513.729455708923,407.577420846512,-11.903364774079
334.669019370585,-20.4345344464245,199.82789999858,6.92643656175687,919.916825964379,-31.7406254726591,754.088084470675,22.5836380578192,371.457853765871,7.75147739779828,1273.39617536493,-21.958310456678,1089.3542680036,-54.5825518500378,668.228563752696,-26.4427517495679,917.241530948932,146.470977371512,169.662781981867,-11.1384024807005,1082.07016157597,53.1460400793077,971.182554763344,49.4903760591788,353.193255135548,49.7740908233837,3345.30854234123,-508.18666330305,402.558579049537,-10.3077327806538
335.18012912926,-20.3784566714238,199.311331059997,7.50176306158533,921.704492606448,-31.2113463317815,754.884614904942,22.7037182754829,372.858220793579,9.17512992086825,1285.71552402325,-24.3501212357667,1085.80375908701,-45.3802212503941,682.642190299116,-28.8949567353255,927.17943283112,147.847319626577,171.290361356381,-11.3034390370944,1107.05033929004,50.7473345613756,973.940553814053,53.6933941253822,361.132011761198,49.6679483879223,3370.74592448267,-513.935175927959,404.980719638104,-11.2117070665584
339.513444432947,-21.2424822643223,201.64492061299,7.76036820340085,921.793173533338,-26.5861068284335,763.528681231783,21.9576262791161,384.670179506475,6.21808163487803,1308.54021375175,-25.7229260790318,1117.50222279841,-44.9472576539235,709.034375954341,-30.6248013960952,941.307022174869,147.90133095516,174.79754275428,-11.99795635628,1145.21186262098,49.490245709661,1007.89818257005,45.8470502221778,371.359848181148,50.115686308934,3404.38352590808,-518.313099327615,406.503496848561,-8.39612824184155
334.074815113277,-20.5440916046408,200.076434443858,7.59577080917137,918.62728170681,-24.242159739792,755.53830123413,22.7309949382304,377.266967449155,8.03829610956428,1285.25050016557,-25.2552000620666,1111.81367654203,-54.3787535278667,682.493484975757,-27.4178709139835,928.250707208778,146.620700651065,171.454216016191,-11.4013934572815,1110.37392461087,50.8236990653098,988.61344523149,48.6018036589579,361.559391892677,50.752121288765,3394.56923977622,-516.689171806589,406.287094912861,-9.9006272466009
335.858271049492,-20.4889541840194,203.044211593062,6.21446584058291,924.653908147636,-31.5882713209395,758.282153341198,22.3825918398901,378.346469518862,9.29675819407149,1296.52787006566,-23.7460358512783,1124.38168175692,-53.2404263838623,696.666080506036,-29.22524872146,941.197686114867,145.179364948524,173.643564754811,-11.8471046530455,1134.15628135185,47.2111613903901,1000.8863262712,46.5464883456658,367.503247500359,51.6557840515673,3426.16941807456,-526.73406126821,407.857320501542,-9.74202608768391
341.273206251139,-21.7539405749795,203.336756710272,8.15473343712316,932.849130107985,-32.7459767330684,762.856948492161,22.1986312461213,383.366725843295,7.74525194994783,1306.6851227164,-29.1889959048009,1122.42017501363,-48.5260401740439,698.686506734274,-27.9443054896172,932.782125168791,149.152900175904,171.738505375111,-11.4326708118313,1103.21789668944,51.5693335222335,1001.95278635669,45.1191162453875,359.865818397212,51.3591792439968,3431.54368170499,-523.920263166697,408.449852118291,-10.4604689630216
335.736591307088,-20.706834830681,202.479086700746,7.32569260376578,933.253174399029,-32.9721183950724,756.947342891983,22.4508862302959,382.848316692663,6.12061631886511,1294.81758759732,-26.0521005808053,1122.43833316737,-52.7782141966279,693.308926211553,-28.6794326388935,935.069529010911,145.604569543833,172.499844575179,-11.5236709053055,1118.76147888032,51.5322978343602,1002.79569601372,42.2090036555375,367.473544879573,50.3441585430628,3451.28174942388,-531.617799050355,412.94390762376,-10.8818265157288
337.619647162837,-20.7547356840353,204.540822312196,7.49328271496765,950.186628654506,-37.8750466028601,762.333152999396,21.250579013364,385.107915957558,7.45837955725862,1311.82169712805,-26.6233291931137,1138.55571083716,-52.0364350845658,712.705997321997,-29.5796657610505,950.210034571394,148.132939384771,175.268666637849,-11.8004626395474,1158.08467068665,48.6123040613978,1031.34663660658,38.8435548302839,378.663712444773,49.6703843888437,3490.64658240665,-540.647832683883,419.125351798299,-12.1755608904026
333.749735312448,-20.3944129951726,203.066958036595,6.83950184968042,944.450803951623,-39.6650258794708,754.711716431804,22.6126677117631,377.928091890194,8.92590825022797,1294.1278012805,-25.7685917241946,1117.00053818406,-52.4627185423683,688.910216283956,-27.4071122179934,937.903558743824,144.976849459281,171.802697868088,-11.2217000247322,1111.4351268913,54.1393131911154,1008.04735895263,44.5686452417354,362.779338267458,52.1718149672515,3475.24599268801,-538.010106878338,415.809291999246,-12.6269002415199
335.59150772822,-20.717679445747,201.900686910796,8.96470136437294,939.559729105602,-32.9107947871729,756.793199898076,22.3969236493643,385.080912579178,6.93681859375415,1304.58723035455,-25.8319121437266,1111.81853734566,-40.6720076050155,702.078040804765,-28.8574728281884,949.075113656694,146.610767034285,173.915604752859,-11.7786658492517,1142.05458994684,49.5509765985815,1019.04763527691,41.8078007717868,371.25219665773,51.2401963125613,3499.00315906644,-544.760763968617,417.102200556743,-11.3088184065624
340.198537582294,-21.2645386420956,208.430359814543,6.9021488327298,964.205402455616,-42.2262400233276,760.037056057042,23.045760232943,387.486175148401,6.73796867712225,1313.34303712522,-30.9310616407921,1141.74917991858,-59.2245326175261,704.425289422896,-29.1501329479388,944.032452382029,145.675075110597,172.179562497967,-11.5967050954365,1112.84159674717,53.9531001255722,1011.88350773572,52.1064953230239,364.281297892657,51.2604025901329,3490.63543832973,-541.613151926778,414.17758955048,-10.95845859966
334.540657296121,-20.5050937459878,206.586305340599,7.35430649460039,954.740455106899,-42.4389660394857,754.402203247525,22.8121219340283,384.969247504557,7.64554319463657,1296.96505965161,-24.13325875686,1139.5292023952,-60.3291103514382,699.939278240723,-29.4526028234887,940.810312309648,148.282387069049,172.152717518216,-11.2492537168921,1127.01119650861,51.9868688063526,1007.23488058141,47.2863377589767,367.993475327224,50.5241792603991,3490.20396042692,-538.277573023139,416.695207529968,-13.4448128917853
336.640762034611,-20.819613424189,206.436221268715,7.54923528380218,942.299877323445,-31.1953579165137,757.723017699853,23.0287169422695,389.499652933335,6.73181653547872,1316.93189620819,-29.4398498216126,1151.60293303214,-60.6477966249959,720.026070674359,-31.7833613585249,960.878905919363,142.528295558889,175.55312150518,-11.9824082913115,1161.64645731821,49.4981725133048,1021.18931788269,48.7956177055745,378.361913234002,50.9186197198963,3525.33767291512,-544.679931558628,420.078505608703,-10.8143134741891
331.603521917919,-19.9244673702712,203.542142199402,7.39094620523205,944.18277961982,-37.0615482017866,749.673788460004,23.5088419670972,381.728208910389,7.08883854287881,1292.08940585036,-26.1456937193888,1127.89788866176,-56.1467455311428,691.561996163567,-28.0414100467377,937.860294352374,148.100171983285,171.785549187068,-11.2601115882029,1120.06859966795,52.6970360769109,1005.44480740111,43.2109718418491,364.918768880953,51.732839716097,3487.37481298245,-538.252410017953,417.410184570913,-12.4245151749912
333.249550652703,-20.1226779310275,206.984587643863,5.44791542096627,942.608862219157,-34.5476571008241,751.845435851464,22.818143765599,389.303720769207,5.27436619532969,1296.98452602553,-24.1659107033823,1144.66722818264,-54.1784085919384,705.961259118741,-30.6897516574477,945.887209008488,147.439659909616,173.333075401248,-11.6944616787547,1142.28440965702,50.6194464048697,1014.27678015719,46.3560567482332,371.909261676424,51.3172549226786,3499.5161157312,-539.033994750641,417.217548743083,-11.1745093666733
