241.827165740051,-10.3784909312149,341.918075003707,44.6514688734301,321.605510708578,-25.2438887924871,1155.65170356287,46.8527616501078,808.637753354546,26.9282035378207,366.618684603071,25.5506642801517,259.567937908074,-22.5446228323622,460.436653911059,-17.0608017380116,452.84137218009,52.1112396382764,231.851992053757,2.04390403950586,250.908383117084,10.3754350717429,577.907065214065,-7.76263234783894,1184.32262236224,32.3398289032669,639.309896961253,-59.8871759807227,449.69909023004,-40.5636056191403
243.157864376947,-10.3651648813591,342.461785818788,44.0839160057858,323.00886346603,-25.9975794178272,1164.1670346634,46.3212311579855,810.792579451913,27.1994586299606,368.411915181108,24.9484263888856,256.913217392053,-21.0625657365695,459.796879623798,-16.1208151023741,450.541988594117,51.3026758163594,232.961068977326,1.76645419143893,252.548395656026,9.92146011204786,570.55343623855,2.23692521329028,1194.69532736047,31.8083989089273,642.539295703077,-60.4904846832592,449.62696022009,-40.7896701620378
246.479514990127,-11.1710145209629,343.698345157925,44.1340367643965,323.96396415482,-26.1252738527252,1182.92452343042,43.6007716248187,814.208708609102,27.6217177741844,371.477686411892,24.8631002533026,257.796604950309,-21.0378442632095,464.924005534745,-18.1627958605555,444.430658392577,49.5313912085675,235.91212950375,1.27497069251724,253.898182147293,9.96055043181172,585.111394590695,-9.81268234717463,1212.68462092676,12.5147622510707,647.025828827831,-61.6491642601856,449.26132434797,-39.8165369557311
240.630663405342,-9.95557074410799,342.123734382633,44.430095505348,318.896788530728,-24.9737250896961,1147.47012610467,47.4370319695757,800.948652312112,29.1032271729628,364.2787336707,25.5187375618448,256.296212404719,-21.2092921045965,457.018600121534,-17.161088861979,447.485032144546,50.6816989430942,230.115842567591,2.13817456603758,249.640967252356,10.5976265829545,571.298085276013,-5.12119679124998,1185.54747717805,27.104630221678,638.899148312199,-59.9377088341758,446.016267553637,-39.9432334319548
240.914821436826,-10.0310981150685,341.39811924213,45.0911168514691,317.543794563272,-24.5863842484289,1151.20227051456,47.550838492804,802.31294227692,28.3195607324463,364.739544238953,25.3207722809983,256.418666885291,-22.0405000657515,455.181705871918,-15.7715287276489,443.995556724121,53.7423847975168,231.238384114081,1.89384871776396,250.40296256895,10.4928355591957,566.466012683722,-4.06525273152059,1200.00430547454,18.1363456633165,640.232450690987,-60.200995504562,444.340152281279,-39.0158028295563
244.644670848352,-10.8836448067565,342.170636330032,45.1052676807451,321.373995385092,-26.2271035290151,1170.52193114472,45.6007030286018,807.600245189926,29.5244034632954,368.400476065813,25.336462824349,256.449639907114,-22.0091422838483,458.67946662002,-15.6691501641298,440.870912168091,50.8328583541102,233.998635514428,1.75694124167533,252.340617554292,10.2960893640984,575.892539667453,-6.73502416352205,1187.02945820147,32.1709069333153,644.934415053067,-60.7230889041276,446.885454786811,-39.8323789137081
248.212270196349,-11.2597910891193,345.048361130085,44.571140434525,321.430870899422,-24.6029884119285,1188.90593275159,42.1606011621877,807.768094735145,31.1955854572948,372.039535522828,24.3699591779741,258.615219815256,-22.1907302781165,463.270808031475,-18.7371927056064,433.280530449958,51.5554879776361,233.331117477684,1.61425756665719,252.379878138481,10.4094020615746,572.097502869005,-1.00139597372932,1209.18871369325,18.0294253661526,643.85436293266,-60.6953470478312,447.46030182706,-39.7798792070176
240.633950850021,-10.5178108760601,343.180767011191,44.2763988243852,318.364529364215,-24.9034412618402,1149.5126962409,46.631889249273,801.824084031966,29.8404805870492,363.955809314826,25.2638735092995,255.657725901078,-20.7935693550704,452.864394723681,-15.8557244657813,437.263855509927,53.6419372687923,230.645612917246,2.0432667329511,249.936436444656,10.5596771161661,575.245520515893,-11.5421356139843,1193.20495044269,21.7383130144437,642.455404391845,-60.589033436458,444.81852057695,-39.5640653604077
241.998002276071,-10.2991491177576,343.733173237035,45.1273969738334,317.561115944313,-24.3553832580246,1156.51400701363,45.8008303105431,802.637591901624,30.4564432058507,365.185788538634,25.4931266576545,256.611587027969,-21.8172330434506,455.632185889403,-16.5285609644615,437.893490620304,50.2619814518296,231.354870314821,2.40314626051548,250.847759446413,10.3767269266841,559.873606196748,3.23244220787702,1185.0042900114,25.3709094914715,644.432196710644,-61.0334104470731,445.251278320665,-39.1308211042341
245.148006802751,-10.7408366237174,345.676605260176,44.3301485468837,320.761085706819,-24.9641503713353,1174.75662097551,44.7467019057833,808.780871417344,30.2651453677692,368.540920935504,25.2330846638,256.260814648389,-21.2647716354657,458.357113619133,-15.3989148171256,434.772388355114,50.3169944591239,234.986393621191,1.30984971844437,253.266507526073,9.95453228387692,573.982374347389,-4.1788243266462,1192.55582535499,30.8485667367285,649.318877381502,-61.7016999145434,447.607636068679,-39.9888178748031
245.961045105916,-10.8377703130534,347.427635418528,44.2210383186525,324.240559976972,-26.8021857145303,1159.00385580629,46.4706557512715,805.932404927672,30.293999344988,367.10849061639,25.3825064776147,259.491767573458,-22.9086151302518,458.12633654438,-16.1213957798872,427.179715617103,53.0491027566956,230.902659575509,2.18299376197274,250.623058629767,10.5808329256083,563.679191037369,1.05882366174451,1192.22193308849,24.7182397924496,645.551965794455,-60.9607494274509,447.84181033117,-40.1006631511
242.722116413701,-10.4740161025886,346.16236515637,44.1410914466297,318.42856952583,-23.2395693478076,1153.15083405943,46.2068582640196,804.677736668335,30.772782192459,364.556007565878,25.3398268398979,256.391773122516,-20.9199801394294,455.132871832004,-16.2341097489627,431.709587742057,52.9928188895804,231.055266153857,2.23141580388923,250.538958763441,10.5481641871702,563.605664686824,0.0655061548368412,1169.15577072237,29.0528876112135,645.51068962613,-60.7344522098353,446.99395256926,-39.6344899502875
244.105994936647,-10.8340765191645,346.54468370731,44.7835272680944,322.087040852932,-24.8707093273331,1167.18349040547,44.2018551802549,808.321287530883,28.9942716381286,366.931314254629,25.4570465539371,256.951475138875,-21.5084271491061,456.376278191532,-16.6472627615303,430.51631676111,52.3431503888477,234.009619766415,1.46654021022002,252.729167835189,9.9023543656017,573.596863882315,-5.11587336032577,1183.92398978783,17.968030257821,650.148374635942,-62.2795379911308,448.995716718834,-39.8889810527354
247.631010722516,-11.3285440155752,348.002040026485,44.146313067059,325.732813905874,-26.2078130701174,1187.54993956641,40.7746171348343,812.652055518874,29.7007901262328,370.623951523944,24.9640559976721,259.349297247409,-22.3486527843301,460.207428653669,-15.6362183607971,429.83025932746,49.9850982134877,236.361484076044,1.50682795183416,254.937509497114,10.1838039825675,581.003076902776,-5.66079992193289,1196.72667505792,22.7298644065281,654.95050321746,-62.910257289991,452.176218727987,-40.7035313477824
242.622990020655,-10.7202761880019,347.625540089537,44.0570046645674,325.807896874615,-26.6790723131619,1151.15762566232,45.6576238222657,810.448827076266,28.5439564191534,365.758938197529,25.453910668844,258.394882685013,-22.2965210197926,457.00382007407,-16.3833769634355,429.349824511309,51.1337957788839,230.996581932644,2.21720812985265,250.94771774021,10.1149438879736,571.317563579783,-7.25363102939712,1175.06843452441,28.3961992244097,646.768901795263,-61.0023920719493,448.937548984654,-39.8850745583583
241.595815355908,-9.95124400647915,347.753219541996,43.8272467947556,321.267155572078,-24.1307859659091,1152.55643872023,44.5472241649144,810.106892429033,28.3010079127397,365.172053845127,25.245640818696,258.400195174116,-22.1744032358279,456.191501423492,-15.5865625448358,430.317786871283,52.9376083260151,231.641710242364,2.10410316424104,251.125768151203,10.5148530621548,567.848711512386,-4.19409596597834,1179.45088680955,28.0854433609795,647.237653804243,-61.3094560696432,450.199036332634,-39.9420925046592
245.091767033082,-10.9395826360841,348.541361490107,43.4456264387032,324.538703608537,-25.363930535051,1172.41998062869,43.1486390835126,814.591983797246,28.3160626218217,369.377887798793,24.9043506013318,259.249173629722,-21.1231173750315,459.556219914177,-16.7113039104743,431.924429297282,48.954910678251,235.075498249524,1.41190249968815,253.854815109193,9.8688040589553,580.810752937718,-6.93140452211964,1202.91998392121,21.2210900421278,650.855582733392,-61.3341285612357,451.856550373879,-40.3727967467616
248.644111527466,-11.5007188081038,350.815866721028,42.9882868085438,327.012731702233,-25.5378148361246,1193.66756724183,39.7722593771427,817.940982531856,28.7749879530268,373.205595517798,24.7519562498169,260.846606298802,-21.7319691252646,464.819639110843,-17.7979966610562,428.75713063191,50.6804045646697,238.153638984962,1.05026240857126,256.643891123638,9.56753777554744,575.940973081885,-4.09544772498753,1221.44353631085,18.5457549190999,656.487138951878,-63.5457607293569,454.350919204621,-40.3992965331838
248.921110109468,-11.6928053193545,351.234988227063,42.8929274894299,328.001043463476,-26.7235220031776,1167.92936140821,42.9526245639389,819.389950474195,27.1323792177268,372.243360942707,24.4331303612754,262.35403746217,-22.8609967995668,465.60985286156,-18.0083912470515,427.273791075211,50.3928483701703,233.529053543561,1.82753544375662,252.360215713351,10.3027725146386,575.956812609397,-0.718925221875055,1196.28101703442,31.8933143074317,650.668813010917,-61.9202528027714,454.20532612455,-40.3877969193662
243.934245770257,-10.8713123040599,348.701094491173,43.3978107156588,326.643823838375,-26.3031457276828,1160.01526116227,43.0848294770238,818.674879133512,26.0397061429365,367.886408102717,25.2911715525958,261.126970692443,-22.5523566044755,459.126270979632,-17.3633930209542,431.644969164019,50.9360395998048,233.097078827772,1.78654562456872,252.780059330938,9.94631649765137,581.149017820025,-6.18234721474977,1197.75976615462,28.8584192400074,648.646519400822,-61.5660391579362,453.71742762788,-40.3911290612505
245.332860173222,-10.9682109230773,349.570309799159,42.8037987677802,328.380092129958,-27.0888429711081,1172.90881098771,42.7012641419261,815.565315864083,28.3907123910565,370.742410946344,24.9177805792575,261.749398710593,-23.056588411885,462.473385398396,-17.6341951923301,432.117964036663,51.0539150552758,235.294707077949,1.36917208521522,254.694284851279,10.0531637524139,569.928958192455,-4.76806226405176,1198.25089568475,33.0674692439853,650.224539434285,-61.2070426167641,455.583810289838,-41.0347613278282
249.338426240891,-11.8381669236268,351.001185707514,42.4403304818439,328.199728353568,-26.7996219022039,1193.52411728469,39.9591863082527,822.97462241089,26.827684181329,374.881524990323,24.3616556142351,261.45928911412,-21.4224448444803,467.838458562321,-18.743803732561,431.175432005041,50.0012535699694,239.138682414146,0.503905774921733,258.088513707286,9.30439366314293,592.696739824424,-9.30314485283676,1217.24303267997,31.4967135993264,656.510296369221,-63.102082008543,457.286073563699,-41.5942500567793
253.118203157395,-12.5146352781882,353.023990040898,41.8849809569237,332.262627643688,-27.2913514410829,1217.15467185297,37.4581570579039,829.094107243642,24.1554266611182,379.556535229236,23.8200856716164,265.333131306686,-23.9691222079418,474.017634619115,-20.2275313656164,427.662360442234,51.3819424906059,240.128203584689,0.513443055767584,259.811075557665,9.17703686907601,586.239848083183,-11.4363727312963,1227.91229028542,21.0254003849979,654.83000306339,-62.2214782268075,459.128209312956,-41.1327174446238
246.061793781422,-11.5202799914408,350.618537083094,41.8529660453626,330.1198385575,-27.8300705272814,1169.56276484088,42.4220222014402,821.622119464611,25.3019493980436,372.069684914598,24.4906808121018,264.536385976523,-23.5594905629644,464.874718474017,-18.3291678566424,434.292884486542,50.9028467253977,235.008827570377,1.44628634614104,254.384307796745,9.83416886829192,574.319768625021,1.63703812268646,1215.7927325702,22.2005615795824,651.128437379968,-61.0847688065986,457.14847351394,-41.0987085976415
246.335290362227,-11.433416349752,350.246322966998,42.5115273726943,325.620897219526,-23.5814604289438,1176.58889387671,41.4900502794384,820.517573073917,25.6577275087829,372.658404804219,24.850989882849,263.391379147118,-23.084473778857,466.022769812749,-18.8308108887917,435.477698742051,49.8047250620026,236.75940447549,0.935564344373347,256.402946845069,8.97984429297863,581.583280522133,-1.16798253341156,1212.60251054785,29.1323627360575,652.937380668788,-62.4679854131736,458.183066355739,-41.470451966651
249.900833119623,-11.8703228819471,351.401339949807,41.9704107003349,332.043605026939,-27.8178680470993,1199.58347702938,38.5703965114798,825.767019307141,25.9426616160956,377.406547941531,23.7457288265973,264.401862124839,-23.6001895066401,468.984412331486,-17.632688470791,436.656959250344,48.3859548182804,239.488816497549,0.889705959524682,258.461803080745,9.1775038101016,584.527498348356,-4.23170118529027,1228.31757133195,19.4126567490126,658.873013853141,-64.0613430819682,459.952195202378,-41.6322623201217
253.309795831577,-12.5020807753411,352.524688952359,42.2986776287089,334.119693323398,-27.710854295625,1220.77827461425,35.4605471541102,833.163289024236,23.7000948732901,380.559215683551,23.9484812123209,265.031112428097,-23.2292517374714,477.604650976814,-21.6027255998428,431.094923364647,51.8718478336785,240.25395822963,0.684078781492515,260.93959714609,8.83202570455555,602.037302526635,-15.6594115721282,1237.34633531969,29.9573966639833,659.484752670969,-63.7849117670357,460.502487147934,-41.7751121610646
247.079042566057,-11.7957868767385,350.990466918267,42.0668891161422,330.442636131685,-26.3030205366519,1179.07996564103,40.7676109427968,826.373614985809,26.203594771011,374.69117497776,24.3615788580649,264.271482772809,-22.7856489661106,468.704751064599,-19.7394013033469,435.326381521204,51.6246414384928,236.659741691151,1.2744238304683,256.41192062918,9.10507312439706,590.457382014006,-9.60749487246057,1229.29625932045,17.9476069131038,655.085470903554,-62.5949696468366,459.825461429139,-42.1973946605988
247.940915606566,-11.6019715162425,351.153013195642,42.1671492132237,331.081083230474,-27.1647258167996,1187.99751713573,39.7965361350875,829.508214056543,23.6829904764855,376.034930522633,23.861580613124,266.652867177609,-24.9632691934763,472.758568402957,-21.2633574971921,436.779653188786,50.2766217826231,238.056214911892,0.60638141359518,257.049502049805,9.39485046550547,601.32418433968,-9.58154095950765,1242.47116374132,15.7323036872756,656.170047232698,-63.0457780775957,460.814291707024,-42.2384252659479
251.977947814491,-12.4679994733111,352.590955564049,41.3963517094967,332.199478000661,-26.7502889287654,1211.53212761587,35.8152885161432,827.434748801984,26.6739814603259,379.892329426866,23.6873934958243,266.11405173813,-23.8968555253737,475.621724101966,-20.2455496849482,436.891357354098,50.4048772807329,241.249197241421,0.0658441036210055,260.399438885867,8.83876825072524,598.74060467859,-9.74368438326826,1239.65506058794,23.8255450382608,661.514409919649,-63.991428254175,461.268264667737,-41.503864324638
255.643349142572,-13.1752184564415,354.169099313327,41.2886972812766,335.200579631734,-27.6145028205353,1216.51377336686,36.5760441481018,836.054054915398,23.8067767612813,382.277734110333,23.0847136686144,267.17786382533,-22.9169073622999,480.583055538901,-21.8348994406728,433.300258756988,50.8624227355797,239.006684000707,0.813976221079974,259.282791278762,8.66151227455259,601.106749974255,-13.6645312395514,1253.50368606089,18.3817726995054,657.840146876015,-63.4330496014424,463.214740976272,-42.4184210552231
247.62241281945,-11.8925004117301,351.799425311086,41.5622653282032,332.235277194581,-27.8990280801062,1183.41729966806,39.4504491915993,822.505626242194,29.1948006709488,376.647401024825,23.4292257208779,266.068817920188,-23.8928488105279,472.87199616669,-21.4072591206089,442.521397432012,50.9374611924947,237.065704191199,0.993777884995237,256.78517585472,9.25554898190519,594.769050838769,-8.83994387107338,1246.31859780797,10.5583804778462,655.481822434323,-63.0009674680073,461.542174496345,-42.3011331907728
248.847648531292,-12.2088296512495,351.645458691947,41.8098204381206,331.368290577691,-26.3817486141087,1190.31409981671,39.7114751183097,829.549137190758,24.1226695612917,377.360560104326,23.6172088510988,264.186808329182,-22.4571627042031,474.720924078475,-21.2010539554783,443.648963583312,50.3135010912548,238.55141792853,0.813271290896601,257.061833085063,9.52981561126417,599.145949102446,-12.9621614379124,1241.09513876564,15.648254971268,657.273552913753,-62.8097906504157,461.255324314622,-41.9512520109478
252.089914615703,-12.4070714229114,352.602536880248,41.4164197710361,333.205122599696,-28.539596839831,1212.09762310244,37.3967217613597,837.100075254386,19.6827313724952,380.251586681515,23.6614368681599,267.474787569476,-24.4277986938204,476.915355291393,-20.5594932325116,439.771480291837,50.9597050878593,241.894373777024,0.0891613348573037,260.782532860364,8.83033429978372,606.087324321532,-15.1270339011598,1257.04911815611,10.7693341697703,662.233489876849,-64.2141285794685,463.694863045314,-43.1740140668802
255.770077044227,-13.1739982107158,353.036809011424,41.5905105674241,333.112156669195,-26.6250374895582,1212.20657438953,36.8462938573718,837.896059300294,22.4207224337656,382.975205579894,22.9746130359104,266.567814871267,-22.7968108954191,481.223636536918,-22.2918318435543,437.654837817271,50.4370892155607,238.365742335278,0.973805590268287,258.288180476863,9.40776307535457,596.161248787908,-9.00970728335475,1241.06471845471,23.4626176075194,658.479610492583,-63.5610926228489,463.998468836242,-42.5687291025991
247.480324692137,-11.6942052794878,350.750520782189,41.3260051871197,329.804328538615,-26.4799283781803,1185.9390744136,39.5262038968992,830.902855257644,23.2264734754432,377.52886310217,23.3630695991579,264.823422102001,-22.6549099034517,472.074248100229,-20.5189649051328,448.156340514483,50.6640809432688,236.876211745835,1.17586851644958,256.604460750189,9.41699361306541,600.397573988287,-10.073779594692,1243.68892911243,24.9269822544426,656.108446308599,-63.6151125707177,460.965939652954,-41.8426943043886
248.05985836734,-11.4143255114052,351.060224644879,41.5597769864565,331.889810874239,-28.1608756405908,1192.88334765059,38.8493711951058,829.999043241807,22.6901931643229,378.303261811984,23.1796721690445,265.738771647917,-23.394800044027,474.730069406826,-20.9250258788895,450.439259435851,48.7195352097459,238.570845921844,0.687452579699427,258.659727479531,8.76803422402128,599.93560619442,-10.7899593626785,1243.70369040793,9.59674266046606,657.594601320242,-63.5311131287659,461.169955042965,-42.1693285670659
252.24167753307,-12.2859672364542,351.752578604783,41.7020665396741,335.015954340155,-28.904692838854,1212.95983391983,36.9662325358023,835.842561009514,21.8181492609991,381.971989376063,22.8802191957742,267.632123786832,-24.406374528697,477.820533861914,-20.8881690188085,445.152371282311,49.4835460302597,241.425402704257,0.236497616206083,260.808633461045,8.57175839662046,607.309908820997,-10.9222664933968,1252.22688196087,24.0289247182046,661.631729131947,-63.9140754735888,462.988322692068,-42.9622682512859
255.702455687609,-13.2774991108557,354.201841866589,40.5690399360437,335.514653644921,-29.0189285088656,1231.51086495367,34.8243308670738,842.507239872603,21.954501499532,384.793994607083,22.6446733242952,266.185928285548,-23.0264674947301,482.380612846697,-21.7649345345148,445.061665800649,48.2678206581688,241.426164438289,0.311512188632765,261.840846443487,9.0206598273342,608.884732350592,-15.8970780996331,1262.76829178486,18.4544550728265,660.621399982266,-63.8687500891135,463.608034900376,-42.6438454344046
249.008046277918,-12.0766942554954,350.204853820529,41.8056080213101,331.63367938208,-27.7133383273112,1189.58794485284,39.7159643921421,830.005626523998,22.2066407956885,379.04577056093,23.1352803769795,267.982242849534,-24.0977794465637,476.530111937416,-22.3033218699709,450.625023389113,52.3602268193719,238.27716739964,0.723819828858283,257.666580341284,9.2985075562614,607.277907739646,-16.0259017534636,1247.10120451667,16.6919521001266,656.901430091968,-63.6510155529867,462.579510930261,-42.7443125485048
249.436380711418,-12.0262419945147,350.709312220524,41.3518851195208,332.53574559651,-28.1652698249446,1195.64363649072,39.3122230883602,830.738376820527,22.4260395388263,379.255201169625,23.0315924122783,266.778768228304,-23.6351169849716,476.9798822854,-22.0577408818694,456.699840526546,49.3893811758012,239.248309904292,0.376092250580057,258.449500518837,9.04025376016572,621.572184834738,-23.2391239926926,1260.12990370148,9.48366767136407,657.527810339309,-63.712427730441,461.95302438387,-42.2756717259666
252.543642392959,-12.3999712775056,352.170958239664,41.4263593164198,334.348561271107,-28.5112926267091,1215.56422417498,37.2166671800518,832.917326736112,23.9239539431701,382.278199278381,22.7464629100682,266.922776375983,-23.5109131008601,479.97087981485,-22.6608198867041,452.458846602461,49.1822500536825,241.527182061189,0.199718920056098,260.407383860004,8.61653561946244,605.756157762344,-14.0173149818976,1256.25292092779,15.4521887320964,662.048138749547,-64.7732938579951,463.428942519709,-42.7144854064692
255.979023421518,-13.1648035786284,353.135068624036,41.0717103462556,334.246520061553,-26.9979069975509,1229.96163278623,34.914513380512,838.910082422745,21.0318870881007,385.050868516738,22.4739081638316,267.696197015488,-23.569812236705,483.922162145393,-22.7181137861357,449.187578745477,48.251174618092,240.037434539172,0.346138506905475,260.900820503783,8.68496372507415,611.347056641018,-18.0527457933896,1260.36113499951,15.0629590170128,659.482340694014,-64.4384485016419,463.925354984402,-42.8194357605747
247.96032975969,-11.7316603797247,350.031545911469,41.2826604128412,328.649796004634,-26.9241532326027,1188.28808638407,40.6709186936641,829.567071306078,23.9047338638162,378.004404539288,23.1269227204521,265.427234987118,-23.4079306942694,475.318064137665,-21.5201135451465,460.311054115015,51.7051032854174,237.730117179125,0.616931203064374,256.805519223329,9.42450487574742,613.196146623036,-15.3548765780694,1223.04324349678,24.6254487991142,654.204858617924,-62.4446569350473,461.975994415254,-42.6331367518324
249.070287679866,-11.9797768428145,348.878080849992,41.7648148056192,329.193563726403,-25.5998337645917,1192.34439216852,40.8292611138563,828.965979007197,21.8643433308322,379.129539418585,22.7134021674527,265.834460640454,-23.8784004770627,478.156257283855,-22.3360456837769,463.26628872522,49.7768681311605,238.265931923356,0.933935000864492,257.965315050466,8.81768645737523,600.14622692238,-10.7784236653413,1236.1311523588,21.623741893439,655.150144763121,-63.1847178413683,459.90750068282,-41.7498310788381
251.7217837805,-12.094972267894,349.936589372,41.4411187494048,329.434319376965,-26.7714726676627,1213.33866971077,38.3487623216909,833.535464028757,23.842190778198,381.411705372613,23.0214120639652,266.043191365436,-23.1564308710784,479.599389205543,-22.3224201571227,458.565830553212,50.4206961073764,240.44562750477,0.807119722097952,261.06249776478,8.14921560404671,601.637481443575,-8.64619544038806,1257.37274737014,14.3279175476459,658.049420348148,-63.8626297111972,461.738109793779,-42.2997604284865
255.538842768009,-13.0893663165726,351.998562266389,40.2809714412547,331.821005354569,-26.3858495056647,1215.36106833402,38.3700902743447,835.98638244633,22.0075101605372,382.793675176272,22.7506966863423,266.943845880563,-24.0191449951453,482.829583687559,-23.8990737010996,452.641999122664,50.0164027578244,237.593105686821,1.24253803106135,257.871364012359,9.39302724812513,609.812060981879,-15.4609335867734,1259.92005067593,14.5118733433937,654.366238100203,-62.8847232114275,461.837610326479,-42.6251990208962
246.856178061321,-11.222281453698,347.51012886883,41.3804226516623,329.902618920731,-28.2214876801683,1183.19272703399,42.0411535949632,824.75816854751,24.9632308538037,376.995739814751,23.4861516458737,265.479954502943,-23.4573381492783,473.655951391333,-21.273432386727,470.108898662788,50.4480681273716,235.719978067104,1.4699609925858,256.202024246284,9.42874480991344,596.943948903894,-6.47347906123529,1252.75295592988,7.79693200850696,649.122325505381,-61.5212997770179,459.804026719746,-42.083746156788
248.48332795364,-11.823537734565,346.755974523998,41.7360987255542,326.523490057006,-25.8280336837941,1190.23305873651,41.8855250078307,823.479033639337,25.1019113821263,377.978344865931,23.2211540684173,263.085629918657,-22.2113161119213,475.373471862621,-21.3337630102106,471.218170966562,51.6263771114448,237.157178126628,1.18005900001773,257.660909593818,9.05513853335837,605.617844145106,-13.824961566743,1238.90344068557,16.7371346944658,650.786922562854,-62.0055729300224,458.297257161977,-41.3690575125884
251.213875670074,-11.9281571932868,346.431073219451,41.9837394840949,327.843302293787,-26.440124712712,1207.30533241162,40.4448895182632,827.502658194404,25.241261478953,380.476067528885,23.3707140005773,266.350413867649,-24.3720519060912,480.407782114412,-22.3787275974392,466.883914040948,49.5123334425858,239.147804452352,1.18933770018934,259.176054472457,9.09769367432351,605.528681938899,-9.08082953699981,1254.89451827417,14.7280078706886,654.547547152884,-62.5513021174353,459.360782262749,-42.0121378623175
254.165064000122,-12.5419642853885,348.915798922107,41.3134055495754,329.200169921705,-26.82967795654,1203.94601171918,41.1129553398252,826.596778520241,26.0283559947678,381.382515552702,22.9564318724296,264.577501426117,-23.2494048289685,482.186686086415,-22.94641298026,462.739797778115,49.2355085731421,237.142092862336,1.0964332380763,257.181945883074,9.25267354810416,610.428039748479,-12.2076715480375,1245.11367214885,24.5136852762323,649.908328580473,-61.7140862381383,458.638702760929,-41.5767670062108
247.34128797787,-11.4128753789023,345.347818394811,42.0429700387289,326.292049564845,-25.9712049380001,1183.84363861694,42.8797188167672,817.359098002274,29.7683028339468,376.527896085036,23.7170017074189,263.520059079054,-24.0577456517614,474.301978467158,-20.9899567073631,477.716007102636,50.6657349425243,235.26011383988,1.57716843945763,255.675555477037,9.4021076976491,596.067348003279,-6.31319892161988,1235.49992056455,20.2992131252867,646.720684085099,-61.1638587580271,457.468668950133,-41.7181423766135
247.772180309523,-10.9733130671278,344.429738322222,42.1972254749957,323.507682050144,-23.6569229160657,1187.38781890819,43.40647652898,817.77806819522,26.4312569130326,376.272574279217,24.0228861635748,265.305071538578,-24.0745439213456,476.01947962101,-22.0481810598303,477.388205061052,50.2760735853517,236.637882727389,1.26866424379494,256.949551591662,8.97057126454827,605.717218044138,-11.6880685698334,1233.67210628859,16.1912538740853,648.768347879388,-61.6043393426547,456.758433709524,-41.6338821736367
251.520632293304,-12.0884079096997,345.277084437035,42.189013856598,325.329431581674,-25.681327501478,1203.97424599533,42.216614779166,824.37690513181,25.396729705874,379.833402248293,23.5897365563297,264.074908253901,-24.2657567972688,481.597757484524,-23.6337248573423,472.379015514464,49.6181137077928,238.738692775292,1.17771482609203,258.643134209332,8.85700088141804,599.723076630278,-6.92199332282586,1249.33924435684,17.1616602524979,650.484037983587,-61.2207745090365,456.294637550262,-40.9467651413707
247.480085875014,-11.4762244558876,344.742266337237,41.596257861943,325.658960283894,-26.4143518164077,1175.03273171324,44.4934820174411,815.174678604768,28.4066098329109,376.894821875468,23.3802916312194,263.470104709607,-22.7779786942272,474.850355807025,-20.5865545747439,478.872969203718,50.5751799799258,234.168750789914,2.04856654606995,254.458227165369,9.59715791908005,604.045997287443,-11.7209411099077,1249.24270513957,7.63218302980945,643.702001951813,-60.693548290628,454.983530801549,-41.0560766855767
246.325374781714,-11.2142458201293,341.761056642552,43.0987644691591,321.881656372113,-24.6217870637981,1172.73985188068,45.6714023031368,810.811980511015,29.1163611054997,374.780677307523,23.716007298094,263.885082441081,-24.0265445892809,474.645171887787,-22.1901315067528,484.85001821425,51.2899171876663,234.148104749061,1.61425102243506,253.716479197496,9.77915732160097,600.253283580424,-11.7987716030848,1225.09470375227,20.6916406155544,641.802793188271,-59.9914351581815,454.178452189358,-41.0526592882444
248.075150264606,-11.0007016435295,341.213557131168,42.9659880308783,321.075918402649,-24.7533340912358,1186.47383047794,44.3687374192503,813.735039752701,26.3174839482541,375.71899336004,24.2259051647421,260.667279686696,-22.3162484245629,473.708766697116,-21.6638491232705,479.263943236789,51.6404972534857,235.600784397498,1.74906032022969,256.217423084081,9.21242409978649,590.749533627884,-8.65037840393429,1227.37711754141,23.9567514783661,644.990162237089,-60.7396024470431,453.807908469204,-41.1544803186897
251.42285853392,-11.7757873983196,343.085079653318,42.3519494862699,322.843611280259,-24.8790648391984,1204.29080546017,42.9245970163174,811.123262643066,29.9677345825202,378.912793916937,23.6103452673217,259.200832367093,-20.5159386527423,476.575198367778,-20.4506121583128,473.10183939738,50.5970129411424,238.245195901127,1.3751575314522,258.057871369539,9.40304317881342,604.976392703208,-8.61146315734581,1244.65925265186,12.5297564247265,649.358237150232,-62.0057959472997,455.28751045407,-41.1312064787689
245.759567327161,-10.6464669270504,340.486092710002,42.7626405258142,320.180255124113,-24.1943375992103,1167.74734395141,46.4206413024823,807.114268190599,29.0979237286387,373.584272297314,24.0984356156063,259.626778375693,-21.9693205840901,472.551429551484,-20.6892763883237,487.744976161232,50.6273063993261,232.499245785871,2.14127031870442,252.939710195813,10.1111302316715,593.78219836334,-4.26090881521901,1217.05209925403,24.3274912870976,638.461676339508,-59.7664608031607,451.702114473086,-40.7519875530948
244.564661873263,-10.4832676190683,338.586710303992,43.3984999831505,318.232677058136,-24.0831473416308,1164.67438693197,46.7726932052812,805.130253659437,27.9876119490736,371.990183315157,24.545796232225,258.165847528457,-21.3372901808987,467.042074276067,-18.1991043671203,489.053264330431,52.8735077302571,232.048939908532,2.25180961364138,252.98395248334,10.0326224592921,583.265547847933,-4.56950054027037,1228.96642661289,7.58784242034809,636.629317972185,-58.6362126631497,449.829948045628,-40.6253945799766
247.285776694228,-10.8245915920957,339.381038674817,40.3189131015928,319.61077239804,-24.5711442713875,1181.68391175804,45.4955966782928,803.411590330915,31.9960792317866,373.757402993145,24.2528245585191,257.112656211771,-21.725731777762,472.341468349475,-20.7648889508903,485.599980184025,49.3353198167341,234.879947035787,1.76640217326306,254.672096786917,9.58526668561326,600.636001114838,-13.9661443457728,1224.43312181099,14.8202951685493,639.981874792344,-59.7315099211509,450.009120422828,-40.4228040029467
250.212219400778,-11.5287921786207,339.718318548295,40.6242631320788,320.424170046371,-23.8253815086841,1200.91774792334,42.8762491813072,808.659925080422,30.839629756978,378.216126728032,23.4226766449737,257.45830187356,-20.9449827670061,475.976399887454,-22.140134557183,478.014089608385,50.3020372685972,236.826333956809,1.73876810463136,257.443477395001,9.21164807304284,591.021343144877,-12.9704350860919,1239.30607542981,13.8677587635971,645.61995624131,-61.1788254879438,450.87304467266,-40.6117985795602
248.562559867794,-11.3310116907185,339.772993049341,40.5288673329957,321.525318383493,-25.8790135129568,1173.69255998451,46.0883341226979,806.837464011,28.0202853528371,375.50816075179,23.6530377333678,258.463775953143,-21.2533700302051,474.188892872171,-20.797840956721,480.127080652961,50.7146771567912,232.512751852176,2.18974656020419,253.289345762409,9.98600534260464,591.806511307259,-4.14571702735095,1222.04014821106,20.9339541656806,639.198521311806,-59.1466105639083,448.929181039769,-40.2391377422718
245.19698092867,-10.5716805633953,337.530683407791,41.1163969489646,317.547181715972,-24.3197521408753,1166.56830583503,47.089620501089,797.358894587033,31.8349187105567,371.476041460885,23.9268019772502,257.209970425344,-22.0361848295864,470.639582422049,-20.9944839909557,490.689068392502,50.608629634724,231.448696347717,2.49572837773863,252.099604829113,9.96421582748487,586.742303672965,-7.1194235363247,1204.00894145324,25.2076056633532,636.944399350796,-59.0379607143621,446.587471009362,-39.8987650876226
246.417341792398,-10.6379396378194,337.952867164792,40.7932358567699,316.242991274296,-23.4582666220214,1179.15079886471,45.9288183379874,795.646155904635,32.4700388771708,372.74391777159,23.9977490523461,256.672511799768,-21.6852560470159,469.30203040943,-19.8469049519936,481.789525982078,52.1177592090231,233.671819581809,2.16879884077923,254.01334570853,9.67936855206808,591.828117800228,-7.8071441126087,1220.59558992608,14.6984667995199,640.301468392124,-59.7667447847146,445.42468681932,-39.0058572580305
249.102676686326,-11.1645711469776,338.484122508447,41.4264071255719,318.848474541457,-24.1881961563423,1196.8780584429,43.2788793379679,803.329047838229,30.8227856837901,375.707738078979,23.7270963197312,256.381544650863,-20.8966984322259,472.842474698939,-21.4664193460434,474.52959376909,53.8600757388517,235.555304003563,2.1516721080732,255.615720315329,9.61022884112624,595.543662860097,-13.7931199258564,1230.24794174518,15.3339383456315,643.726587612857,-60.2736947823783,447.626585812098,-40.1376182468853
246.499336210647,-11.0150140251201,337.466783040976,41.5132942550799,316.689991428482,-23.2897519954808,1169.64926030861,46.5315781284499,797.753678172399,33.0230545527994,372.442496911227,24.4077469461246,256.714932369375,-21.3043203056157,472.823938160521,-21.4471463553854,482.01800825047,53.1697330958801,231.27738441591,2.74383645080007,252.579526266968,9.73220644716476,582.29804805197,-4.40982490044144,1218.46337916977,18.9874593704311,638.865408927225,-59.2013804345882,444.449686219557,-39.3243120830976
245.27649223748,-10.3522747773772,337.713924536019,41.6728481236365,314.496889333471,-22.6099567821789,1168.85655831817,46.3951503431707,793.649454797355,32.9155841901731,370.149859106483,24.3139004480378,253.772311025788,-20.3660511705746,467.747793391732,-19.603658987848,485.0190262699,51.6788832493917,231.137349724548,2.70595798973177,251.768588330312,10.2474875196073,577.946053046455,-6.56057619035272,1198.73202353573,24.6160886281474,637.779104428801,-58.7803863344892,442.342877210961,-38.8388876038077
247.503961630439,-10.82998470233,337.549494410378,41.9283327552957,315.323850323903,-23.6059562100893,1184.91695013756,45.7887426034713,801.655046064222,29.6838764025281,371.850560993664,24.6122546749049,254.809418196049,-21.4015509169672,469.384040498953,-19.8164184205342,477.548721686356,53.3222801045133,233.511245889576,2.58082138784085,254.355234120417,9.6797964290451,585.924962211368,-13.5369986572839,1200.28500219686,25.7140582080066,641.685273726986,-59.5341542497043,442.820633444308,-39.1893045468174
250.766204429443,-11.4371562887968,340.171051474355,41.1227610042042,316.750042162303,-23.8299735823546,1202.23255624911,42.874608437992,803.605743647781,30.9639320712934,376.275530495006,23.7290701719967,255.750782375059,-21.3419836389721,472.389854936767,-20.9207989391001,471.090574540974,52.6660706524851,236.00514133809,1.92391253861072,256.620826631074,9.17392705098322,572.964561630091,-0.291865495088929,1206.73702216609,27.5340019510155,647.322317252921,-60.6996786218954,444.72062302616,-39.3539423897477
246.375520763031,-11.0573598406927,339.903413176173,40.7775231863301,314.343823275976,-23.2056429950457,1168.8949470123,46.4798064123541,799.332577402962,31.119131508789,371.437675425859,24.3200052361377,256.455568318514,-21.0786366398834,465.96674093217,-18.6946100727913,477.146157540002,52.5132660082387,230.550204390759,2.75008148451473,252.122244697753,9.96583641439081,570.638904467795,-7.86466741240914,1197.76882633336,18.6689604636107,640.049889413401,-59.2452321009884,441.216124282685,-38.7033772099543
244.666888207277,-10.5945160392028,338.641152973701,41.7849007672677,312.0795267248,-22.7767733100776,1166.46786818839,45.7690297374743,794.642164426829,31.0169018665407,368.253422592494,24.5237253055002,253.183380601903,-20.8379788929909,464.022552412596,-19.5684683528375,480.356653008634,54.0934288212453,230.088846261932,2.8484998732705,251.483726772531,10.0597406761552,569.049546384497,-5.30503638308599,1187.50874782001,36.2909652987575,638.788341534104,-59.0473703638371,438.335360404687,-37.8574101326911
246.655378391507,-10.7259475115769,338.834197869321,41.6644799359301,313.552108343413,-22.6518926529587,1180.68910521678,45.1314598478932,799.001247616431,29.6487163598717,370.178258423364,24.7252572894981,255.272762915229,-21.4950769206274,467.807454773799,-21.2240272741453,477.337526237365,51.7096998896048,233.123339687037,2.08864353017155,253.673322004155,9.31401050089007,574.909161049409,-5.53401411145535,1207.6412611402,19.5150970340644,642.143990294412,-59.5129206409822,440.314135509417,-38.8376727884569
250.319731157335,-11.5494991042315,340.837454975428,41.3617566898068,314.066270077809,-22.6095724602954,1199.89567765457,42.6516659724218,806.047280590967,28.952604851888,374.086703340829,24.0896422234942,255.073676857462,-21.5963946376883,468.433668070805,-18.9698125406297,468.29802806296,53.3998367624665,235.45979086349,2.08157761608145,256.428264328082,9.17175134338639,581.916764211075,-14.3619096477092,1213.29046909745,19.5641424266279,647.206316797461,-60.4966274562158,441.252977891581,-38.6247701910451
245.723551378558,-10.6368465849237,340.761072939586,41.1920783836005,314.914144669473,-23.9740501281083,1168.20838008017,45.4625823314683,797.425904529611,32.7383553716776,368.834042290156,25.0549025909563,256.328400966331,-21.9233335892788,466.792499142523,-19.7651200452856,473.852225133908,52.3173173407555,230.752362560542,2.52825249050371,252.263064036665,9.86015080107412,571.817607036275,-7.74727030433469,1188.08159604746,29.6575369821467,641.232708728792,-59.439682015943,439.126246060804,-38.3364482310593
244.926121508293,-11.0752111362485,340.337278730163,41.2224401407832,314.832769674509,-23.5414678312541,1164.57721118739,46.2459523837021,792.087877519488,33.0696707586377,367.443420847424,24.5718633973266,254.769899877726,-21.8963900354817,459.662269032995,-17.2758604073714,477.048067507559,53.3180563770972,230.642014239431,2.62259617808279,251.540841276311,9.91059391007904,564.470992741274,-3.98048507211773,1175.80651961051,33.4259454387392,638.674357329014,-57.9782214927993,437.981056818358,-37.8794939860407
247.601265038121,-11.3970670552538,340.978964237966,41.6469974205274,314.751221953417,-22.8332752926993,1182.24206615193,44.2681943194726,799.655968258119,30.5723855341016,369.316987730079,25.0078502033981,254.367195701605,-22.3657439674329,463.396079954099,-19.4470059325224,471.010699910822,53.7517272421222,233.035734155412,2.41832986265172,253.471945302939,9.72815223856325,573.656175676598,-3.06277378246732,1188.7169817229,30.5327116080453,643.416512129197,-60.0882339878067,439.362799195595,-37.8814853738245
250.495641046184,-11.6709915812015,342.452545941085,41.268089950628,317.453340623094,-23.2603612658579,1200.23598331904,42.2077123462552,803.844757719639,32.1500301549075,372.73553074674,24.6030892612437,255.479101977813,-21.3363979705971,469.363452237171,-20.4068316135705,466.402810796147,51.8247514021898,235.952873860912,1.816071308996,255.74904322676,9.41841613839146,575.679146310194,-7.06559722556946,1200.81385510117,22.836436218024,647.644770979299,-60.5420389993883,441.08436339951,-37.9705025316664
246.303093742473,-11.0030911236084,342.495313638505,40.9853835581371,318.195485623302,-23.9933439198788,1169.67273987996,45.1212705197498,800.256964054476,31.7457687427081,368.980093191057,24.4572322263311,256.037857062494,-21.5902430261864,465.127404915388,-19.5466538879349,471.020517243073,54.3135700073112,231.168910799653,2.71887041118908,252.348303618311,10.0697703135273,564.939585511181,1.01757040495517,1187.87714801197,27.0432498412843,641.642422111115,-59.6530638271341,440.230653936969,-38.136528393121
245.956001715556,-10.9647518821822,342.367405291233,41.0732153149208,316.400548677716,-23.0704825086849,1169.66553380117,45.5117915887898,796.466285722142,31.2439100248422,367.760228685829,24.7035517563524,254.64775509868,-21.6051461239247,463.440201620905,-19.1845202637391,476.930005002218,51.7490681079229,230.676261821755,3.08817982723621,252.234803198664,9.80498665330433,569.026124954867,-1.05948398714835,1188.20949396282,25.8232436620128,640.188889575353,-59.2812367940659,440.710485138353,-38.4255518409171
248.696276532194,-11.3738627537993,343.640453418159,41.4918975069622,318.314696772328,-23.3792887874164,1187.5683761462,44.0903248302524,803.777387479941,30.4007549239957,371.24389368555,24.0204419392356,256.54897477925,-22.4003026312975,467.579902621873,-19.147476578653,468.177558732137,53.8654860867265,234.097989575928,2.10073490345285,254.999340584986,9.37419357935096,571.838186600342,-5.46526527978356,1193.34223979303,21.1179473477321,644.551151134142,-59.9639791496924,442.175311516456,-38.5018662361257
252.38502087239,-11.9262803439411,344.824346557856,40.8675838465707,318.462345020276,-22.4797137411861,1206.33049215145,41.4649989042103,810.208168971301,30.3258282843364,375.293459042459,23.4911382312712,257.396354170783,-21.500464391315,470.861107641642,-19.8974589132932,463.485988107902,50.8487671928641,237.131841771301,1.72231257419469,257.803833123419,8.91791041411641,577.433146013648,-3.62338900910343,1214.34264778289,17.0452533506851,647.139874078069,-60.2573386268301,443.011658715954,-38.152382316775
245.706553328751,-11.0044560134231,343.310829149437,40.4662785819468,318.862160666587,-23.924134318556,1165.47314458656,45.5399722211407,799.705291621773,30.2684853216954,368.009863368293,24.524032757792,257.996574627673,-22.6442617487309,463.38963341011,-18.4994525955741,474.244200028954,53.2996740226521,231.101109906496,2.54634860708726,251.569876496253,10.5511897091581,573.71668274735,-6.1787910395762,1186.32472080109,27.0040318351931,639.155353969412,-58.9701304915796,441.111768072302,-38.1725313201644
245.743637734042,-10.9624301935325,342.930625376296,40.5744287752134,318.404743472956,-22.9738366992746,1170.54780322942,45.1423312155436,796.419841880168,33.552635715593,368.35136315352,24.5162893644317,256.450535876116,-21.3062586661702,464.674501971916,-19.8454455620213,473.441506407755,54.3156811227001,232.122105758344,2.4831715256835,252.262641861668,10.2681073977158,574.609633246648,-8.28278170886168,1186.32168876732,28.5005534616317,638.554485386931,-58.3485160208112,441.883666640123,-38.8978637331388
249.263333943242,-11.6912165835829,344.168130656894,40.6315899412868,320.658851419783,-23.7243288083429,1191.05527868697,42.9459153477243,805.288518927974,31.9627647354208,372.427098263681,24.0018568971879,256.75208139363,-22.170503851337,466.708795698861,-19.3370421968371,468.267831035328,52.722344256937,234.892353045201,2.05797428487783,255.179179494329,9.42884989448865,569.266236248651,-0.313677272186245,1192.38940572966,25.6472386868708,643.558044927606,-59.2741898213531,443.422977520409,-39.0043899668965
252.897966946506,-12.3778385504741,344.974325050818,40.931096832366,322.721662051326,-24.5551316927926,1210.23477012396,40.9189061202977,812.793627786579,29.4381351412761,376.405968549471,23.9379262767929,258.173249512938,-22.0534451328303,471.940985093003,-21.2324557562981,461.651977870341,51.4857630147098,237.68861640721,1.76732356617833,257.695569333152,9.42407608499151,579.225663881071,-4.83182865933777,1220.3377135906,18.4364158413728,648.085255974506,-60.6357793507876,444.770871516375,-38.6069206916205
245.682597102886,-11.1237459401463,343.648243260138,40.4907101915976,321.247905632581,-24.5522464665549,1166.48685912733,44.9960455006273,802.134711018171,30.8567460828766,368.934433344299,24.1918598478542,258.560569127018,-22.5294928870011,464.544436442904,-20.0402418955368,472.880833898353,53.3716232040704,231.542396936266,2.37133613916442,252.619318003427,9.81984789668989,569.267425317645,-1.83120003789103,1191.84372998108,25.6416196387031,638.236510152303,-58.17232739505,443.018310818663,-38.8282641766837
245.534739085945,-11.0360545382588,342.890235465923,41.0070900461171,320.402381066123,-23.1846767260922,1170.32847558179,44.9655807842477,803.806131305445,28.8256436964351,369.208984623287,24.3033564165896,257.359126111192,-21.818406407969,465.966151196242,-19.8951625626907,473.447929470981,53.335379325349,232.82432251595,2.25291441257674,252.571428138915,10.0294523317909,570.830539378087,-1.53255193854771,1197.32599961769,23.6135427171614,638.965596033151,-58.5432290774905,442.895089037416,-38.8205849043693
248.916339431946,-11.544069245673,344.046279072103,40.8140303455211,321.974359905545,-23.7287915248916,1192.40635627873,42.4522557940873,813.727365135418,27.735760490412,372.615748646621,24.4265537044634,257.483213467036,-20.9846332085684,471.094287713099,-21.4085807487856,466.444416146808,52.8904032813385,235.629201010787,1.80345337753438,255.642598007306,9.65263549301769,577.060389185916,-4.46680806655958,1212.88896205102,15.6039392860093,644.644605656397,-59.8165348693277,444.365931835658,-38.8313988848985
252.656435987838,-12.3813172240356,345.099908713188,40.5489315426129,323.26798266193,-23.9869968804259,1213.06281470578,39.5318250569851,819.730871560181,25.5715215259002,377.536769299857,23.7117741632363,259.573542810391,-21.9811008388701,474.721015058982,-21.4848676899749,462.43449804576,50.9600255822859,238.852928434822,1.35625093812841,258.171532029457,9.5555151863616,582.9328021195,-6.90531979391317,1226.69098143591,15.7962390250119,649.3274198017,-60.5337602994535,447.001921751978,-39.1973709087806
247.223737931601,-11.2976321306611,345.388323359834,40.1332064939094,321.867965835092,-23.4154727448253,1175.90384243637,43.5291429378269,808.633572287895,29.4715412222993,372.393626326075,24.3074762345386,258.496251672629,-21.5578461496113,468.784122207634,-20.222457652555,466.093962713703,52.4547416734144,233.546971341837,1.92044594669004,253.564820526285,10.1652969897554,576.567813659793,-6.34956264585011,1211.16750249675,21.6019740012873,641.427120111835,-58.6327675594347,444.811578785202,-38.8797357325835
247.031668200407,-11.6894602150446,344.080023537521,40.8810186714832,322.339148459559,-24.316235543565,1175.65401578223,43.8435898761679,803.788634368332,32.4813266862029,370.697423928353,24.4217757932222,258.288648386747,-21.9070065469902,465.961330722455,-19.2394354633384,470.40552648731,51.5317207181692,233.584581288438,2.12824647767039,253.554478842551,10.0537757558422,584.549991914557,-13.1998179667992,1206.45159206581,16.454317955733,642.298387413669,-59.6127160514299,445.554729012488,-39.4276644210486
249.834609477967,-12.0258018536266,345.599578249416,39.7385605230331,324.165583739313,-24.5242484611127,1196.58424655639,41.2500038024361,809.598319509093,30.9861107583737,374.449399361701,23.7353772200884,260.443429864843,-22.2358797968311,470.245561286653,-20.1987516566282,463.913894977946,52.2134083011795,236.482680217212,1.77513803859928,256.6901898432,9.32287712614792,585.624277360188,-11.7132907089236,1214.817442752,20.3658226033705,645.53081731177,-59.3498156954906,446.185688155414,-38.9743698783202
253.249032450586,-12.7200954946559,346.636532991767,40.2006624885443,326.154868132795,-24.9577050121376,1215.90912338622,38.7876748420607,822.925062424035,25.8355901085005,378.388718758041,23.3225427689002,261.04236972521,-21.7733588744721,477.368215374784,-23.0833087621905,457.885418850175,52.6655091992735,239.957425211702,0.988527237442627,259.729994286882,8.88179193182914,583.034589139185,-5.59016843379326,1240.25225614499,15.232709150239,651.826008928859,-61.0109954999699,448.562841537982,-39.6416693564479
246.734266156765,-11.4323234646569,345.293663499944,40.1849076735439,321.395751611534,-23.8839152938271,1176.15639922409,42.8464716357661,813.195798536542,26.636314961088,372.41434105038,23.6584786554274,257.926354478408,-21.5569802373848,469.341542162503,-21.3985098997502,467.16654304949,52.2614339313193,233.699529221104,2.30524352290314,254.138241723392,9.79875285354561,581.821312649109,-6.01639327596737,1215.1430360793,13.4513514714954,643.227149378307,-59.6391882333524,446.489807471316,-39.404042679071
246.813098524344,-11.3651372920983,345.661076684428,39.9065630164951,324.028200739289,-25.0480666900672,1180.0033539868,42.6896031906085,806.39465977677,31.5580396277918,372.422206766136,24.2500061745758,260.353163915951,-22.9770536255566,468.990724834786,-20.0776938634867,467.146813365553,53.0212462534645,234.533851938889,2.39963738285185,255.011154640685,9.46023317443794,567.377838536789,3.89435593421618,1211.29301244692,17.6555335521364,643.325778330634,-59.3307089935222,446.925717369203,-39.3998570852794
250.49075672405,-11.8613759234972,346.390422787719,40.0110346240525,326.282858572616,-25.6494650301371,1202.74888878435,39.6131299389491,816.401545186905,28.3208063607497,376.083551032334,23.7608549234596,258.20173412538,-20.3315382610844,472.408824208843,-20.3817941768251,460.450637622261,53.0903120540712,237.740966969161,1.67134130605918,257.432980688674,9.41883647669238,584.623762943786,-7.03494250397423,1220.57832599593,19.9852751209449,649.264117426849,-60.7603635826211,448.565795923446,-39.9068682440424
253.852630888416,-12.85884424637,348.833800806343,39.27686029035,328.15588540053,-26.4939656047852,1221.32421093958,37.9901339758852,822.033286744793,26.8943845562199,379.45669330028,24.0007265075726,261.53667772096,-22.0796080827907,475.538574637735,-19.8495530184656,458.579156711469,50.1239774924926,241.035631046031,0.877307679005699,261.480439561725,8.42568718192779,586.425851888406,-4.09384107204029,1245.87118512061,10.6261006690278,652.002765940745,-60.3646043384626,451.051219770516,-40.3839352962776
