1544.69839795207,-18.350742030655,177.223172925399,41.998595215135,633.19636069341,38.9258992829269,1655.36658056206,12.8024592458842,160.337569569625,28.0226961842615,571.253323715829,77.598674152423,373.95547207228,-5.0176196917282,602.421166524218,50.313092111222,419.92466594321,100.403182473022,596.216747876379,-26.5411159129748,550.163530337087,25.2575336334784,166.120699001401,10.8125343676248,111.112991688583,63.0477093927506,644.731803253197,315.147175862231,1158.46212905771,-102.241367924037
1544.7817413023,-19.0016755016823,177.172810220757,41.734530540048,646.435711450615,29.4042992057563,1644.39003353404,12.0715100232077,158.018518324441,28.2128251635319,562.584305694155,75.8861182775019,372.264451904806,-5.34509337084437,590.124095690553,50.6359226414398,405.423551048397,105.216332493347,591.060548299401,-27.2733836613959,543.990741005944,25.3405424523487,160.742613655956,16.2014754043885,108.78809528958,63.8614662519517,641.365325520404,315.007581665611,1156.72749590555,-106.992103927759
1526.10783234358,-15.9637873502836,175.411615456004,42.5483481236698,626.323565666803,34.4626080219821,1644.7195353378,8.30436294387579,157.749418388607,28.2783443657082,558.983822408751,77.8800021930557,371.52490145839,-5.55237608105408,589.505474576943,49.5409968919235,411.56722692865,102.956110012316,591.549527666828,-27.2236977456061,540.449332000567,26.4844913108022,160.810885557711,16.5601747874772,108.150775709017,63.4906543896165,639.117588186345,314.357681014648,1156.76750864461,-104.27233517568
1544.17779053697,-20.6775449060511,177.269258446557,41.7035357081212,635.289889462784,30.8381843642089,1649.74245982164,11.4907700599584,159.30744065792,28.5599294760717,571.851077930691,75.351256695876,372.566239180738,-5.31856780677629,597.721526005189,51.5990809650339,414.746024142967,105.412993774522,598.963091472372,-28.2827174979862,548.606341526527,24.9842824409388,165.384596520232,14.7441793148551,110.70164797934,63.0295106464007,642.411791692968,315.36609609133,1167.21055579141,-105.331514462246
1566.03054046596,-22.1864393218721,178.91006893698,41.7738174275716,629.405857285076,42.2738759396467,1674.32703139384,6.28500944955927,162.52034938242,28.1391081724891,582.214978695577,74.4306703437232,379.728954239291,-7.5864175847877,610.73233897446,48.457347984369,431.827681886333,91.7186851307153,604.779457998296,-29.4809236259601,554.602047540023,23.4004109433913,157.29531356823,18.9402331352418,110.778690900805,63.8125529576615,638.699263730582,314.021061473427,1157.65744369749,-104.86080238103
1523.47423680811,-16.6072583944802,176.06755827834,42.0507429911621,630.004676652415,33.2555442232604,1632.89897272855,10.5520314080655,158.883257300802,27.3452250401424,560.710943431904,76.4216251240909,368.113785779264,-3.94021877340078,589.214680267551,49.5065464379577,409.495078782984,102.738980917965,589.201047112691,-26.4219009931053,538.67597259548,26.9135180501127,154.607637831586,18.4056580596397,107.410911791653,63.9006509502449,641.278342492974,313.851490893147,1141.41295182293,-98.4447402985795
1529.16166878444,-17.3411370283476,176.661714519225,41.6856906588635,635.500989299527,30.7999373585972,1642.91274809781,11.3494277417312,159.445457297526,28.7629792034244,568.378342825734,75.5406988347473,375.099514301121,-8.02727851456999,595.52608893491,50.5856320822328,407.598113870112,107.068732765246,595.621013388646,-27.8224662152618,546.945599730141,24.8369081775132,162.614430738567,14.8053475275649,108.234146550159,64.8913220648129,640.948325034547,315.115595744844,1157.36918676498,-97.2671639293117
1553.07532299422,-21.220845220167,178.496397415981,41.6128628188331,648.682800946617,29.0660478299159,1659.77840786338,10.1767482561581,159.792925728345,29.6212680917021,580.914734440456,74.5984336751348,375.949672496926,-5.98596783804849,607.063343192707,50.3787964067607,428.749728249751,102.143525792002,605.204252839918,-29.9159610276357,550.183482685991,26.7739225581465,160.272226546543,18.4677173991884,112.703428426145,63.3895008731663,646.510689505106,315.695085144618,1176.56706382622,-105.664099256062
1571.05039804805,-25.0545297435789,180.00379081189,41.5348693245375,653.603056972056,29.8068419043333,1660.59596399776,7.03991493575403,157.297081365205,29.6898290204536,573.832511401058,75.8014217990813,376.583930804616,-6.49552789202545,602.869274475987,49.3875633451552,418.386254894863,101.976849875302,596.953337375396,-27.9868872791747,548.653982084737,25.989248267744,163.047585218841,18.5349743537167,110.989425658534,63.2707678635071,641.274975672366,314.872586539371,1169.07716534055,-105.144634519888
1534.76561819984,-19.2230121688287,177.255642499731,41.9072715775774,634.559390386346,31.193090521553,1637.15240465862,11.6734127566991,158.241207631207,27.814358597369,564.896441195329,76.7216972780544,371.556128609416,-5.37323338015258,593.741083866241,50.8295558882865,413.254642502364,104.342335853676,592.898920055452,-27.6192837236951,540.403739810293,28.0009414586576,159.198405082619,17.1062622303075,109.222264520054,63.2529921488491,641.193908885838,313.982650557676,1170.62646811748,-108.43487110779
1546.40620592241,-20.1154715678629,179.150689268205,41.5716946071861,637.342351324614,33.2615992197426,1649.95574568965,10.5007204427967,159.185069159829,28.5848626294465,577.829100910743,73.704210394879,375.064321913514,-5.42795732242707,603.290037827261,50.0386082750971,416.586440702783,107.759801064044,600.290769078193,-28.4756483816918,550.630624530319,24.2941063685955,166.834698895664,12.5323662558559,109.709189219397,64.9141709876032,641.685068961667,315.630455235318,1175.80269536658,-108.880197407106
1570.40575805141,-26.2324484473602,180.382434257446,41.4375951469186,648.963131598417,31.3473831553583,1672.50894058696,6.58641981207252,161.122990091066,28.8237385046743,588.215418573843,72.1598636358122,380.647261001607,-7.23564381119608,618.034787617569,46.8184570859096,424.551295767433,101.650237190887,609.444058361082,-31.1328740662582,560.692584889682,22.9697494536017,163.262456784299,17.153242195618,111.622645719861,64.6447990434638,640.056556099665,314.076168824924,1180.03996677497,-114.664554011463
1535.4210499443,-20.36258458356,178.426657140843,41.5777215059406,631.082463901567,40.0613669351664,1646.67905969799,9.83995864431702,158.28030887337,28.2379486051972,569.774287973805,74.312449592389,374.402273040206,-6.75311646790481,597.984618945668,49.7430607373751,423.6700828419,97.0900132901637,595.542989527829,-29.0698140817854,549.065474105708,21.987521872875,161.853969094871,15.5273454497673,108.94846927316,64.0250737021736,638.089629716847,314.070439116046,1169.51345484954,-106.300070797125
1539.22565757261,-20.2374239861881,178.77318836622,41.4091421304821,645.184961098073,30.891872777356,1646.96254752042,8.64464250269789,159.843195765662,27.400043652561,576.888538741776,72.7404515833596,375.519246998232,-6.34462633042801,604.585166225736,48.5869889530763,410.639652472404,114.662982472671,596.510423522482,-28.1250321166469,548.712687258301,24.82642050846,164.223640861481,19.2203054685775,112.206247344955,62.3260583378992,640.500788649828,313.684006162046,1167.78760875207,-101.741499376978
1561.57370556048,-25.4719160357754,180.069602212477,41.4385973264438,636.256587519555,41.202519635018,1662.75728347664,7.18064619789638,161.715666683468,28.8761851514265,588.37473091408,69.1007481826992,379.570186243551,-6.6975375174836,615.060376823812,47.5258902661599,427.68036089304,95.3280803206131,605.15606359444,-30.682290948822,559.587757268702,22.8972696522805,162.207707438617,15.339733046032,112.164478673016,64.4465222541117,643.32149639891,314.182227692713,1200.50729123709,-117.025980354415
1550.94450664415,-25.3219353852861,179.352529090132,41.3866833847531,654.837904939107,27.9898546937777,1647.23139799678,8.82912948557831,160.113044440703,27.6618437832465,571.948374932922,72.579275385229,375.226093769458,-5.33780431414619,598.480817754792,48.554473898416,425.30177226439,97.537845561689,592.844070278563,-29.0701730071989,545.757882424216,24.7081055567579,166.729851286477,11.8734764865807,111.490953556897,62.2770800140988,637.697387184546,313.125730153248,1168.67691211892,-103.58676201488
1530.40743465742,-23.6394828290593,177.967499213071,41.3711841561204,640.297096562527,30.7092369774792,1633.94770019715,10.3763489351825,157.559683427313,28.9335627469212,567.036529100789,74.7663289245324,371.041823146908,-5.65596398478682,595.677198898108,49.5033490559457,427.430464803434,92.4167536349972,588.688360928095,-27.2098308745218,541.903159897059,24.4626908113087,153.557574159138,21.7628557336046,108.971347257571,63.8924481686099,638.244575377736,314.063575036163,1170.35190985089,-114.297626528277
1537.31751050139,-20.7340750713813,179.152845397522,41.5326236538898,642.659739821368,37.2565222964079,1647.39422268226,7.89342195408954,159.525614987301,28.064032611559,577.457327076594,70.7496126855665,376.709785249991,-6.77719310391282,607.707851186912,47.444127678402,412.045053715525,103.851320860121,595.614605168879,-27.9171263747109,548.628809686972,26.266575599579,161.896136387833,16.4536488852449,111.676555451208,62.8974187173548,642.092982093784,314.295133533062,1172.7855323022,-109.613673061518
1558.87894465762,-25.4033565833737,180.592107153514,41.4966532713878,641.026518800294,34.9476782728969,1667.77771616441,2.04757795679205,160.049445687984,29.1679378904109,586.217925784143,72.6647007265584,379.448884606448,-5.86523337559139,616.719678071236,47.6509329539247,423.812017529612,105.873069189709,605.365594417751,-31.2259614309896,559.526987694951,22.6220826191093,165.201844353105,12.1433225249423,111.533979854247,64.1891574312473,641.860380062653,313.821597868803,1190.42885241588,-112.640518476468
1517.53991707492,-17.0059773769621,177.954440335766,41.6019568941424,639.900084791196,31.6560848652089,1625.53638406399,11.6320163795215,156.911864351437,28.2165920635819,560.5064432248,74.1046507557312,371.79439139703,-6.13052322514994,592.152009341652,48.8697638943678,423.355062229225,99.3090174939888,585.463942632208,-26.111568778062,537.564955881375,26.6149668323063,166.002926357728,14.0407159143606,109.39595704128,63.3549890096793,640.324905355559,315.29565529113,1161.10564810103,-101.087882650424
1521.63172357632,-19.9597192490591,177.762198760789,42.1130147516716,638.879468344729,33.7997612995908,1640.06492325851,5.9170301069287,156.124466301748,29.9148430960033,566.863219873099,74.5252540431328,372.061235646695,-5.41854111492835,599.101208634161,48.0658022167961,421.25354276417,100.94696209536,590.24325607063,-26.8857227363016,539.026315861001,27.391042463118,163.954057353503,14.6168258744954,108.647964122453,63.7430697190265,641.790468077786,315.253312490577,1164.49867910925,-104.725869929373
1542.73231493941,-23.9825433701582,178.795062544234,42.5559132988874,640.500576019136,34.0154152444181,1653.3197438133,7.06473347680554,159.931030831804,29.4045912984573,574.406090377096,72.8629099594667,377.446404076801,-6.75192835080776,606.655201715684,49.5030154261221,425.077498538949,102.261261846295,597.448582281767,-27.8987471785702,550.030356170588,24.2100716044482,157.179382782497,18.3246877920723,109.938660261486,64.706072023203,643.087003840676,315.086798211226,1176.814698171,-114.884502597737
1544.5524819515,-22.6575420994859,179.169445618814,41.9956874670349,635.804134364853,40.9496393768442,1647.76222790818,6.2441886367555,157.41954602952,28.5013961052885,569.139534800485,72.014329233381,376.165122020885,-6.10725798096899,598.60966060169,48.3138742690995,415.481832625596,105.600068017613,590.659684077278,-26.377477806509,540.460019389708,27.2921290937857,168.290305297893,15.3307826163893,109.155692799871,64.0632244992293,638.170896036964,314.460421061866,1147.82085387011,-93.0939812370079
1522.09092749489,-17.2985794484592,178.114525547535,42.0964351721513,635.473906942535,37.0210604641958,1632.48458858525,12.9751631945134,157.670446385362,28.2401193155028,561.432604041921,75.8988264481,374.5180654615,-6.91220934535995,595.52089253304,49.605786495316,417.61606288072,101.576751389426,589.379283767835,-26.5337836993843,538.154666188232,26.5116063294391,158.688038636183,15.1368435870463,109.988529507703,62.7706598878984,639.365189973856,313.800640776621,1146.61184201628,-89.5739794214751
1537.7113513368,-19.6825456007261,179.062556164218,42.169578643219,644.585794612042,32.5843424056128,1650.97255717298,6.71015546216522,159.829201899369,28.4954073152714,572.763746843263,73.4398039895972,376.802896898615,-6.70439148001367,605.366803073281,47.4971669317613,426.220241125475,98.0554243904948,596.342488842218,-28.4065246159822,546.741208591075,25.0058569895688,163.453403960475,15.4989637473552,111.623952600028,62.4930912798828,639.790190316511,314.269364306574,1179.37104310576,-112.268870832874
1567.76767952577,-27.1773720361777,180.627133815075,42.1271472276713,651.162963934086,29.5674235356142,1668.18923774728,7.41529558296401,163.299085274396,27.759908824842,582.347290404503,72.6571938020679,377.423010177306,-5.48229769765604,614.072475073312,48.6056618333423,436.893861388385,94.6722227924181,601.129635123867,-29.0928383332312,553.034269338541,24.3058002258166,161.694086900257,19.9165246619484,110.942360289936,64.2912390343662,636.040774979194,314.080231347462,1166.43715019444,-103.327970149
1524.58925578133,-18.7092586820114,178.008821247832,41.9190865559094,632.835332315542,35.7980365796242,1640.77198693598,7.39431955414365,157.943663736509,27.4272785438712,562.644354158505,73.6456037449419,372.173550821055,-5.53340961001564,590.842311921386,50.541033432525,413.116749585045,103.687208898834,590.216160427034,-27.5454437552398,534.352725258252,28.6950908701686,160.935035074213,17.9135619047634,108.670282943709,62.9255841991275,638.122501940974,313.468326059833,1144.65448021434,-87.2686703084923
1532.47995954364,-19.8103287531651,178.517555671202,42.6881767517635,644.722849544908,29.8847746750415,1647.06568192133,6.34295650956589,156.922507108177,29.4075941592745,566.082105511525,75.3993464676622,372.663891711563,-6.26647636224563,595.74399450565,49.7067655067376,410.522223498381,105.167345166122,594.980967033212,-28.1022310399557,540.418707906416,27.536084991197,163.323220515412,14.1603847917909,111.202929381872,62.139673791907,637.97127656908,314.915453757121,1174.25222512847,-112.752936011264
1552.8786236051,-22.1144547242898,179.976764977948,42.4319092735612,653.884900802223,26.7260918563356,1661.9765517713,7.13078397861439,159.805756738855,29.3169272724354,577.901050207617,73.4840649327036,375.793826473888,-5.16391844877908,605.312394840938,48.6360184916006,421.977955307385,102.724941808204,603.882809132565,-30.175134876911,549.128036047663,27.2418276205127,172.243862616651,12.3004947607626,110.734194809636,62.8378285744534,641.205619258685,315.222589605569,1181.7788872531,-116.050168930469
1544.28604441839,-23.8338566298435,179.382206134154,42.2676789448599,650.926956918889,27.1335332528718,1651.88112884119,7.2413554110031,157.294160561162,29.4283005652647,563.774950207241,73.8848820188256,372.602242724986,-5.96960509024338,591.886139835269,48.6303615997644,424.379227287199,90.413985032388,590.078485464711,-27.5971108923281,536.806844006379,26.7912423237031,164.558316660663,15.1115260444751,110.03526130437,62.2785770523359,637.04426382506,313.117376181094,1164.46413297944,-107.994570392786
1522.23933915302,-19.5948511784284,177.727881129346,42.4955593424704,630.008059564035,38.0557289227239,1639.77692809569,8.51326074074207,157.212905864203,27.7261875848505,561.090335176972,73.7814427099069,370.751333626635,-6.66948880311878,586.082999195598,50.2324295013774,415.066794878921,96.4311703959393,590.402868520669,-27.3733525273938,534.505518066163,27.9907806940113,165.372314496877,14.824473425873,109.278224303312,61.9010100513653,638.617575139537,313.671120615675,1155.5740523742,-105.983018947679
1540.91895247189,-22.9443946523436,179.572993304876,42.4035369209075,637.196678736946,33.2010165511058,1657.20478855394,6.14016820452037,157.734264998981,30.3900522177859,569.032522951525,74.558417198577,372.278677987466,-4.98737220172438,593.850607999418,52.0307161847676,415.607965715111,103.131411056208,596.990402423215,-29.4807111904419,538.999877372291,28.2587580115425,165.694183903509,13.458653443579,109.000986765744,63.7076406448866,643.527651249692,315.87558668191,1165.42485125149,-107.027244428638
1560.16455621169,-24.1473429921509,180.906823146445,42.5018391085887,628.137968226246,47.7985877950848,1677.58293940897,4.64244942911785,159.896353771229,29.9980671901858,582.358537804694,70.8153638596921,377.800155053329,-5.67388708504367,609.404314067378,48.9117931711433,429.284228931989,99.1608881343493,605.528720819742,-31.1098256515307,553.482217770949,23.2999512316901,160.622831290045,18.0080684265077,111.032427031682,63.505678925483,641.597806954242,315.69852838208,1181.46294244415,-118.585114340914
1526.8737810588,-20.7621236074144,177.781975829998,42.7157161828855,643.679856270272,26.5420300035513,1645.67177770058,7.22444104503883,156.085143786435,27.7090587526436,557.683028002176,75.197452938584,371.041112709756,-5.17850832147735,582.583610307021,52.0696979628256,418.686764114281,102.0535784646,588.61943870429,-27.4575652557197,530.410122821823,28.2326869853161,165.341735393997,12.1304468044742,106.910977673687,64.6285670432768,642.944753772669,314.437257125078,1159.88554355613,-106.182344091473
1527.02872889134,-19.4945079493648,178.891817151927,42.7071454293878,635.268203789092,32.3346814941652,1651.09162686038,6.74342145804904,155.986709081456,29.6448109284071,562.004103823729,74.4456164163645,371.872912664099,-5.95148443371566,590.047908415021,49.4604539578287,418.412735401562,100.540972626871,590.777426691478,-28.1800584532927,534.477586065212,28.3776737728813,166.317938670401,16.1548970502386,109.115711379051,63.6767670352175,641.716267455124,315.695067415211,1148.03402162693,-102.02070349114
1544.76298224259,-21.162589897204,179.763050957784,42.823245310342,631.133698012253,34.5392097266547,1664.35143729745,5.73963975580719,160.605043011967,28.3984778464665,571.026717556386,72.4392039268227,374.47624551427,-5.45647982975341,596.693896104001,49.890723296295,425.25245724177,99.9234564092354,598.585962271338,-29.3653602142365,542.832956977311,26.719985387015,161.060165888424,15.3959269462332,110.160584291303,64.0544001986168,643.924021455436,316.023584928483,1161.28077449397,-105.646269500005
1534.61213629654,-20.3629606246314,179.142710618594,42.3100403460569,637.311118182961,34.2108684394907,1650.97347764837,7.65805097549977,154.927154331004,30.5164153792989,561.144430791954,72.798169443883,369.517769654492,-3.64945015144367,585.217876541092,50.0980599937167,417.905800216182,99.5028514113899,587.838660533394,-26.8210643114894,531.699223564847,26.535930895714,153.094641415302,19.3784269482043,107.2488623488,64.0138535059473,638.056238979106,313.957857692741,1140.95710826196,-97.9200103654126
1524.84837035002,-18.7201180635274,178.299707237918,42.4332683223499,625.149147160397,42.0914438616138,1642.45018559884,8.05893070662974,154.170006093372,30.3659319744484,557.192899561629,74.9461829562926,367.881141620279,-3.57140195467355,582.648833175108,49.7217644184444,407.371040515744,103.922052419285,589.650905425645,-27.7790773513626,529.536528481317,28.8383563267025,164.542057274512,14.9158726687358,107.006140553831,64.034879789782,639.138603095055,314.844033484945,1172.72186847534,-119.861695618561
1539.18691912693,-20.6227981251504,179.054517651204,42.7726108865756,629.303075390391,36.692385681457,1656.54754467248,5.751047989038,157.987830891645,29.6112332223536,564.174070733987,75.6873732480407,373.666688518824,-6.4763698512697,590.011310231572,50.5926423490282,418.555614861518,101.212687039087,596.206802890495,-28.4953597465366,536.414846279787,27.1073241615508,156.710146601515,18.9677489156649,108.836833461892,63.7559562114835,640.506340604293,314.306381753145,1153.18926345387,-102.879760121543
1560.86906868241,-26.1241315031371,180.367463299552,42.7852538015987,642.478344904158,32.8036429297858,1661.18663453748,5.55450536990874,156.363391355628,29.6132021000843,563.201206194746,76.2258021742345,372.346791019505,-5.815128273275,586.012587110034,52.5417978239683,414.250713523485,106.604099444665,591.372892134494,-26.5649887318896,536.218620650831,27.3872532504019,156.81578153522,15.9443080303965,108.088487593699,62.878236144756,637.315598961924,312.186106419832,1158.20925721647,-103.578524842879
1515.17004608641,-17.2167165992783,177.345328064318,42.7429121131801,622.189661115203,40.6100538104,1632.38168038199,10.1869127828651,153.499551038216,30.1890006136848,552.073610442813,74.1866889905191,366.933094912256,-4.68923391840005,573.066610040584,51.2035681964788,415.320508598075,98.5606965754092,584.42266361159,-26.4163615607762,524.721068086828,29.5717980031176,159.658250124035,16.9937075779653,106.706386319498,63.3428840042634,636.973524530075,314.210784479646,1144.58901840692,-107.396472612356
1524.82243340626,-18.9793083572582,178.307758358047,42.5858581421369,630.956638741653,34.9131118002715,1641.14487247742,6.89878920248621,154.366340271818,30.2600689610414,558.432414403301,74.6339388558949,369.722989351272,-6.8343161575686,579.915963066112,51.5134385356421,415.865423318025,99.5994292745863,588.16243677216,-26.4220156008928,530.278589514416,29.0974195024722,166.520091726997,14.6519837237209,106.875947074102,64.3408359315566,640.200997827196,313.759679003559,1130.79386539775,-91.0786776547554
1544.66487393921,-19.7028610476133,178.780948833893,43.3505347148909,626.844805935387,39.5567810481418,1656.884993669,8.79993990512929,157.245655845054,30.15242678098,568.399361983398,74.8937144481114,371.61054304259,-4.90233555877216,589.91980237054,50.0912011494537,418.652477351132,103.024843345388,596.850302652081,-28.5006070380779,539.159734568444,27.9142706707851,167.238351286705,13.9921567923027,108.329663702918,64.5881125701567,641.93447324511,314.835674536115,1166.71821985337,-109.364420831573
1515.28044115676,-16.6531971558006,177.201651429382,42.4343115135174,628.666477923467,32.7750679207569,1626.58869025161,10.935395124588,153.021195221527,29.9029055361556,548.319041441992,74.9262573538349,368.407317862811,-6.11661111584876,564.981395668976,53.5921578249879,404.186204976902,102.853551582008,580.079563249382,-25.4748001919267,520.678155748183,30.9516480262905,161.023125020281,14.1901479699383,105.601946647778,64.2233212622335,640.660022027827,314.294794185991,1142.07827851392,-99.6993573796461
1510.4049406744,-14.6585783243296,176.089375996239,43.3528112009162,621.08190626199,41.116847308981,1628.14748446326,8.16287758977703,153.471301192648,29.3534097128875,552.445313340577,75.1346599771909,364.523988479324,-3.79970110294097,569.459789124101,52.4261331357609,406.896712779688,101.065858899647,581.784362021946,-24.7579410662027,524.057488139196,31.1762025697765,154.66744150372,18.6730871403783,106.238427882397,63.7753057762392,640.531884045228,314.368551318424,1132.98291155438,-101.511656073305
1528.3099127254,-17.0580321333609,177.99230877786,43.4285590245643,621.173593144266,39.9160201483037,1641.25656260426,9.8570530345024,153.164801157335,31.1251851392044,558.422705863835,76.8229666750751,366.779747167861,-3.17018569370538,577.509305208481,53.5832775764996,406.461008804068,110.686786863604,590.33471299108,-26.0995515726314,534.401490925027,27.0635514101812,158.232801420427,20.7035592205456,107.033924151505,64.9775833702538,644.185098973283,313.891212229804,1159.49425607263,-102.573584474146
1535.38131745812,-21.2579981115822,177.710442312868,43.0481046680228,625.453587596691,40.6841110750688,1640.06581138941,7.85966591602689,152.869455375226,30.1833519952525,554.014967365832,75.5523324189624,368.677337885121,-4.87781784204233,571.043509867436,53.8137270860266,405.296570493793,109.359678239686,585.494362576199,-26.0012729617483,526.741579591509,29.201791101709,157.632564969775,18.1398377148937,105.445627600834,64.0027817220179,638.977023338907,313.73524570344,1132.94186852267,-96.991979086032
1510.75491736087,-16.5396879586223,176.129216282628,42.8359081647272,616.656853753631,40.9334228681009,1626.28029689923,9.01045471290171,153.193989684072,29.6571656217368,545.680594705035,77.9540135284062,364.495120894216,-4.72561249457887,562.867589573915,54.0940471352078,413.561042208366,98.8767006591196,582.070767134591,-25.7970190635591,524.198848485483,30.4139985597854,155.43680877075,14.0114584996458,106.089266073982,63.6064628839848,639.496978279611,313.764021153059,1138.25612273295,-104.392805311911
1520.82818605403,-15.9440855500713,176.730592507589,42.9737394578639,620.201064447504,35.4879767241475,1632.27860065542,12.4175747309253,153.770836684229,30.685769264086,557.286761753039,75.7499329476463,368.177776752672,-5.27808181336676,569.015759721888,55.0042208483894,409.715722266559,103.756801943774,588.673470772235,-27.0795822283469,531.221587739348,28.8126090066568,151.764877003994,18.1201310635172,105.436755821882,64.7556306277549,640.22713568227,314.192693019509,1136.99202933233,-95.6942227481987
1542.79010858596,-18.9223080147381,178.095705114536,42.804688788394,634.976511324255,34.6687507813345,1649.95749682074,8.00940651382424,155.066298616326,29.958871458054,564.053176238122,75.6984725323412,372.396043713549,-6.32568209516036,578.55821239977,52.7851149778687,415.799370759407,96.9834239849898,589.199724092474,-25.4922422218988,533.999709568622,29.4598884131654,161.154971852117,17.4047388950112,108.225201426076,63.1251418659058,635.612864550338,313.755785376952,1148.02526772913,-111.132885960061
1507.02968049161,-15.2553776543276,176.011196599114,42.6873098426829,613.077458560049,40.9051744805969,1621.36412197206,10.1196230644474,152.763909348633,29.0560747351071,548.793963057,76.9367413412855,361.52011076873,-3.1117075408664,562.578801430293,52.8801267486044,406.856222599967,99.8213401286767,581.773874040138,-25.5819692124686,525.31360090598,30.290149306084,157.162439303394,16.3882677131345,105.226275150536,63.3069759322677,636.868546527807,313.561629707945,1138.69670381573,-101.86583622171
1516.19901960008,-15.3275780434393,176.318325655733,43.05820418147,626.026993601368,37.2572953145704,1630.15382519541,10.0730630709283,153.253157478709,30.6863826504053,554.662420024972,76.4066796928659,367.141567565462,-4.64042148406432,570.308735353724,51.5222949259424,400.550911784804,103.378732692552,588.63473621952,-27.4287429912707,532.722247645915,29.4790268272078,151.834443747623,22.0255038084515,106.40860051711,62.7507431842435,639.464815598793,314.576171383388,1139.17668006505,-98.9610487883206
1534.0499354165,-17.495834552785,177.864487819374,43.0766956739078,630.467475885537,32.8976801413927,1651.96660107433,6.92976470017669,155.540535978715,30.0110127584798,568.199116257492,73.5458498012205,371.727965965917,-6.00407438341403,581.641702652408,50.9782068303689,399.24466227659,112.072917133911,596.106688913923,-29.2272734357606,545.562324370153,25.5453075143155,159.907259908807,17.0774768336893,107.879220771802,64.0913646036322,640.389047762155,314.201523197314,1146.66461528825,-100.546099832775
1507.84401916528,-12.8222407340125,175.436770569937,42.7374120214335,604.949873355903,46.5451222844665,1623.16295991973,10.6777941479904,152.08338704241,29.7074759986323,546.559215953136,76.0273504859028,364.178375422872,-5.15793937830606,557.518198200761,54.2998018808361,409.573537807,95.4745248930069,583.256883694818,-27.2750594856618,530.115337784935,27.8710404756464,157.500430710997,15.5954720757664,105.910323414507,62.7291721932918,639.478560529956,312.876138983194,1122.44217960054,-89.3030301286881
1503.21508078922,-14.0399479727203,175.680504989938,42.8318502779723,620.094101484844,36.9923590143087,1623.23575477882,9.30509920074607,152.070960008745,29.642919397383,549.580945836155,76.605553433231,362.170637997825,-3.41637223671309,562.298735663219,51.8124566701105,411.300688463593,100.031159427197,586.753349190753,-27.9792191288484,535.364994262004,27.6811786908953,154.677550569063,18.941322776311,106.423764433649,63.4389183160985,637.338842332676,314.925651587601,1129.31384189799,-93.9258015935737
1524.32173370281,-16.7955417058722,177.258899866417,42.6995598616408,619.843517955077,50.9307865657736,1641.58717431508,8.45898878326927,155.449817504317,29.8007901823243,559.471850620885,76.7671679326121,368.109270947124,-3.60911938081848,574.84054764598,51.0134786601806,408.819376145822,107.703977520144,592.613707071869,-27.2378695103213,545.264422163821,24.5596370430814,152.111279915724,20.1684356790794,108.19240111664,63.7591983970648,642.600470903678,315.114238356562,1150.04497012157,-105.608685907039
1546.5342220995,-18.9097598883124,178.66032818749,43.2402734416703,633.486754275263,41.4781419583823,1653.43579275414,4.50147549774661,156.003306957383,29.7249507745663,562.416577281455,74.7968507269774,368.908284073614,-4.32924854916171,576.80038156874,50.2972627806465,405.885739866691,104.553429219099,591.898313741153,-28.183283580197,545.080223638119,23.3251749564175,155.879448694223,20.4573609555313,108.325382608601,63.1555303599603,638.33837468408,313.549379620846,1150.62505977958,-104.269093374657
1506.64566670514,-13.2465957837709,175.987905507376,42.9517286680294,609.432869480971,49.2088355954174,1626.01766750405,8.60915613682073,150.899036440237,30.1332168990775,547.082010806285,75.9011958405185,366.045539613688,-5.30237011680797,562.547140410259,50.9238105463603,414.787517412515,100.304716493561,585.895667539936,-26.5569126583841,537.987521312821,26.1435014588423,149.139748381151,24.3337212518944,108.341737358219,62.1541694815125,641.687501262122,313.422563661028,1154.01536076476,-110.698848678649
1518.3959440779,-14.018666833568,176.605614140806,43.6267991073635,622.243067109049,41.0739963563397,1641.84590572833,6.94552323367271,154.181700865371,30.5939541057433,553.523740768985,77.9509928844712,366.238452987285,-3.31797895111765,573.527329673,49.2578977486408,415.959377616839,103.532996131643,592.643216731342,-28.5487622770923,548.452956306607,23.7843701066097,163.070128315697,16.1009517975889,107.523942198155,64.4479429336557,639.948890026918,315.942410372044,1135.06534551582,-101.29674354131
1541.80758849472,-19.7979047991593,178.759107143444,43.2105619795899,621.708032817748,45.4137876026827,1660.75493527121,3.46185486437749,157.25475432285,30.1204831684051,564.002161201029,75.9479854611319,373.721323090405,-5.9295289619544,585.75242995423,49.935533976029,424.420762082049,103.211222720644,603.942082655947,-31.5115230940829,555.487667526305,24.2600968880442,166.282409755793,12.9970876524853,111.65280208802,63.0952466444777,643.466212204411,314.546960163608,1173.85636004363,-110.589707346197
1523.52172026426,-16.1536993339823,178.378620843138,42.587552761325,628.513734000617,36.3884110266214,1641.10904891035,6.70665739057545,156.005870446579,28.2223407324802,553.477461660288,75.7494384155525,367.226327296098,-4.37443591144778,571.625774342511,49.7478058231364,412.356609148446,103.527646718332,589.353390606598,-28.8029146943899,545.36487357841,23.3598165435332,161.76069211986,17.0232307892781,108.909864053512,62.378657241992,639.218030048296,313.715135268203,1156.92012632489,-99.9601884960176
1527.4815067563,-17.6380196923176,178.784776126458,43.0910454436367,637.134594621655,37.3756831190557,1640.66680409889,7.54079876302632,155.052913133828,30.5770809794392,555.675565783278,76.9248685087292,369.596492775323,-5.08747422078024,577.028209756055,48.3798887210832,408.905768153076,105.651605189088,595.130823316633,-29.2381029487755,549.872489166637,24.537250144996,160.484515406453,21.1025190809675,109.714411877579,63.0731567769461,641.076560541325,312.815880772404,1163.54007138517,-103.146215704358
1547.92149346601,-20.5552614172067,180.540901670951,43.0584117321019,639.794536932957,41.2085460937778,1657.49284461712,7.32675873036715,159.616663308846,28.7908170911977,569.52694469607,75.0432078867646,374.998898973574,-5.75004331705015,585.831714645966,50.8062847270779,426.026759059213,99.7081696767755,604.159414702146,-30.7719172590515,563.118758144912,20.4226185980469,169.844297664861,15.9425180694507,113.227445668094,62.4238432350862,641.381984301377,314.231642971442,1189.41130649368,-116.212496799467
1555.15037708805,-25.2837436405585,180.331596665175,43.0852881794368,644.259523497096,38.4687070540372,1652.9236706519,6.99828743484386,156.705275181073,29.2248681448791,559.606867247182,74.2715665621882,374.156288761465,-6.7004692183356,578.978135415635,49.2959355890317,415.788353935607,101.117876919665,595.153358563666,-29.1762056822989,558.489142028503,20.237754727072,165.980404174648,17.5550954061548,110.956275318129,62.4975511260493,638.280139336419,313.270078319277,1162.04826289618,-97.6888550252635
1530.61570591933,-19.0195215954204,179.976083663543,42.8088527163014,628.090097454885,44.1312698573254,1640.25789028874,5.01376093027962,156.031366826356,28.8086747525694,557.153286283737,74.755655540764,370.745659314505,-5.01468307334993,574.922228784962,49.9681186812061,410.876367295456,101.102943247742,593.603620362135,-29.1421213598587,552.799547515165,21.2551442920066,162.334379918924,19.7609822008797,109.148096600819,63.2705029872093,637.072689632111,312.711274160777,1175.43006650158,-101.131821513552
1544.44489162401,-23.439077940284,181.990223659846,42.2140157773192,645.227258806343,33.8728522394804,1649.44333182843,9.65844184727649,155.598078588213,31.2891516911997,563.688766078787,76.1775995131507,375.644536924425,-6.20073887167125,587.127564843138,49.5694485508256,422.561673478456,96.3528074774908,598.809195427209,-29.7028068195544,564.760718070082,18.9641970664153,166.494006357212,14.1473443024286,113.110027111028,62.7482428335628,640.233508433629,314.009824761906,1186.96844241761,-113.18231565293
1564.35229041454,-23.9595667740736,182.910498430822,42.2770916832357,655.616351763767,33.574031039061,1672.95378636356,2.18793035560957,159.230646122235,29.9993828538154,579.993586429838,73.5538557477201,379.502339010219,-5.85779273080215,599.435212461804,49.2511962914571,423.559583119872,108.074859486081,606.33824442592,-32.111802775648,571.118668839734,19.3704631720641,166.023537825718,16.0326485293365,113.496403856877,61.9608954327747,639.512697402014,313.092723907246,1173.30803634424,-100.19966835761
1528.2294139673,-19.4565700868956,181.45152449465,41.7539143189362,644.910233346905,35.8083334898387,1639.42147905032,5.06150647522992,153.173210814608,30.8272675598635,554.550335525353,75.5135367717413,369.899265899808,-4.84601299286362,578.402811014257,49.3806508199691,433.947274525993,94.5335759199787,589.139707333396,-27.376890266755,548.036968886299,23.2363556458708,160.298477864225,14.6973670347024,109.754769989201,63.4226602587907,640.943297267105,315.558298104104,1172.05586553813,-106.476136160669
1535.31516265497,-20.7017677569493,181.618149422907,41.7107084404409,634.488689082855,39.5655708749811,1638.93186694575,10.7327765810999,156.786477859485,29.4510266438375,559.852157209704,76.4942691733453,371.145599528731,-3.8269279490098,583.010548469065,49.9869537586701,419.67622479995,101.763595791617,593.263816095081,-26.7723526457937,557.722217715339,21.1946624078405,174.242941281483,12.4568066988165,111.444288570688,63.0232988553802,642.262278788942,315.936425919581,1183.58925417198,-114.146980151386
1552.40700652546,-22.4711873200144,183.161753026526,41.686229021638,639.391169781659,43.7917419912398,1665.83271773198,0.66424212421352,158.41733168476,29.8071772501585,571.640566338553,75.6961181063069,373.864632402018,-4.60055766462499,595.772147687076,48.0067666696348,421.78798180201,104.391768965344,603.107296389096,-30.0533138464301,566.342828560318,19.9369087819651,164.642449657781,21.7103494487442,112.942307597898,63.611819548275,645.947147538951,316.799727977396,1203.32971256835,-120.8219402951
1542.11985978963,-20.6339588764853,182.909424542101,41.7904683809447,648.466327648364,38.7065208528546,1654.82289155476,4.22005017561679,155.36042200108,30.5804597991235,557.170990417241,76.4631675304168,375.062875489455,-6.387062016083,583.87194896532,47.0537934834931,422.090885232388,100.895884391878,595.575639813196,-29.5614486012177,557.141781665945,20.4842865672448,164.148197596703,18.4493436885883,111.551556623921,63.6311464546648,641.719205236524,313.791296134972,1165.97676927271,-101.187139735445
1526.50047196521,-18.3127919187445,181.620119440938,41.8855390324766,642.164455357143,37.5516969174816,1643.06602186979,7.39773381398193,155.477708018635,29.0989450130123,556.210998187072,77.2109272095903,374.472961637295,-5.47166835781818,580.982392838218,49.8140965683303,415.574715750363,107.149808875338,595.326034687237,-28.5260068421555,552.426613848425,23.1244282372298,165.868397879852,16.7070617781375,110.726820703355,63.7316723343787,642.993815483477,314.753346946138,1185.3838735301,-110.738872372284
1542.03525136072,-21.5247513446835,182.769388635275,41.9138363859391,652.35432519053,31.8682149220669,1658.31966342528,6.84879057530276,159.932552984203,28.7341765982718,566.733689965997,76.2918035007811,374.167002943597,-4.18875739058243,593.73334557838,47.9838885913152,426.001165742662,103.418883438956,600.610613944315,-28.0143084088865,560.26068172512,21.6669252818526,159.28548421839,18.6845251428844,112.514684546078,63.369348975673,640.554464037558,315.285574412527,1184.51098780191,-106.39147121867
1559.49190703495,-21.6252912360122,183.562999116561,41.7435265910743,653.459651312746,33.6379497049686,1660.22150160664,6.88032517434461,158.71649815174,29.1693103134396,565.585470576575,76.0171372115447,378.335470471312,-5.30545768186077,593.089812094955,48.5544846730816,426.207550371472,98.9326146427404,597.694653309638,-28.5613486620473,560.247249609113,19.9414870427744,167.502486826805,16.0335215336801,110.719230848645,63.238853328507,637.3506789389,313.173331433704,1184.58979573651,-112.10290420152
1528.11441757383,-16.1597295829707,181.774375362094,42.0407250478322,644.522517340822,38.0558153691097,1645.84589532682,7.54132151744452,156.568942798709,29.1331911331415,561.42706965693,75.2127671842757,374.414146702327,-5.5651109773381,587.592012140429,47.5873547307914,416.9991265335,100.681994878283,594.249353562695,-27.7626283651481,556.715916519441,22.7501969358968,163.723995162515,13.9745477676833,110.912542564651,62.0293266434795,636.140316908889,312.241959028507,1197.73993750662,-121.742423326328
1541.0537128189,-17.5734538934184,183.107902737136,41.4632729666956,648.979161912061,39.017672015837,1656.22783960722,6.20619112542129,159.62117897504,28.7259014626988,568.274913950524,76.2112069563991,378.666777310807,-6.86877839515813,597.142191996722,47.8497726731053,428.467256328376,95.2186193939293,599.95598580348,-28.6044661924291,566.530094609856,20.3742648445313,166.692456188125,16.3912354279716,112.476635711669,62.0868664308476,639.367792731672,312.293827497286,1194.83481402318,-106.910129468219
1562.6914203807,-22.400622986434,184.175113422101,42.0789451794877,670.519625065507,28.0072391660987,1675.55272520307,6.04159211523264,163.089223768829,29.0412507193114,575.739686334169,77.2149914381124,381.639140378963,-6.40972881870292,602.90047689162,48.3000143934688,436.857493737666,97.0675773974709,604.237161255745,-30.3648226790515,570.551544337789,19.646479231156,168.616584182598,16.1899653285103,112.820025880283,61.7141256618206,631.681296899976,310.33262009239,1190.89804621423,-110.733657131992
1521.67470107378,-18.4692582289621,181.503628404081,41.895066422184,657.521642157587,34.3233114405974,1642.78990775393,8.24460773085655,157.705242255866,29.2376472830708,556.622381715733,76.9472967044244,375.550416545784,-5.80916801768495,582.440857532322,50.7551583616692,419.51649210102,94.8207622309837,594.634496069755,-29.154714960238,555.496553656174,22.2038323029892,159.634135227748,21.349010430475,110.95860441688,62.1223299457037,633.647547823492,308.684522724012,1180.72284158587,-110.676713073746
1522.57996856259,-15.4038972652771,182.311314602159,41.7088737925513,661.855411952812,28.9592977919942,1651.05654678052,6.47787653854353,157.65181472204,30.0336618751556,561.570769822079,78.086381788884,374.165104876825,-4.46217676621267,588.395366619418,51.2730334275204,413.168871711232,105.51348663001,597.205758231791,-27.5236855590747,562.002900572782,21.4499882278475,161.417212179151,17.6391900335763,111.371167123552,62.7304036754802,635.418072768871,311.584505028084,1179.80360947044,-111.580526122154
1548.88056209563,-19.7506363861432,183.221859598903,41.5954541697033,657.297131757629,35.3985580408881,1665.76066537658,5.30706720957414,162.074196790025,28.5426900111379,571.71409175817,77.8859145562165,380.979551641398,-7.05175184898877,599.932409759187,49.8233641275654,427.198469894746,102.439141811984,608.70025782062,-31.1264865698619,569.153592971108,20.4402997631645,172.213428181277,12.0871467472364,111.736405775594,63.6869671518095,641.001666841929,313.291710373093,1177.23219062459,-97.8301849260938
1520.32517156189,-15.8125976967066,181.816903963904,41.5031358298812,662.310416954828,27.9480356818469,1637.97575369875,9.5874334100055,157.027817969998,28.2654921137144,553.437885631588,78.1954711216295,373.652819854798,-4.95834147875302,583.096153487278,49.4519689086815,418.287626329156,98.7949290397752,594.07643860522,-28.3064976909879,553.698311128313,22.8202942871417,160.264781396358,20.8567103454503,110.066900472248,62.5021790972911,637.324681202129,311.993542975989,1179.59790233713,-105.031330029289
1505.99847958314,-10.3873989599336,181.666692533878,41.6455121646404,649.944273117315,32.0684857846311,1635.10435151913,9.58830787445167,156.602398627903,29.4525002717608,554.738110716909,76.3776106987122,372.272333878331,-4.681887561831,583.659696607637,50.1089712666676,424.294773114538,96.9738262566317,595.224481404654,-28.6518128005095,556.36956542607,23.1977329524667,168.103294169389,14.6566191247365,109.137132530229,63.3976275226917,638.992925920237,313.968639349483,1173.54808555069,-101.80852750946
1523.80092473239,-14.6375737205122,182.632260132143,41.8745127918627,654.625280033975,33.268510556205,1657.14416411899,5.77889166393974,160.292279028615,28.8429828270257,563.063679945287,79.0042382725655,376.882283038816,-5.74804851184677,597.20273142168,50.3470898368285,420.272450215774,109.428620888332,602.236589336699,-30.1620689179345,563.692736262855,22.4558886220379,160.459201517543,21.3134901313431,111.798547893997,63.1761506058774,643.228785304904,315.312313468681,1175.13474831798,-104.70635809828
1535.74295875069,-14.9109245363203,183.221423842273,41.9140199187032,659.605473238096,35.0646652293244,1653.4051066935,8.18508513820862,156.079212159867,30.9049698303391,557.6057367367,78.874009777412,377.878582750564,-5.831099757037,590.645694430805,50.7115128850562,424.100058600749,100.908084560637,595.100114980519,-28.4141870610892,557.450606961552,22.7943696939864,166.668757217687,15.8017521078132,111.53436513257,61.9135598405045,639.998952043309,314.047806439384,1182.91115547897,-111.877066109058
1501.05265215131,-9.71072639208159,180.988979000689,42.0551770067915,651.050717564136,31.7013706896638,1634.53617838822,11.5625678670911,156.278642273,29.5345657045835,548.84017152864,79.1233386196774,372.649512420166,-5.64567245762011,585.610254751632,50.153291314308,417.071810590038,102.960991619219,592.329564424342,-27.2333076840976,554.794841111321,22.6030972630352,167.410083239418,17.4933268597494,111.583166766433,62.8319790907042,640.560663532175,314.954269649853,1186.30285293642,-119.238005648303
1511.32737008705,-9.83500637207618,182.361250386934,41.711269688165,645.796326064838,39.0326182834716,1647.03055306389,10.4481377624848,157.622723432812,30.1408216965274,559.270083899841,77.9318141045831,377.019677348909,-6.42953704194777,593.262693039585,49.5325485920822,429.7028054802,95.9872291704909,599.45366159589,-30.4451447834231,561.937113096341,20.6716615026785,160.659153649158,20.9563890690198,111.978972111514,63.1532561397716,641.354272441993,314.425806727547,1177.08232769441,-110.974895948093
1529.25160654259,-11.8528081943297,182.74263327878,42.3038047637522,652.527759649608,37.4432071200093,1664.44842501721,5.63678648773122,161.944495918025,27.9507404662322,563.029360713637,78.8267765104109,378.213247486495,-5.95195630242776,598.707880948546,49.6768311768893,417.76278640941,108.639611716351,598.040205266304,-28.5072316366759,560.538960415028,22.9564772717495,167.070764677738,16.1662065288411,110.705405089882,63.1349141925489,638.336974938067,314.27644238351,1187.07576131165,-113.17766369688
1494.77057237714,-5.80458373788647,180.708767774645,42.3781149140818,647.468497844261,32.1945081589551,1640.7038600921,8.60502220770948,154.969016327248,30.4490889193757,550.034841712567,80.29853245779,371.943324819244,-4.30938110179669,585.203357171269,50.8767458450671,420.608955423555,97.47011048644,591.531953574454,-26.9959495865823,555.516391266429,21.6267923403467,172.259038344238,12.8129122737245,110.986674842276,62.3728159152545,637.626267596891,314.517401198616,1177.24762610852,-115.483822971209
1501.57879017914,-5.45854456891672,180.856580667092,42.3323740176059,650.170631757664,31.726524296559,1651.11295391505,6.07384467310327,159.07823945497,28.6894925208584,557.030341444555,77.7194483827008,374.286112437308,-4.93875689604862,593.681629623271,49.7590755461226,417.707050564246,98.5701392947884,597.918559302155,-29.0129729820038,557.66341505984,23.1021678975241,156.544483180914,22.8490841494502,110.472239696393,63.0806861519456,640.556554067145,313.200552605311,1170.60392710348,-104.213792502996
1524.30604113135,-8.5826635860646,182.743710389521,41.8749229082861,660.106920900516,35.6083913318449,1664.93670218873,8.50481349971507,159.212146456262,29.7786859558794,567.834585122736,77.8832120548476,378.204038648939,-6.34843997891817,604.456769765537,47.6923790519255,425.725210048117,99.7386801475295,598.713516114234,-28.352908978706,564.913469799063,21.0167836913371,166.343854151165,15.261886513405,111.333805222823,63.5321085498416,637.110365337349,313.366328781455,1185.08527030153,-122.880321510882
1481.79709533764,-2.19741605293538,180.073727616631,42.2178355246481,651.08091074952,29.6484077595861,1633.69215851377,11.0235413545584,154.128152020355,30.951857519269,544.21252171968,78.5996440986918,369.142232552978,-4.0152580855377,578.172961992235,52.1569462021988,412.136779502633,103.18175091695,586.258234319754,-26.2735038765698,545.557284509356,24.7286192080674,157.512026358382,21.7033362513599,109.678957901895,62.3519688590943,637.358665906108,313.332558926784,1158.33949257755,-99.7307998880678
1488.36515954507,-3.84438717919834,180.287342066871,42.2492370742435,642.500204657958,33.6185215567673,1634.813284104,12.9446026932751,155.548420848205,30.0064966343623,550.615733969465,78.364496119226,373.389121607502,-6.13644136105882,586.365663665783,51.5722460831835,416.056028875183,94.6632288507584,590.17656054693,-26.0968311898337,549.571256702186,22.8457677019576,154.404204597754,20.8166452577793,109.81571194834,62.6236709895863,638.314006659282,313.211311867013,1155.84100402407,-101.692698261028
1504.03846085278,-3.30052825699351,180.694057673454,42.7739008273481,658.960058144008,30.4024331303282,1658.38226548403,6.20624735626451,158.391109057889,30.2533422988366,559.192363312945,79.2058275564342,375.23932910742,-4.81437427054916,596.415787693462,50.912350150274,431.118885093034,93.2923863142624,597.768501094243,-28.4353480550352,556.993777205753,23.3268311807011,159.753060295479,21.311554148912,110.962133044992,63.4325823572327,639.876579377703,314.199020551549,1157.51062354922,-92.6822979341019
1482.32439638784,-0.340932494304145,178.894224929588,42.6181755428833,645.721006228834,34.9309341287438,1634.68555823202,8.93876509134575,155.356440850653,29.2356235699885,542.416309260643,79.4501599782496,372.160563865205,-5.91705533597677,579.541296593339,50.4143004690968,416.105731946212,102.842753335834,583.410628971171,-25.4066374200661,540.665628363054,25.1974417044643,156.781319427337,19.1503355556693,108.78692179015,62.1290662778955,636.062675717507,312.068094510272,1155.81540353604,-104.743227639475
1470.91540242064,2.27222288825895,178.434695463526,42.5025442369365,647.25792055613,29.6583445112442,1631.2796288711,9.62438370205945,155.813519827467,29.6852207344645,537.474793264637,81.7863616603432,368.066565862278,-3.9545309127701,579.472347707361,51.3003112250881,414.272397894164,102.513200612153,584.170170869431,-26.6563002632168,536.516465357624,26.1076399768749,158.273977654529,18.9934839005421,109.282311985818,61.7753148056058,635.50757430522,312.607737223371,1160.48892377011,-105.700983754354
1488.64340150914,0.581384498679464,178.369119637438,43.1762515489761,645.96838173531,34.7990829766721,1643.61104495918,10.3480673866414,155.877115170775,30.4076841883946,551.928104784391,78.5891325656778,371.198706015384,-4.43625049892759,587.579344885595,51.9462912925868,420.123870996559,100.611300735079,590.615265250141,-27.2761959989044,544.064412361264,27.1740834784189,160.450995418361,18.5672017746185,109.252131799185,63.4164536791944,637.663742026704,313.672153275871,1164.49006166803,-110.628753144885
1512.83802523758,-5.69553971380501,180.233998708571,42.3577529735363,651.684228903422,30.113520768758,1649.48401403542,10.4787408110153,154.709070912863,30.8608114026823,549.652341552134,79.7198805189368,372.989052357387,-4.36490831128974,588.300668052818,50.8272724288017,427.082607516296,91.9462254833056,584.950598770068,-26.2830628036889,541.472018138778,25.4460788912576,159.829001428948,17.7726463804635,108.676841511957,62.0814918664483,634.478473769533,312.022065548277,1154.58140127619,-111.192380801487
1472.73327586746,4.1149889183109,176.967839828359,43.0294001869452,634.563200305616,37.3522582315704,1628.71867201209,12.8176918178796,154.108589968508,30.9073158213652,540.371658275325,79.9579441638429,367.906700454281,-4.03425256509509,574.839089056411,52.8581364257671,417.710258010036,99.5677400941767,580.333948043617,-25.295378764097,534.853792444843,24.6449124905507,158.648279002129,16.8646308341139,107.663349353452,63.0646528656279,636.224040052029,311.528454596552,1133.68993843205,-97.0386221921471
