338.245160546054,-19.3278348340372,200.059807540075,8.42616978498279,936.675466309761,-32.030494368695,757.95529745304,25.7084146729473,369.044708039561,7.4849673914195,1233.68186403557,-21.9942740364048,1100.54967513369,-48.0626007433083,683.25897591766,-26.3829681327673,918.481062651304,145.627989583188,169.225159837304,-11.2657877779943,1098.77214277784,52.386552048697,984.461223311502,42.2083552034923,350.394835626824,50.3060861439532,3307.75757706783,-497.223512177176,394.586713949836,-9.63792170693764
332.611819901471,-18.6146262096557,195.709553740053,8.57487867985284,919.408078160899,-30.9215320115362,748.874122876134,26.194750961008,366.355729539021,6.24847754370378,1215.26497458631,-17.6168950924142,1084.07980066181,-47.341929150442,669.713961020234,-24.5137510562209,913.85479251633,143.567239925499,168.907806359902,-11.037983909182,1102.82933471217,51.6114016190369,982.877920208022,42.8950255082659,350.689338689687,51.0321888879594,3314.22224722158,-497.511118928311,396.477920754733,-9.09406733146871
334.976869630657,-19.064620514901,198.910752376662,7.43798746532886,942.802807793428,-42.220101080114,753.593474718412,26.1972764314328,373.6170470353,6.3872802490379,1238.256513012,-23.833476950749,1116.74340965345,-62.3035003378146,690.136650979015,-28.3501426966583,930.349652943233,143.214520521967,172.053889444375,-11.5613746859832,1147.4629082282,42.5051565731814,978.010760581718,57.6261141323635,364.469153669007,51.2032978433907,3358.26137523275,-508.722092016048,401.732109492417,-9.50528816096122
335.749296051852,-19.2641845550335,199.738097086315,7.67905525849603,933.064594016577,-35.3386881904007,751.260750197732,25.9355575611354,367.12069189507,8.40567314780449,1219.3502219625,-17.8274163143513,1094.8455829862,-53.4848674188656,668.239650044697,-26.3776877770124,914.143634584072,143.47913346335,169.201503850282,-11.0941361876347,1098.66837027033,52.5893776149166,986.572057255823,54.9621056538739,353.957129162576,51.6027612094479,3344.47905417545,-506.590121806012,398.355895285877,-9.08146717451511
334.509746062273,-18.9551336651225,200.758119494642,8.13574549988779,939.920574354614,-38.3570197818161,750.164087577196,26.9502604477065,373.288642847538,6.23551562100664,1236.98965267932,-22.2840760437504,1100.82497869156,-50.170286264564,685.395284674755,-27.6678668213079,929.151005288776,143.834560499583,170.887990587205,-11.2653619001544,1126.83872982134,49.6182707045595,994.698847907283,49.8645901730025,360.972040072374,52.1746415984016,3367.05219078033,-514.924180103374,403.581920613179,-10.202803067341
337.869338984638,-19.6948270920499,203.804772917142,7.19980204289202,950.855117605427,-39.4569725508417,759.456810613058,25.0072209738467,378.644407731688,7.33300958902669,1260.85407778631,-22.9856338535971,1136.40166388354,-60.6609031152183,711.322823151098,-31.0085220627879,946.213621310124,143.692497015445,174.715740548224,-12.0538624713004,1165.00232888333,47.7188190337888,1019.74357575881,41.6575765340286,374.276608134278,50.5842443226504,3410.92428586168,-520.772066987554,411.868855017178,-12.4111154116765
334.417853843658,-19.5581949766923,201.120123093956,7.97764154016734,941.328927929244,-33.8596657286329,752.128820812071,26.0359719500093,373.931014829709,7.16401107579912,1236.5147341089,-19.8565960950925,1115.53144767701,-55.7986800316683,684.2873989035,-27.6575812485798,925.795358625565,146.669647782858,171.234721164988,-11.2140963098238,1132.47881108253,48.3479962515449,1008.07307822301,50.8137479498197,365.27555801535,51.3480811763629,3394.04531051834,-515.850449549782,406.943384287032,-11.741211903106
336.718154810918,-19.4577027407248,205.593866991312,6.73090959169443,947.627487095034,-40.050317837244,757.063225026061,25.9675877612985,380.79497454218,5.17046166979731,1261.88896533062,-22.8931792292374,1147.99484968002,-60.229286279517,704.326473437135,-30.6537581174465,944.909882036556,142.329902667066,173.274910435534,-11.4631126873562,1161.03925400702,47.5261421246452,1021.54782183446,43.6212615947187,379.142255189186,50.3597735559454,3419.15680003808,-518.909361679523,410.879852846362,-10.6536727656387
341.088203232766,-20.3453175695794,206.77454365361,7.73617767876365,964.748443665294,-39.7487034811954,765.094422218929,23.769773391782,387.875255776386,6.35583111665137,1281.44441470675,-23.8900539451883,1160.32671582438,-56.245322689458,728.170972102524,-33.4261734656378,968.591482361503,144.25203367464,176.902500842275,-12.3076309608999,1193.98057060749,43.6938911069317,1035.74676556375,43.2122181279353,386.944744959512,49.5998260107453,3476.06401845625,-534.522152741897,417.367506914065,-12.6713736712648
337.42418384975,-19.6004021889963,210.94299699869,5.83482265354179,949.392454824282,-38.6084260770372,761.062437364639,26.6976841138831,382.089231420285,4.44317713023279,1285.70653209137,-25.0871455275802,1153.484653742,-60.116733725476,708.280786157765,-31.5063058406109,932.445518279396,139.100409041423,174.774116878888,-11.5098125920501,1184.74433317789,45.5649391023505,1024.84534495594,50.1934932575214,399.952141963154,51.17858821559,3511.24796945864,-523.023199652351,416.28311710687,-10.6750979084731
340.602401236202,-19.7824911424449,213.354283611109,6.60203152527241,963.908439327562,-39.8803886145457,764.402267134007,25.5327341243136,389.247859680956,4.88500614563244,1296.80024246147,-22.3321568357061,1180.57929995208,-64.5304906042289,721.812344409876,-31.1129907190254,959.704950130481,141.149961064287,176.554336173723,-12.2305328088286,1194.3433814771,43.0449150414224,1034.34751702239,54.7062926760264,398.151395294098,50.9824274910324,3511.96899947642,-531.26240562235,421.164970431799,-13.3529963638246
346.049837669329,-21.0614472662371,214.622693778984,8.30870360456284,967.756255889741,-39.5041533217325,771.231059780732,24.8016959585542,392.367959418898,6.55624643826875,1317.80884994453,-29.4895713568834,1181.27649166144,-58.6737346162384,737.557709832884,-34.4238076406237,964.319566857195,143.526037042288,175.926592925683,-11.9539573695181,1181.4251542589,48.0750479767157,1037.29023810965,52.7174502589593,397.143618286954,50.09289969665,3525.13469451466,-539.625265496878,419.874862847821,-12.9127901776688
340.033855353578,-20.0745470230953,210.406381342748,7.64108391569848,954.208476709915,-32.1056956419188,763.504337206356,24.7197937040567,390.63666392247,4.58277735322486,1295.99568983576,-28.6419027250098,1173.45935102412,-62.4404126063296,723.905949742458,-33.064975505705,959.48945458703,140.922722177435,175.670856635474,-11.8476921228318,1182.08556976731,46.1476410675957,1056.07106423876,37.746737044644,391.579785511767,50.8666901439332,3519.74734992869,-536.860765100132,422.466258253711,-13.8335256846808
342.217881615933,-20.3890866695641,212.205242939986,7.03739956457042,975.439334199277,-44.0158772638771,767.660864176488,24.2249325635769,394.101259349452,4.72613043072065,1303.25074293054,-26.8671108519921,1188.65473921759,-67.9510827198593,732.6030084171,-31.972987584203,971.740249936504,142.50264809396,178.009746870362,-12.2277184577132,1206.94512969259,44.1615339147491,1052.60658798743,50.247544120575,397.923489872588,50.77120393797,3551.60169029326,-546.52115504624,427.019986793467,-15.0521975730951
338.746024217507,-20.0130904009085,211.641304571129,7.12359244174622,963.804124832195,-35.1095373609553,761.504499812846,24.6729008153925,386.395835188911,6.78421200256938,1278.07347992488,-24.9559833438606,1154.90514944305,-55.0600900422656,712.781422786343,-30.2900758274779,958.283129707734,142.704622655318,174.586220045763,-11.7508769006964,1173.18928741728,46.0456315868544,1033.90064463388,46.6688580998125,386.600829973295,52.1786543950083,3519.10135854975,-540.918282656775,421.295766803636,-11.8396870311386
340.405689805714,-20.0923822097967,212.354087621912,6.78555726523489,974.100773645337,-37.2877569378537,763.493584141558,24.5228570414131,393.177900247009,4.06462791821077,1289.0827122659,-24.08569088427,1167.29910836148,-55.5469540022708,725.265468708434,-32.6252983449462,962.010654234291,145.519326578585,176.376320652879,-12.0417605265834,1190.70239271541,43.861413281656,1057.85320692346,37.4430115220429,392.921490961762,49.9064802567742,3531.28385612307,-544.237019245864,422.626294875061,-13.4871863452282
344.196193222465,-20.598183124326,212.516281081339,7.89158869169302,974.936298410517,-36.9604500910548,765.213215703852,24.4386835312162,389.181064677565,6.32871994159072,1290.19497248427,-27.1739071885547,1170.0098596032,-65.696448045258,721.478970203664,-32.6444599332583,957.468346373968,141.971915737725,174.10113135263,-11.576928456171,1162.79711444241,48.0334632689583,1045.09007174512,48.0816665879032,385.407386500029,52.7359366785426,3516.56200064502,-535.833821548983,416.340731925067,-10.7419268124341
339.784294013499,-19.4747022806008,211.920475057641,6.83316815665124,967.873385409798,-40.3162215038076,762.236461263397,25.777408207299,388.494654836245,6.36223319205553,1291.2258661164,-25.9221778274999,1158.90148156941,-54.5679653982273,724.510794614931,-32.0105751974964,964.41057553642,141.794412497306,175.690793671946,-11.9076882088805,1186.27580914071,44.1421419270579,1041.96242118333,43.2822272020977,393.547231704951,49.9851974592779,3522.35672386814,-538.622808434069,417.976370704626,-12.3584939542232
342.858613473601,-20.2751539437539,214.128057168846,6.45258170183634,963.858581918272,-37.153185536743,768.486313504904,25.2197380700145,391.250526185684,8.24646553471177,1307.19807472603,-26.9207240747561,1189.2515005668,-66.3475120544112,739.386945935063,-34.5487091033075,975.519802664497,141.809133860379,177.717983338572,-12.2391819212715,1205.36683895813,44.204003388941,1050.65375552682,46.2311992129186,398.684263863559,50.1034639331826,3528.60143831455,-537.026575179879,420.443346223986,-13.1347086135086
338.119525643599,-19.4549511470216,210.724289187966,5.93247431953716,961.62566667577,-34.3852676693971,761.877945225338,25.1235294488959,388.158464771233,6.44547960518805,1284.17531302347,-22.7906714708302,1158.80123459878,-54.0977943017008,721.669908545028,-32.5733706137847,964.401631898915,140.722445231651,175.193748466848,-11.8845647872995,1178.71673472683,45.0722283691106,1052.04124900532,33.9837002526947,387.498714086932,52.8968396262067,3515.50085900248,-537.956793307368,418.403797511919,-11.5374145875572
340.645150306742,-19.8148382256115,211.911840040486,6.28354258813303,960.769731518977,-41.0070481091458,765.209279407982,24.6678265697449,392.74843733454,4.99834716176386,1289.61863036307,-22.6967950399752,1172.30601788635,-61.4373820027672,728.786083330339,-32.4065337678399,966.841085386791,143.411865339287,176.236034230462,-11.9104297345497,1189.91588560838,47.7414380317188,1052.78608777489,40.6036442795844,391.043078370406,52.4000581253007,3524.54364441555,-542.573645660552,424.110912775972,-13.6178030763575
336.346720908804,-19.0631708857998,209.929221814536,6.26285164811415,953.911572436227,-35.6843302114591,758.201308380496,25.6536289408867,383.17309519776,6.26540204207407,1264.36782622308,-18.7745113399384,1139.74401028461,-53.7072227745656,705.044599345485,-30.23882170532,949.210463409046,143.872657644275,173.065184084291,-11.3379103076429,1152.00717430536,48.4473936952575,1029.70271309385,46.3254978467281,381.052952530583,50.9636421195884,3484.44780876664,-527.186199715534,416.318089256656,-12.4196879217741
338.334263674251,-19.377990759216,208.318389724403,7.34755226229946,951.84129259949,-30.0419367039394,760.137461752585,25.3420206980105,387.623642972719,6.33589663848839,1281.35548292976,-24.3924155959941,1145.47593894452,-53.8363059137196,717.941576664513,-31.0018132942241,957.232454535277,145.872888589546,174.576450790701,-11.5397129751443,1170.35204507908,47.4031287502064,1035.34699340726,43.1068689380716,385.872867022762,49.5660609669995,3492.31361920471,-534.11107342385,417.543390118126,-11.6128788214197
342.465239127125,-19.8727869769381,210.81866857807,6.2647828206426,958.212783189716,-31.9485161154395,761.547277967855,26.0617104960759,382.557483717614,7.44470496739504,1267.75997542262,-18.3633024518758,1142.3518359022,-55.3396770648093,704.114829043805,-29.0870428556373,949.837017253079,144.555702464523,172.047504770384,-11.2229355403095,1131.50516092517,51.7994420139655,1023.89846796807,48.1654745882724,373.9706738397,50.9150217979698,3475.73784350153,-530.862785099975,407.516891763765,-9.30587895828607
336.763343470143,-19.4388557166024,207.163867088227,7.61528328757809,955.653903989817,-32.0431163742285,755.586745166155,26.3179131847817,382.270205531778,6.28047214353548,1262.939231955,-19.4401000111161,1123.66194614889,-49.8808611962937,703.857047366978,-28.9822132481027,951.073374589647,147.273363497657,172.603013431557,-11.4391010973723,1139.25512083489,53.4579416070637,1028.43232239326,42.3038830424154,373.797685291244,51.0081839353392,3470.1787107535,-530.917609403045,409.678565345526,-8.86270857481172
339.531476214794,-19.5897705128503,205.998044647921,7.42841068038369,969.025476685347,-41.3161489305025,760.964999930686,25.8164512274697,386.147035765871,8.23566277803573,1284.18703511888,-21.5635312375384,1149.15091806134,-57.262697930824,723.678618532746,-33.1877980351453,966.052436844803,145.391914970737,175.138280737522,-11.7206526625072,1172.24446828226,51.4622032244522,1042.48494503285,38.647405273121,383.884703488031,51.233486264074,3496.99857785554,-533.091549474003,413.432680763551,-9.77068627707654
334.087158690811,-18.6881079238997,204.117574232835,6.71421785326268,942.79464228447,-25.9922949398527,751.265675104522,26.5039342220389,376.471167399902,7.59996635921772,1251.14791138978,-19.6590727501897,1123.06890706343,-57.9607675041335,686.98514995205,-28.1911365313311,944.673978284623,147.381577083124,170.76527348827,-11.01813729708,1118.94616516751,52.088520999538,1016.15538457674,48.0725436820983,365.141996006991,51.6945595397717,3454.48882580965,-525.82273646772,405.839206062122,-10.2421435208232
334.975653388653,-18.4751678293424,203.813785517839,7.36547140441378,947.723158709919,-32.3973107549461,752.133764597886,26.9788543660657,379.125963920358,7.22378969007624,1260.29510253757,-21.6600996932934,1118.20494730204,-49.6479166961877,694.015303586171,-26.1442702319265,952.783601810647,147.815347795312,172.047466062149,-11.1459476332109,1135.12206979403,51.4291438455279,1016.65706371133,49.40200764743,369.227005677877,52.0750610257144,3463.5046988725,-529.810253659957,408.199372215876,-10.05979019405
340.320204105368,-19.5061187418209,205.754601822964,7.62555659069203,945.698183811662,-28.8241329312382,760.445868198412,26.0590477625278,388.923023242791,4.84053044255518,1279.83402139272,-20.6413409166143,1140.46093454718,-53.9081180458201,718.365925220343,-30.9606723501451,963.874187345124,146.857805164552,172.987682982649,-11.2724338550649,1145.05457132059,52.5316069127914,1021.74184700606,50.5189901461384,368.832819522284,53.5972616048484,3455.44790680829,-526.930417249936,406.914950075431,-10.3510847273281
333.441012053144,-18.2450758319939,201.847419494275,7.21421117753966,948.285682326966,-36.8583198313081,749.977973692767,27.0893954380751,375.465023051558,8.76394520881701,1248.78014863098,-18.6321962067408,1112.4630089833,-45.0563925272378,688.391746379602,-26.344555487938,951.476470688331,146.512865928923,170.92230344395,-11.0399434842074,1116.96208861416,56.3415966770203,1011.68513835619,47.637976034636,363.373292232578,52.044940580129,3440.573974051,-519.978470426113,402.645731242955,-9.10357136951558
336.578156767201,-18.7978912772808,202.916086840269,7.52915657283082,945.420159870222,-30.9572052062033,754.963976158185,26.1561706159134,381.648782508712,7.67151437159754,1260.94400091521,-17.9495638172787,1122.53204244937,-52.3001363593483,704.124731542539,-29.9240471616736,961.24762330571,147.912892486925,173.30073664099,-11.346534921203,1142.1159505528,52.4097145166366,1028.45560273406,47.8296101742007,372.677126775217,51.4771638478293,3469.62856720502,-527.015075790369,408.106207479198,-9.51245320830935
341.8398404658,-20.0006070455019,206.039025125943,7.06941946097206,966.852572178029,-43.8508350740835,757.598929108213,25.837314153187,377.181358667504,7.85303150699541,1254.39281002155,-20.3938339109124,1128.59587721989,-59.8284935672205,685.307597475506,-25.7502788076709,947.473639050452,149.84716572197,170.877020329786,-10.9785742861162,1100.3492192052,57.3141509941519,1011.2522097197,53.4832408786459,360.045227035046,51.8196387045615,3459.47441563833,-527.883057167458,402.386984703059,-9.15609889640489
335.534628806191,-18.6113289285075,201.809653096397,9.55267576406513,960.869252226885,-43.3342533449843,752.596671169756,27.0601079347125,378.29720060575,7.09006435349369,1253.20661598087,-20.4759401358456,1112.43953072899,-48.7253793689566,686.061463195875,-26.638515494129,953.086346618733,150.145970009389,171.521932958725,-11.0955398393805,1117.32551344726,53.7961284422015,1026.10389455973,44.2295527321466,365.04482742642,50.8059020532249,3466.4604407774,-527.841079219438,404.111341342983,-9.87987158339095
338.510495703273,-19.3705145727388,206.544926614606,6.82104185237129,951.405184389946,-31.7337195521149,759.108006685017,26.1468861125952,384.875609199683,7.12659739639303,1272.01643695935,-20.9501408244051,1132.9493073579,-49.9842128449622,707.219380904676,-28.2322199463921,971.820304659294,148.592944671757,174.597288426241,-11.5084436750218,1151.87285200307,55.2866820956033,1034.03568153732,43.7880716651766,371.518847554173,53.740088614506,3511.66659339208,-540.956535252033,411.806583827596,-10.3723405558339
335.173465614354,-18.66909309921,203.083697411976,8.30192535439404,967.192315643483,-39.1081807567749,754.213369838535,26.6742580879753,377.511725756906,7.2461848324919,1245.61538169625,-18.4045200876655,1107.24842774624,-50.5279407263718,680.087552453221,-27.1100518017807,955.576776329453,147.445810879701,171.144717488063,-10.9202518429261,1103.93372952177,55.9758726573868,1027.94353913052,42.1309415277076,361.563509012932,52.9959704303301,3483.90025869448,-529.969222365903,408.377665606414,-10.3534629056188
336.60421547041,-19.0428149989759,203.123325221805,7.91024355094915,949.460580904523,-32.9958219940375,756.382368945422,25.8232295028571,381.590150118752,6.99482689199492,1254.69011014887,-19.0854215078963,1118.30883798428,-51.9267319162641,690.939091135275,-26.3786690411995,966.936928588673,146.630086498184,172.864559185479,-11.4412588448677,1124.46770374958,54.9056890587434,1040.47199547676,45.0895955337294,370.372826821784,51.1391751209681,3502.27846861154,-537.190547933186,410.055061164324,-10.5896695562856
340.044681752214,-19.4607197949256,206.594787110162,7.43590742733622,967.737063100677,-39.2057516466646,763.136080429724,26.2395453488071,386.720653090803,7.46934335670423,1284.49120380738,-27.2118751947313,1148.24150150226,-51.5151448062932,714.752424226691,-30.8811162599749,983.904659235345,145.559595559425,175.90981544301,-11.8797890153524,1160.17497121986,51.7876343912695,1062.8615536032,32.7507192026197,380.24324235584,51.0090390620695,3539.4148856249,-548.092439292298,416.337365405793,-11.7504018421334
334.579082001732,-19.1938504438316,203.249455272543,9.13593562056781,953.748610646404,-35.7208687032015,755.756636281232,25.8860902405898,377.108063500771,8.20116922540758,1250.76593010961,-20.4570608974463,1125.05947686136,-52.452729549967,686.335743952642,-26.7742585792469,963.040684194884,149.374668849344,172.399181652475,-11.3992498050337,1115.98157154076,54.9131767916183,1041.75523397667,47.0136339905773,367.489493468919,53.086259033732,3508.94596725584,-536.933530007858,414.794152075529,-13.1376659305628
335.958604082993,-19.0171243965151,206.469349775518,6.95105397000823,959.388727268608,-39.5369542050437,757.879774059621,26.2254194340177,383.246503975646,6.72864320405957,1260.65132986057,-22.1177407191934,1126.25406589328,-53.3621430687314,697.916089399774,-27.1865617400666,972.375824507748,148.975267583164,173.945571339989,-11.6220278790536,1135.72741165076,54.9864008658658,1044.92531572411,48.3235914851992,374.494362494558,52.2103239930726,3524.20000626867,-541.462920708053,413.129673567578,-10.7229453599715
339.289929452668,-19.7268773360129,208.663763759841,7.08575818206257,962.261906896235,-33.2541192118757,757.712567233962,25.7886915781248,378.352538330012,8.34858165816202,1254.88072624237,-21.8097096559374,1115.56290940259,-49.7949671933345,681.896391382313,-26.3853200883405,959.843463720855,146.538835812528,170.4931217384,-10.7301984033492,1095.38702683792,57.0805804225552,1037.40219823166,52.0342448919691,362.362171308321,52.8882591296117,3511.12409032221,-539.902955599706,408.099387025397,-10.2992559959718
334.291903744617,-19.1386952363501,204.204253657634,8.09486686215741,955.776510240444,-39.9244606484232,755.216210766696,26.0451386465034,380.393953352832,7.6968015496987,1250.03558030773,-20.7304854044082,1122.8910255113,-54.7971443560781,687.848626287681,-26.6544090878886,965.360645669649,148.715960438772,171.077902121198,-10.8447875649789,1110.99380191225,55.7505758969769,1037.21598802996,45.0638018069708,367.792966335357,50.7374683500999,3502.46905051732,-536.491795923053,410.671981965671,-11.0898297667199
336.872764317246,-19.4463203248405,206.902948028765,6.68600841425998,960.58271627021,-35.0593407568778,759.995179015194,26.2661235090252,385.512765628017,6.5851529419823,1271.78588191944,-23.2642365156739,1132.0506288673,-52.1972706905541,708.460736433598,-28.6535607427796,978.663841734429,147.73960549073,174.572589296925,-11.6033983244665,1146.95453703769,54.1364978382781,1063.38384009802,35.7127975270388,379.475388291672,50.9216661371959,3539.96350207424,-546.136675748472,415.670647842466,-11.0390243998834
331.183296174998,-18.4137338602321,203.26593059639,7.75667058466428,952.631756704928,-36.6948582563935,751.384518141005,26.6336598466845,373.533927109045,9.34900146901083,1240.70270289504,-23.556803883202,1103.86266381768,-48.94104218527,676.923243196468,-26.3325182624335,957.288291660101,147.593554106629,169.909352934611,-10.8433037045619,1092.65837809564,58.4801251226853,1036.35671130583,43.5046189657023,361.48130703985,53.2484877223868,3490.88157441161,-538.245665378286,408.664223059816,-11.5500311973166
332.95236899497,-19.0775841155314,202.175189778458,8.21093819357051,934.952266253706,-30.2067030985169,752.849710999668,26.3191060055995,375.766208317604,7.36583691658427,1241.18652483057,-18.6611114747486,1105.63160560907,-49.0289771754178,686.184579050194,-27.0263457337181,960.514979747235,147.918730445776,171.254867458835,-11.0713149748754,1111.01252743072,57.7914794015798,1025.720308687,48.5616333774923,366.648251236925,51.6641839609859,3488.95683833156,-534.843391244953,407.060834998362,-9.87396053898549
337.211980144626,-19.3826561183898,206.456194912844,5.60844495875985,960.221847082839,-36.689766043513,762.074555642187,24.8634455491657,382.121513126474,8.29193770195076,1265.86668783586,-20.9108594111153,1120.83848513769,-42.9859437973901,705.368102114785,-28.2155072856434,967.68641408009,148.857886232176,172.589129820688,-11.4049822080152,1124.95950705924,54.5344638615962,1029.7900762237,48.7960636856029,367.12976050524,52.9696735839958,3480.95886697782,-534.001677072958,405.375075928851,-10.0062318240928
331.597416668789,-18.62350051046,201.155451265861,7.81161327012919,937.903273874855,-33.0691941450613,752.945824853643,25.5882803624952,372.422665331064,9.1128706322452,1237.08910181338,-21.7657726281456,1087.09810883173,-42.3899357704343,679.327066862975,-25.3831416981447,954.192354193951,146.2251919276,169.792697768768,-10.921901322503,1099.63766879319,55.9922573986685,1031.87122811616,36.451625623171,360.584647520259,51.9376983075853,3460.39172031274,-529.118228871127,404.453803545847,-10.6486462839005
334.207225973799,-18.9173582336025,203.202796712247,6.53339435002137,932.890209297165,-29.6120823633923,756.93356673304,25.7897665921186,377.547193531708,6.87957106386541,1250.11967522303,-21.6254170222457,1100.67642071606,-46.8339514708819,690.012988067988,-25.170893869669,956.265537739729,149.413938930943,172.067345157085,-11.3212480469073,1124.28968554472,55.3943154286775,1035.41771183338,39.4888168996873,365.522857108391,52.9796718145474,3476.27217829146,-533.084322096798,409.965324259049,-12.4070165690427
338.339843147151,-19.8211616221911,202.86630184692,8.41757637311911,944.651692174696,-31.9289102834622,756.956129438044,25.6926869274416,372.309152305092,7.84487989526715,1236.15874505928,-21.9217075985424,1090.56122152662,-46.7150448315421,670.848187019986,-23.7074895647613,940.187073776273,147.810331490952,169.422632907855,-10.9887916626614,1083.10953723272,57.151970770965,1015.47970263245,45.962800057919,356.503250222805,51.2376094069228,3450.18462669014,-524.609077999737,399.770468489203,-7.87327273196623
334.13635386713,-19.000318834095,200.348425228337,7.27955269346578,925.650793907215,-23.150736833535,754.677264183207,26.5905701300416,373.838993351913,6.5433991887982,1244.44772622059,-25.4168094301157,1087.14514964386,-44.2974140464961,674.041271048622,-24.2074594452693,946.59241605468,147.494690235154,170.174515381418,-11.0609787955285,1094.67663831407,58.382319253398,1009.15925037163,48.4872524075624,356.80780958508,53.6239096558546,3446.12566721016,-523.894468745789,403.795988793163,-10.6502137875789
337.894959698162,-20.0760255138942,203.730988880475,6.83173025674913,937.528314868148,-26.9819339968195,761.913002043161,25.513637018122,382.527424940378,6.22266663989336,1259.01709550708,-23.8670191833234,1106.14168614258,-48.8551541688644,697.116591173597,-27.7283769584163,958.35585600796,147.234767330957,173.231955769027,-11.5861042945948,1131.93487537907,56.3123454717247,1035.30781565529,39.5236029253021,366.889760260984,51.9663482252217,3479.17562177391,-532.547927286641,408.078794101377,-11.8958407564228
333.647417204947,-19.433216778537,199.888594890898,7.32201764339514,937.665978246089,-32.9295451123883,755.001447673809,26.1362011833306,371.419471193903,8.08119351653817,1232.48226019166,-20.017657052065,1074.86531586159,-44.5397632086045,667.622743164988,-23.6561854173705,943.909715686766,144.710703104937,169.81029167839,-11.2105941441828,1084.45429334821,58.2112287720101,1009.7729280021,49.5070829168187,354.400472180829,52.7617341344917,3454.52438715557,-529.616618053555,401.661717281659,-10.1667848840597
335.96671382736,-19.7563169387491,201.662084080474,6.73614526031053,931.784532135965,-28.1863756579426,758.176914521285,25.099600980091,375.475492440081,7.784836724469,1245.72347863372,-23.5382573261419,1096.58103703121,-50.3513570633567,677.344582865363,-25.3779157929318,944.663745528308,147.899159546623,170.908591318549,-11.2213077070057,1103.43520636421,59.4958529806627,1022.14451817022,44.1189896795487,359.498427490434,51.7724907235611,3469.21387849698,-532.236671372843,406.38872757962,-12.5348704253678
340.470967307227,-20.4072046002214,203.276421823136,7.77173771825862,950.60000895107,-37.4947402060408,766.864793838802,24.2990435322848,381.798704395714,7.44224468795184,1267.96690056881,-24.1177901436057,1105.52122901335,-48.0251719545723,698.030252018789,-26.8459262673766,960.739761983373,146.487923594494,172.836281480856,-11.7064454918723,1120.46517054275,57.2957088796428,1036.726199377,40.0173644750069,362.553598568817,53.5825425037547,3473.56310548906,-534.176191358407,402.47708057266,-10.3044075190338
335.059678126647,-19.7672684427765,200.543130782786,7.59978949695322,935.485221623998,-27.5875773751897,758.652524038347,25.0023701549341,375.125926670581,7.10960690319604,1240.47150174778,-21.2036743653984,1092.01274476134,-45.4159528511661,672.313483552423,-23.8219998245133,945.522226128392,147.165635892065,170.07778994601,-11.1827986514054,1094.91782746711,56.4391782135837,1010.91296991381,57.273494950607,355.024766137506,53.8774030703157,3467.17398715029,-527.283504921907,403.494591411502,-11.4475161576091
337.275663295761,-19.6728878390726,200.915178319107,7.87880982647423,951.937011216213,-39.7454545552241,762.231857312853,24.4100797778044,379.52804050744,6.66542458539011,1254.29766166184,-23.0469303903794,1092.54624988398,-42.6974276162494,689.062037725259,-26.3558034691883,955.332900382354,146.750166929653,172.558475425744,-11.7338815558346,1121.89284463379,57.1929825393427,1026.87995170217,51.1746074510288,363.369042162095,53.0568783837942,3494.16033303554,-536.726448979075,407.566118708243,-11.3671142871598
335.07300617333,-19.5239530895194,201.124817254817,7.60991620043957,953.452114053871,-39.3770456807346,757.392113353465,25.1425444537801,371.474834723489,7.83085936167639,1238.32112684783,-24.9859793986103,1081.46875533027,-47.2587517600137,659.823306710932,-21.525445850182,943.442063210336,143.981658461548,168.835247951499,-10.9125721143607,1075.48740517009,59.096894364998,1026.62811711197,42.6906085520598,352.945182939062,52.5134285794946,3473.46796626257,-531.874138281541,401.625130752655,-10.3607975664375
335.470380338301,-19.8201913993107,200.147312096459,7.92524384236401,947.26089430288,-32.5563993925704,758.826492141857,25.116002640495,375.849784289275,8.21680615124061,1245.75407722655,-22.5518734040725,1082.08140098192,-42.4250056432209,673.228382676057,-23.1312469810149,948.145496678135,148.710824189533,170.554482908913,-11.262030555491,1096.43734713084,59.9884223066154,1029.09633843321,47.994069736185,358.832544977701,51.7909779109094,3488.15542786681,-533.038747256456,405.60444153877,-10.5883153407986
339.795322729279,-20.3460277015804,204.480292780633,7.13039040469339,962.926008607676,-37.4410295043074,766.656642838849,24.1339839850749,384.337756980297,8.2006260668193,1271.77191287802,-25.1916207240885,1116.2114378668,-46.064795207493,702.791127513617,-29.8214486795337,964.555591610207,146.651962220498,173.654023146667,-11.8379662341482,1133.87624595852,58.5054854573603,1053.0948843758,39.2589457531292,371.020034830458,52.4998829551726,3534.15269719655,-548.86776274494,413.05666822648,-12.0234651708927
333.914380789483,-19.3529680030133,200.009332853257,8.42722589141891,953.3921550907,-35.7464762056979,758.129498318033,24.8561772315998,377.874917426325,5.96512230970872,1237.7199038057,-21.3829070784102,1087.28002373031,-44.0388996928536,662.390519861434,-22.5671243568123,945.797684943259,149.138881805275,169.724427252163,-11.1592584132151,1084.64229345919,58.585723013226,1032.42748517847,42.1653384404341,356.747815357412,52.3689495483769,3491.26271617029,-534.945245754949,405.30994222029,-9.7496640784129
335.867814716827,-19.8863345235428,200.993352196654,7.44511306824741,944.559127234609,-28.3714357061014,760.068975206635,24.6443676177918,377.681796915029,8.12609655054865,1251.60204926835,-22.6819618566313,1101.78233053086,-46.0156868663618,681.119809980923,-24.9620704608015,955.706940789863,145.871087919726,171.180889179084,-11.3943765409571,1109.49035560136,57.8709297369102,1043.02566136385,46.604204535474,362.529024193334,53.0324526653186,3504.3209359664,-539.435238602403,410.875373890069,-11.4678054585606
341.015583771805,-20.8591883489932,206.10084693209,6.59607690670528,955.520173884932,-35.9680862023492,767.117648111208,23.5253344948335,383.991684061076,6.36321484105207,1269.05005717363,-27.1509776189899,1109.45748915676,-40.2833819216269,693.988106690949,-28.2460807840464,954.392360778418,148.27500757263,169.927874489397,-11.1147078659882,1092.3764493981,58.0519390599765,1039.27492107658,39.9578804045345,356.14563841299,53.0811518380507,3495.87948800708,-538.989860657898,408.883202468139,-11.4873385287298
335.030587656483,-19.7704918916751,202.517469619166,7.2956489700408,940.938600450755,-29.5518252747574,759.238345982727,25.1245439559367,379.140680231827,7.08560133308512,1255.76557451972,-25.2446132695208,1103.68127189587,-47.2801017346328,680.338740915925,-26.3788229649935,949.335001043524,146.809543279348,170.534616815165,-11.4920473781854,1095.9064717039,60.6030288626809,1029.34503450301,44.0191036929579,359.458445775056,52.9189408229212,3500.78456916475,-538.558841044713,410.266098647741,-11.2829806212166
337.838564075327,-20.0298280040989,202.903638007745,7.49687565205365,953.107072241526,-38.8567950837036,764.511798030675,24.1118275361549,381.209869725818,8.90714570935197,1268.44524974663,-24.4718911582023,1124.5530412154,-49.9066474209842,697.52175702277,-27.6803598536473,963.4459466734,145.195229529542,172.920136847669,-11.6484432121647,1134.30270093104,56.4318341724432,1055.88815544328,37.8522016352253,370.923799706589,52.3753410202392,3527.19638192772,-545.894340571507,415.396405266331,-11.7548832872871
336.056391256354,-20.0924667812826,203.683705932652,6.85801418781487,955.27856321504,-39.6995286109057,760.477361045518,24.2489743492904,375.538959526387,9.30858088828791,1250.05655764504,-26.0852147747928,1109.34084522945,-48.8578051431106,671.408092301548,-25.0472876757121,946.8509159679,145.452958789432,170.150329849366,-11.3108761260395,1093.06627239084,57.3986504148775,1047.27279179585,43.7527984152338,361.540784674901,52.058660447285,3505.02086362907,-541.211634979941,410.548010522799,-10.6298203852381
336.179883808695,-20.0300204713496,201.913645665314,8.27228979783952,954.357439134566,-35.1584722644104,762.668726425755,24.0818922021637,383.374702112733,5.50226172430402,1257.98579754738,-22.7143572365681,1116.16381055629,-51.5508088445309,686.411861358317,-25.4356516460572,953.096776537916,145.802645362117,171.907296794732,-11.6329194782785,1113.21163655833,59.007633242346,1036.82670038276,43.2215880829294,363.824140648748,53.3868446896132,3510.57191676907,-540.160684256524,413.613395684027,-11.56542623726
340.46879951519,-20.5881266685248,208.348578036326,6.67929677968703,959.215408218579,-27.9498241846613,770.696191092212,22.6960693841483,388.406532175038,6.17738360651638,1282.69278623551,-26.2235411528057,1133.90216276515,-48.9698529023942,712.955651860979,-30.5733633350035,968.506235252705,146.83394383067,173.893833709882,-11.8852856585367,1142.79879126033,55.3782991687433,1057.28608285056,35.3945415126729,374.22434849843,50.2470941819124,3513.89971747083,-537.582117127493,413.024233619852,-11.7899920791215
335.166927245112,-19.7648240919121,201.808678220203,9.12592379499676,952.557983005235,-36.8665901466148,762.202612775841,24.1315994124669,380.942835809022,6.82607023152871,1258.33957629297,-23.4123468466248,1106.57130048463,-47.1489128252272,687.514909631812,-26.5440578490518,952.753930440911,142.577606373817,171.514881864781,-11.4038381437471,1116.66848496092,55.2087552581691,1044.0920031032,43.7935954850719,365.139261985114,52.8678758902021,3501.21138373585,-538.896604288205,411.318474280316,-10.9714126415089
337.260219465149,-20.1440505214889,204.663480888285,7.67540318307498,956.246995627942,-40.1138680124134,765.82976564469,23.716514658517,386.536392656282,4.777816886335,1275.52198721283,-27.867351935352,1129.872005982,-54.699083751822,702.299400952634,-29.3010985190742,960.285958488036,145.768196380468,173.925285684414,-11.9819119372333,1141.66068973255,54.5131874333373,1056.52545971252,35.9872885484251,371.049695089163,52.0684851147534,3519.91731484208,-545.30585240904,416.078831771187,-12.7005513761849
334.581073338049,-19.7936190048686,202.041567584947,7.67838593036638,954.73097214669,-36.3404607787455,760.86222278164,24.2700288447251,378.461536478648,6.03250264295986,1249.43365837394,-22.225087323406,1108.89756663852,-52.0769341201101,674.924302259403,-25.8890366827,945.108915690597,143.108666707672,170.190291275929,-11.1668403140497,1096.59381091762,57.0999228377405,1035.56659712703,45.3406812482575,359.933696231709,52.3827987948023,3484.75660046083,-536.643574576861,409.132293771694,-11.1380119580306
334.528648000809,-19.5592303061928,201.04453401482,8.39727764941452,957.959368251272,-41.4475014014962,761.40874032864,24.1314063461112,381.161943543834,5.70081687687027,1257.01608452669,-22.1929562070525,1111.56346231841,-50.8959970389781,687.297850087813,-26.959066990171,950.076360583696,144.58167983132,171.748693574494,-11.4840332230892,1116.47153920107,58.091561199069,1039.82005209743,48.2116957001294,364.076262774371,52.200084450924,3487.83502151991,-539.051041419935,411.490322364956,-13.3961386120106
339.801049051168,-20.9350489718804,203.859726723333,8.7510708130975,969.37820985135,-46.2479452318124,768.219888677464,23.6644111163039,386.692646564121,5.02606287252572,1281.86764523599,-25.685591150905,1134.91366100251,-55.2819209331034,710.336705400459,-30.5259444165793,959.94517646066,145.230202334637,172.721720996343,-11.7713364882709,1129.32643386014,52.5511565273456,1040.67985569458,43.2173228390885,367.728973173471,51.2286849563328,3489.40608187777,-539.868510161317,410.160215114422,-11.6980549969657
332.999724452853,-19.2795188420793,200.349698483489,8.42834544127966,929.213976008248,-26.1207211486136,759.421024098485,24.1653178207635,379.450122131806,5.71501423041944,1249.33221762892,-21.2048269907844,1112.81714832039,-51.7705630426634,681.306337778348,-25.9243710440532,945.783554341853,146.015484235545,170.668474076304,-11.3776642756524,1105.98747140082,56.2121265407674,1036.63490562789,43.2419954707917,359.58035979724,51.8358598287328,3468.06546388589,-531.467053989869,407.390889691671,-10.8561418910477
335.456894877906,-19.8553788426806,202.983727609347,7.13643769597719,953.001686227585,-38.4064171213587,761.623348053355,23.8338628696546,381.20523348342,6.3060831388184,1262.18011077192,-23.8700398272584,1118.29541395442,-52.9041204000352,696.642692062593,-29.4767332642775,955.359108090355,144.208647623591,172.626024460318,-11.7233626416698,1128.26976860169,56.0546664425664,1041.90780446099,43.4312122361241,366.882227686623,51.8859219021758,3489.45560658116,-539.064854805271,410.111566542905,-10.8079519220471
331.826139369879,-19.2059713500128,201.054255373735,7.7668120160885,926.508702841216,-25.6507198567098,756.436337012603,23.8580468360176,374.923100182755,6.77080581732163,1242.53886777451,-23.3179705385388,1101.33352347307,-52.070644390263,667.937196573575,-25.7873036370922,942.153425655529,143.518939982918,169.165018201043,-11.1456093472671,1088.71100128774,58.7235073953824,1022.16776270346,42.5849918991617,353.186561247007,52.7739587760798,3453.67106633087,-528.668851234615,403.408800822377,-9.48667674705782
333.796557688064,-19.7217778767714,201.754211151966,7.67010837612379,940.003784945883,-32.277749570965,757.503481698773,24.0676159821164,377.825870629096,6.40245655791726,1251.31719673832,-22.5379835305423,1112.4946411931,-60.2139574950519,680.814985898664,-27.3187536108509,944.081738382692,147.275709157666,170.47122055266,-11.2758907145527,1105.04716414514,56.8053821955924,1040.35360063574,38.4109217071209,358.923044217804,52.0597031852852,3471.24752779225,-535.212484838923,409.021626653897,-11.2335928879548
338.532997262664,-20.4871907678573,202.859725700312,9.65821027556849,962.417785265045,-41.2436077063043,766.797461799726,22.8053584112197,385.061830607948,6.31595581096893,1277.6546108651,-25.5148277008854,1129.47438759274,-55.9504626856818,703.260667695178,-27.3530307081437,960.784472619286,145.765397452824,173.091505828313,-11.513042920772,1136.0216705703,54.3640943517724,1044.49585441674,45.2436061231823,368.984527750369,51.9677865782911,3500.20783292415,-540.767031219542,410.647609568917,-12.1219214529841
333.944390142266,-19.6949351556153,201.742415913602,7.23788735727021,952.765433050576,-41.7516191615534,759.324116239346,23.6927072036184,378.485678667671,6.11070689740878,1250.43270218505,-23.3533690303604,1100.55172249656,-48.4347383888757,675.94026380961,-24.7868026314422,948.622613109105,145.350699900613,169.771158948353,-11.1517528616385,1098.87742813771,57.3920922236038,1037.99422642509,38.1347363365745,358.32247411406,52.7841994511468,3482.74753507233,-536.289908055305,407.854774253354,-10.8163255027656
336.967304777839,-20.0220455815863,204.864246477082,6.10928706542467,951.159522675776,-36.6368927260463,763.03333927697,22.948163586596,382.8495807341,5.32480509859323,1265.88735965368,-24.9252635575336,1098.81667254819,-40.3480837384172,690.221605145858,-28.0257286754092,953.79830222135,144.33275208815,171.734761986086,-11.4859105758366,1117.62391492868,56.7607390698062,1032.55353504066,51.2197428796029,366.246693716713,51.3656547783968,3508.83974950768,-546.279557039355,413.204190544608,-12.3274107152514
335.924132674848,-19.8789821738843,202.796680908864,7.45705153467375,960.905616296901,-41.5702440207765,759.629731608466,24.0064800132556,379.767354903861,4.12519673876564,1249.56603717075,-24.5280495214961,1089.15497665408,-41.0063662484575,667.911890270442,-25.1424414411479,939.656616151537,146.391529817822,169.26125223249,-11.1574381126606,1085.51398006234,57.9811394696353,1038.99046727797,40.9773447144027,357.108298525992,50.1358155480614,3503.05828480166,-543.291970002868,410.636024639823,-12.7135954597527
338.223521468156,-20.3208329497961,205.91595903008,5.07773821946092,959.450574200014,-36.2626123713776,762.028766400348,23.8490112022876,378.399666051554,7.83489966886558,1260.08264377181,-23.3638080833138,1122.20968906105,-56.875608867478,681.031490347285,-25.3990597273065,952.84098983772,142.994348761716,170.75341384086,-11.2535225633252,1107.06920688743,55.0874198102633,1037.74151284388,46.9910710672947,361.397196951393,53.0589072138798,3523.86822785711,-542.600315976374,413.372120713633,-13.0902917215871
343.268989269523,-21.486895368891,206.817691943602,7.53110043404418,966.462987305239,-40.2198619048406,770.054767038,22.3574927860383,388.503356702448,3.50513474451898,1285.49692649571,-26.531673132252,1130.80936960803,-54.1614116970557,699.573382734393,-29.7949697464571,960.920822151757,142.996771605506,170.663861309184,-11.2362042023713,1098.92665447699,60.0701260207503,1043.35621744491,42.279335185134,360.421652009057,51.8981485830168,3528.54044306432,-548.611301585201,411.203381632973,-11.4636437961229
338.418913106909,-20.3624347376531,202.394061191647,7.62375887593891,960.284905617624,-41.0513457368444,762.478922173081,23.4192514810553,381.192561587784,4.70013982088068,1262.78253275399,-23.9746499350296,1112.1198225721,-48.4069633455357,678.336939524488,-25.6405963677193,948.871085643287,143.90156307723,170.027865518494,-11.0582013605379,1092.63282295244,57.4071284556516,1041.07277215275,49.6668629172242,359.734594691432,51.7954479533406,3542.3574162849,-551.115068968251,411.516575676382,-12.3188989309643
341.741747177219,-21.0681725451755,206.676108810259,6.11907887826254,970.551932883044,-42.0819197612575,767.896964368627,22.4041770005461,386.05132057494,4.58711992826452,1275.23467361915,-25.3522583461947,1133.84347985935,-51.8810889344832,693.023739823142,-25.3736305545054,962.757494340337,143.147297297056,172.46779538836,-11.4924329838891,1131.21222192273,52.8967239547806,1069.02060743312,37.6127570201337,371.446361017109,51.6750420765246,3569.12627613188,-551.019262363332,418.524594927363,-12.3124766530118
338.340689211036,-20.4601861191536,204.510316982543,6.36881508248462,965.348363380556,-38.8635126969401,761.018011735717,24.0649810432818,380.304849546729,6.07105535844191,1258.76905225156,-23.5957299517706,1107.15018941404,-46.4032191484845,671.853913496014,-26.7949417042631,942.839005417785,147.394550372527,169.531767510683,-11.2908112053993,1085.46968239067,58.6009109325737,1041.29216703471,43.7351866826554,360.983771908098,51.276351813913,3554.4853478135,-550.17583123824,412.151842792061,-11.5845716194966
340.92446691934,-20.6984899406667,202.685008377447,8.05680601881441,965.025122975907,-37.2130026861811,764.164371745468,23.3830041814461,384.228879831155,4.13530241305938,1268.59324785963,-24.7424399813502,1121.48604929211,-50.4024227937309,687.213424399077,-28.5295058609632,952.560596430674,145.221192571371,171.576915861872,-11.5995009884895,1107.978941481,56.8802883083781,1064.56074640226,32.8565324950074,367.471116523584,51.1269595427264,3569.6449968508,-557.453513613648,417.395096983055,-11.4350239908899
346.536565716953,-21.8671032639862,208.608942749801,6.84205703360668,963.071553971261,-35.54108271779,772.23491003329,22.3897038656443,389.942309643152,5.70308263511871,1299.26411641451,-29.2629717484405,1153.64608823854,-58.2891695266786,709.30843008141,-30.2197917218519,967.98029460244,144.836892386811,172.47646503288,-11.5946030577294,1117.6998641201,57.4943769802433,1061.19015787069,46.9240678277009,365.2645702713,53.2302538555697,3567.64854677518,-554.906939043999,415.567946676654,-13.7487686069693
340.238807949837,-20.3516889571212,201.903211016508,7.48876259754774,953.824511314633,-38.135849932666,763.443138575383,23.6768808937828,380.313203194982,6.81181881224689,1270.98150499481,-25.9109057883649,1125.85387819064,-50.7206463922124,680.343977761271,-26.1989224142428,949.645668341276,145.833127610547,170.578659171661,-11.1251173741831,1093.88555919191,57.13955160173,1055.22356703244,42.3172464038207,361.079211002787,52.0235608257857,3550.5388568796,-548.145218181677,415.640687474583,-12.0548266118533
343.063310516308,-20.9850401169021,204.910019602818,6.83469011909094,962.027129331951,-38.8838663422299,766.417131162066,23.2409610088292,384.873012967049,6.08991602573663,1284.92428453077,-27.3159135866276,1135.8185713843,-54.5261942200291,695.842426907264,-27.4008078841986,957.176325630103,143.966737190344,172.769046954885,-11.6679060643693,1124.66276122641,53.9899916648217,1054.25716540554,48.1581058150316,371.043717449696,51.0236965324078,3572.33150836694,-556.517709789831,419.72219484588,-13.5825791148826
345.221984012441,-21.3113670820241,205.484861771011,7.26514446515275,962.293790739622,-36.2888010435516,765.399450127539,23.4717264034011,382.248191500829,4.65416047474031,1274.4299407212,-27.5086654344536,1119.25901157798,-52.0267227564662,674.087036606157,-25.4875349317231,936.681276744219,148.778082692349,170.603930131751,-11.196419526858,1086.80144282011,57.2950804281939,1041.14885452086,43.7490253950299,357.986353773395,51.3954507561821,3538.39315863139,-548.802031435111,416.959460423109,-13.2614353030665
342.363596416908,-20.6119397504376,205.876038116161,6.31402851316101,963.867613478368,-36.7268627914333,764.671804443391,23.0881343426174,386.536172110422,3.08932154398058,1279.72859459075,-28.1570019269958,1123.23845507201,-56.6631798591712,686.800006225837,-26.6217318360303,948.652938727911,142.08737241171,172.318228930079,-11.5851693098336,1110.2191343782,53.4270261819188,1048.85538595565,42.9488626508573,364.048779504275,50.9737830978454,3541.93082697058,-547.937892673703,413.324817718384,-11.4661075290036
345.956106383345,-21.360864054375,207.407878669891,6.27117383933761,960.923742729177,-39.4587589706102,770.519463298641,23.3803534210054,390.69497370355,4.26306493426509,1303.35976033912,-29.7630582950479,1143.13562208833,-54.3285943327618,707.933581636987,-28.6516599763279,962.538095786254,145.118127208251,175.519811119228,-11.9939905576715,1143.27240879788,55.8923155711673,1072.57949947708,30.6774457462929,377.105837401396,50.2387219157002,3573.68361895291,-558.560354270807,421.939807327145,-12.3621407934109
341.441060528084,-20.4988930116229,204.41125694956,8.33060155573498,956.72703323691,-38.3111390395837,765.243234947945,23.4169304086771,384.913102927158,4.36341170370269,1281.60383936756,-27.0919848363412,1122.46665620272,-56.9803438376542,686.512868056781,-28.6414927325165,945.413495946105,143.016307226754,172.635588203313,-11.5316087111435,1109.49421084831,54.8689848441716,1028.38376991195,59.8162043603057,365.375995269132,51.417890922051,3540.93040546764,-548.905362773604,416.621875280593,-11.5291875863812
343.623158295435,-21.1231349498052,204.631533729769,7.04383408732802,956.75146953461,-35.6296350624512,767.310095461534,23.4533588015346,386.206780066686,6.0775074590791,1295.63950104906,-28.1894695731874,1135.15037550058,-49.910796957896,696.157230550204,-27.4245529382881,954.15117321725,143.646258799185,174.035100084256,-11.6108731685392,1131.00829314208,52.3939929504026,1055.87402512954,39.4354207378153,370.58492222345,51.3064876671873,3548.96703323033,-550.352493581314,419.060050546329,-12.6188572126266
348.256302864548,-21.7060689189238,209.064221026056,6.80898374977281,957.988948525532,-32.0780594614692,774.074420742014,22.219895698545,389.187032633996,6.40093059590396,1307.08322114174,-30.8594930331425,1146.97919528634,-55.2104776154698,705.987361196345,-30.0635009646565,954.704405505198,144.007482316005,173.583286277187,-11.7288121328947,1112.55004422147,53.9830179325865,1052.13325378532,40.2687480650328,365.582137973661,50.2424854702817,3525.87854089198,-548.816013405335,413.77559216391,-11.6639698687931
342.289160954443,-20.4782673014867,205.147110617117,7.02619726845324,969.908551803672,-48.733954144659,765.591559348762,23.3115927208302,385.70229323472,5.40735038884389,1292.40159372419,-28.4679174400906,1137.97207839781,-60.5676308986723,693.445517355206,-28.8807499539441,947.280984419982,143.774535036427,173.407820415487,-11.6512528648643,1118.24600287143,52.9742267987982,1046.84114348241,43.2380660138754,364.014221956991,50.5337551390096,3517.84452958541,-543.077184458103,413.379413530479,-10.5411035658873
344.558994164619,-20.9818977156775,206.347123910776,6.44612837263502,964.685852790875,-43.53785520551,767.630413947568,23.6412705207225,392.284740057872,3.37698741382809,1305.77781279135,-29.5527853012823,1144.02184433106,-54.4382684235172,710.403605853194,-30.891581923542,959.300031746241,145.558285787005,176.150596081441,-12.0547620501419,1149.48257121148,51.115006072322,1063.00749828243,40.5631173807396,377.975566664565,47.8133271487715,3551.47240039065,-551.89682695146,421.982416199299,-14.1941933239781
341.174432041281,-20.6284459566456,204.714518576585,6.65451147294407,963.637924564957,-40.9445640366321,762.68159980813,23.5227006250263,382.355261215211,4.64972785428112,1280.71354044855,-26.1099127295491,1120.89381322158,-52.7002014915688,680.429275416757,-26.5350534995045,946.614825101956,142.092764586118,172.765485528796,-11.5448176362033,1106.37151311026,52.3665142477575,1065.83080170753,31.7762149288998,361.326764100641,51.8205287251754,3515.14615739459,-546.097189559739,413.073018582138,-12.6755012315232
340.337557056731,-20.3727548081456,205.301941584942,5.27391843021322,959.399316355109,-41.5965162230724,761.713529677362,23.7906262686414,383.165371844356,6.69338080208013,1290.35674930905,-26.3215341945275,1128.6526047676,-55.4165078531306,693.716448564747,-29.3849660147158,949.886997172282,141.894084767331,173.981741614774,-11.6901047370237,1126.02355969937,50.278787340877,1051.80028774567,38.8399380384879,367.121421270394,50.5344328507347,3520.53750994007,-547.399117457377,416.122020093212,-13.1495254121142
