237.804246244466,-14.9168228940626,357.694197655012,49.5808985713469,329.229980110022,-31.5374148080667,1138.94183611668,21.4336213125617,809.485680254628,2.44885060147581,363.918686832384,15.5290077455452,264.708055461507,-26.5133718100867,459.97009141223,-27.5700195818809,441.996490702327,53.2734366683819,224.689331220948,-2.36538593104668,242.14081876275,5.78816234631085,580.190785447393,-16.0527938700823,1190.08910194612,-8.80157336517393,662.889120249133,-67.950734227394,456.828411638632,-44.5478622383311
240.954824239652,-15.4916933747183,359.426936466804,49.1337835288147,331.473603635049,-31.2533417776607,1157.50378120229,18.8495651908483,813.791834908255,4.38093515803652,366.867275636806,15.6344602469392,267.252700877476,-27.4203971215497,463.868260236576,-29.5454787091772,440.247626875456,52.3409116315825,224.814845256655,-2.00235963944301,243.649604795556,5.10631217055232,567.51797177754,-4.22951794536554,1190.61948284906,-8.14867300398666,661.716913321303,-67.9092978038926,459.642381241338,-45.438354796034
235.591429744078,-14.8765635107443,356.591328593243,50.4075994752544,326.686791241588,-29.3997519175629,1122.17140317742,23.3185240809469,804.235900376188,5.44221470541098,361.971439076417,15.4235618721213,265.585226826176,-27.3685614776131,459.01578902871,-27.3261067428975,441.561958444924,54.672260570514,221.783351306964,-1.67828338333066,240.894858723927,5.99341079732366,585.257574187456,-25.813605052951,1172.30785450492,4.36741634757612,659.41763489663,-67.3037455537672,456.297317544805,-44.5515243337568
235.903058674921,-14.6014071608317,358.089573741882,49.450134875712,325.900568249992,-29.1135883427542,1127.88913320302,22.2176240152345,809.00613905156,4.30388379280504,362.729458891835,15.6374770423754,266.962776864166,-26.901178618456,460.540940590891,-28.3897642204853,438.917442757944,55.7008531168099,223.073948803188,-1.78408432584708,240.929797430826,6.00656898525623,577.704361708545,-13.3621319919814,1191.52836899511,-9.24599024949087,661.573871196705,-68.3129348145544,457.630133926305,-45.0514892045152
239.035899009096,-15.3417528285645,359.465360709551,49.5303037997209,328.247470396887,-30.0155686815531,1144.50113801601,20.3656013238274,813.38090189624,2.65119516544685,366.150166201587,15.067499619783,264.338902728701,-26.2703198693391,463.941722148955,-29.0788866261952,436.826851742328,54.4791183138667,225.202613006947,-1.88383723251489,242.50310111634,5.80261330296355,574.104591322651,-12.1768085218983,1195.28325932557,-7.45649368570417,665.465773286502,-69.1497360745618,459.398042136291,-45.5881731480813
235.692748438111,-14.850226204897,359.476204242166,49.3237374471923,327.969395054217,-29.9361338267788,1114.49782282515,23.7609556258441,806.210167540711,5.67231615475875,362.229166300879,15.5873133573553,264.9906588476,-26.8211518656996,461.550008433097,-28.0040996886785,440.763294163468,52.9549015553042,221.150415977125,-1.74338329143558,239.591620089475,6.18749652510976,573.803039066353,-16.7499423100237,1169.82021947261,2.86399932721687,657.965553938957,-67.0445565536898,457.248550409367,-44.9037528802543
233.159305886128,-14.4033915843347,358.028895000447,49.638387830559,324.559363773963,-28.8041156977866,1107.27704682096,25.2095491694819,803.096222337929,4.57136197984837,359.85321018651,15.8559199714498,264.023984644311,-26.7287087868363,457.089683622688,-27.6455319015766,443.398107541273,53.3834209909004,220.61636764933,-1.54135241516261,239.114608233339,6.23574679316319,569.610060300135,-11.0490320983337,1171.32232326846,-1.39153363472126,656.942475330101,-67.0671092924999,456.066400519061,-44.7498994028028
234.878358870538,-14.4788311955985,358.495088958086,49.5459666217556,324.630454227837,-28.2583625837493,1112.55564075833,24.2776390372663,806.702537799457,2.96292894454186,362.822639603908,15.8015182340457,265.124196247799,-26.3929666080812,458.936228828774,-27.2209937231771,440.626396574838,53.6314345018034,223.382328229061,-1.99860325594254,240.940496625991,5.78256636423485,564.17275176483,-6.42391966075746,1193.03686055138,-5.91365767954783,659.942047097342,-68.2050734570556,457.636699044526,-45.3200794640946
238.90870882359,-15.2012795904199,360.681087221982,48.9789346699441,324.612460377237,-29.9559169259229,1122.86802231996,21.5363360346814,805.995506106335,3.13165558986822,366.487792276086,15.1209875525312,264.211397482601,-25.6382916042026,462.165364542124,-28.281019561249,441.483940274996,52.7462126463996,225.618340979833,-2.19229964583632,242.368277629158,5.70290471753045,586.465179940442,-20.9200303440984,1187.87550388016,-2.4450629083091,663.583580181344,-69.0121524549024,458.045926123013,-45.2206282359661
233.085751282673,-14.1212508714077,360.23482741494,49.8043716901999,324.385324590129,-29.4964593851181,1085.6800488926,25.0642918589633,803.30265911604,3.34211136057168,360.661572462545,15.7521274558649,263.552923556784,-26.8716649088872,455.681395942057,-25.1377896716868,442.584916275866,53.7144808294674,220.392244982652,-1.49529250183254,239.148474200343,5.88745150722193,573.279786292581,-12.2410875546668,1173.5640821939,2.54552285217872,653.630842267423,-66.4175706946897,454.390946123006,-44.7826772807705
231.647769037585,-13.9271358190985,360.723902411337,50.3424392262557,322.38370857598,-28.2537650941607,1076.1485170655,26.1462237431932,799.649462826735,5.10174739446595,359.09999819372,16.2975198129987,263.17538025851,-25.851637410442,453.929814486331,-25.9788077330577,443.801125417082,56.8447580183863,220.564033689568,-1.68785556669453,238.720629607677,6.42486316276429,577.281403835682,-19.391880088868,1173.55210462366,0.929089301301479,655.905405848993,-66.8094095626092,455.325440662783,-44.5220313332495
233.547760887135,-14.1980666151243,364.053373089181,50.6219752601854,331.193144934279,-30.1195974289131,1084.11340268295,25.5772086591025,805.476600274405,3.14598743433246,361.882439018506,16.0817137470084,264.659998025663,-25.9083437572016,454.155319409468,-26.0459104262653,451.595594347085,55.2451297123321,222.019884631131,-1.54562696681501,240.365587974997,5.83393330372297,563.28860884825,-14.5362557599566,1162.85728058696,2.29645099124591,662.484831965813,-68.2619493946599,459.499288598861,-45.7407199736116
235.622841886111,-14.6167724909824,366.012945645217,49.9441205608455,330.67021869871,-29.9918804971243,1097.99743047202,23.3084245511084,809.656855331113,3.07360207651292,364.855529145053,15.2575750505098,266.688418142677,-25.8863147363525,458.260759259648,-27.652302239658,448.159545249219,55.3755668816418,224.046375230525,-1.95342849060519,241.990912166662,5.75738238889028,572.325595315561,-13.2122672878659,1164.42001859149,8.21203259264533,667.76490774839,-69.656026040618,461.645621123831,-45.8549260779675
230.41774517347,-13.8520751015157,366.423336094348,50.1581956692606,328.400007123373,-29.5881444218152,1066.27677458053,26.3624274873912,802.398688989682,4.28056260636347,357.848116701509,16.535437642562,266.83190210344,-26.5752159027238,451.943356334129,-25.8521765517383,451.089226849484,57.067019941088,218.95261182497,-1.0088962127109,238.288835594006,5.95523859692472,573.470086991439,-14.527746519338,1153.84275987463,-0.593021324119783,659.821955895372,-67.953037806133,459.774199128998,-45.9271817155601
229.971020495839,-13.6985244939561,366.736438403774,51.0272124310496,328.202925790823,-29.4825421419305,1061.39338983796,26.6828327570729,799.570978430981,2.96173141742419,356.668793907401,16.8179223708851,265.406008279915,-26.7430151534574,450.086241512042,-26.6288181026989,455.393866442562,54.9062740980602,219.687303043153,-1.41741609072987,238.09236743442,6.04950859869992,559.343864490634,-3.27505652655602,1145.55833975744,7.42837420041487,659.555758093684,-68.1895586707337,459.383970877135,-45.1464060393694
232.641370084274,-13.981015071066,367.810987925008,50.7883017143192,329.645020377164,-29.534327693069,1074.35234006824,24.9910942673004,802.107165116139,3.37612659500984,359.978208157032,15.9661189546783,265.627990164465,-25.6913908385735,451.494186739168,-26.3339568726937,450.432993609457,56.4074661436158,221.810495693268,-1.58198230213358,239.149869613848,6.53041102390955,571.938572359526,-13.8465735797826,1153.78632166903,7.0942269729139,661.180070902717,-67.9585591167185,460.9371583051,-45.4785487014234
236.27150970381,-14.8026443404212,368.061215697947,50.6183621571538,330.392593947932,-30.2551809818026,1090.37555049323,24.097375781802,807.255800846015,4.31970908288109,364.108076071502,15.3882927326199,267.546902078126,-27.4980166383163,457.970710122279,-27.9602412200154,445.696334118848,54.8226838492346,224.702882871955,-2.1649181170585,241.864029007051,5.50757830642244,567.670526326563,-7.87712881513943,1166.46208909325,7.36103602928275,663.403766638355,-68.6692722557211,461.056646645573,-45.7497298292011
229.762013287487,-13.907880032794,367.823356306737,50.6202253545845,328.359827297393,-30.1081865059978,1054.20538154313,27.4290846799448,795.773521163921,7.91446364763014,356.656555356281,16.1224811084401,266.18921908127,-27.0724351039312,449.736255418989,-25.3689951394475,451.30557012742,56.7528992699217,218.992565029305,-1.25353215643297,237.099741607044,6.57205261440433,567.213747915481,-9.97017662181975,1147.87628327372,4.09783073504596,657.676743572597,-67.2445290233988,459.366162342206,-45.584208919313
228.809977981737,-13.6552475530354,368.802696620532,50.7909622596471,327.618311976825,-28.7662076036679,1054.73922178449,28.6621167510704,798.305610778643,5.63979224948026,356.491509073564,16.2755235043893,265.094938125587,-25.4396953833609,447.598231315893,-24.6227352593617,452.079587972689,57.5499009186565,219.872395546213,-1.31574002175978,237.457359164962,6.72689976179756,567.651843525349,-10.2422994288463,1149.25560332414,-0.498479518848708,658.233992625713,-67.2417567040225,459.972066398646,-45.5488222246318
231.977683827181,-13.6317715824624,370.3826044097,50.2127531625046,330.772042180023,-29.4669645032233,1072.74945346062,25.5997112591074,801.641852128341,6.31576686951164,360.685645250055,15.6777184423066,266.785445437837,-26.3313442317351,453.712513401266,-27.1935019715356,449.346324834707,57.1654482907835,222.567263227288,-1.72450555980933,239.007719616374,6.52871550713258,579.576248748154,-14.2403747781745,1155.45889558128,7.74300532417052,660.537944211024,-67.7776131000832,461.820673682565,-46.4331324162048
235.962617127022,-14.5672847476628,371.259322287839,50.5462027389185,331.978998385282,-30.2225604902265,1090.6018776194,23.5812805492776,809.364899989935,5.28921618576553,364.010562445826,15.7644610392479,268.050187531132,-27.7985536054109,455.133681078655,-27.350995258372,447.825084787328,55.4816176107914,225.355285030872,-1.97141268421034,242.120303736203,5.82567137166217,579.650214683778,-16.8257403757658,1164.56592455133,7.21126944189091,665.052683341729,-68.4853592072749,463.340251893225,-45.9299392058096
231.236689992841,-13.7136424860706,371.368658578587,49.6048416666281,330.101116061772,-30.3651814038274,1060.38078454572,27.1916893909941,802.078049545433,5.04722296889876,359.779388586426,15.8434164127038,265.318278269365,-26.0334109878738,451.445949565703,-26.1995554258457,451.010748946444,57.3652366910264,220.9755340614,-1.40719569377437,238.506599069662,6.27562501879662,574.792767727603,-12.0687884511724,1165.62107369416,-0.65298782247938,657.816347859427,-66.546550264244,462.109330160998,-46.1280809441555
230.835810611615,-13.3199947723349,369.331833678872,50.3879895658742,329.310678844284,-29.7624790773126,1061.23682784021,27.3909858248092,806.083201794481,3.12375198785318,358.645853387855,16.0737533410777,266.353862811014,-26.1967981485562,450.043139709662,-25.2640958813961,451.744708139885,56.2040321459963,221.598669361552,-1.55099910197838,239.117491009354,6.58587237827141,570.531479660632,-12.173427114237,1155.71773370095,3.24410315883739,658.531912062781,-67.075699656747,462.663703832288,-46.2499624319808
234.839937564566,-14.3803693464957,370.723410210412,49.2257522500504,330.596501841161,-29.5684171482888,1081.08815800875,25.7168396782033,809.20955738407,4.45146150123338,363.015112837527,15.9078073563144,265.533766034573,-26.1456060591386,455.652344222788,-26.3040508263425,447.372208241408,57.2588314723777,224.579006401985,-1.6108985349003,241.256831091726,6.33618137594431,568.211068923238,-6.99526423784128,1173.45151442591,3.11006782174547,663.17517533501,-68.4398387993227,462.984265831011,-45.391539683313
238.715383044741,-14.9859334035275,370.139883797498,49.7208549926245,334.154676925873,-30.2291293740187,1100.22869089157,23.4298397702393,815.801367599411,2.70056833884128,367.429856347361,15.0709754556021,267.877308894867,-26.4151427271061,461.228475665171,-28.0352688721645,444.138985993441,54.9882180446279,227.576139500613,-2.3080407583608,243.24278227165,6.44308437122064,582.545208213208,-14.9047196268456,1167.01421541124,10.2392951725153,667.109407597046,-68.2711033674238,466.226863588992,-46.1559747319405
235.823531012267,-14.4779015804554,370.691863198639,49.5462568754232,330.434930729969,-29.3079564794576,1074.59615331902,26.4332336646707,809.250212325314,5.89925620178149,364.75541584562,15.2664291633805,266.921956799682,-26.7706274908211,459.323065663437,-27.2841030559528,445.93457651797,54.1939569546389,223.262260301719,-1.40072295468984,240.775340398496,6.39067480999041,568.050245425386,-8.77131502281884,1181.30207996935,4.13442422261107,661.541322692887,-67.5598412388891,465.878696976997,-46.3427365132381
235.04743633643,-14.1499969543992,369.511721486766,49.4884100671967,329.103031855328,-27.7558324542686,1075.0272120497,26.7611738673616,808.070316912677,5.45205351432673,362.13539652903,16.0353669175607,267.259939523116,-26.6669591962248,458.205155551221,-26.8491817556208,448.380013130071,56.0214104021935,223.891154953625,-1.71034084271798,241.176896809945,6.01839785331206,574.268944353526,-4.8899516679202,1170.11322956215,7.47346117644992,660.417477357135,-67.0353413056071,465.849587099517,-46.4833556528586
237.681254502987,-14.8517713125211,370.231548683641,49.065424824881,330.637133867143,-29.6086770007083,1093.33710991876,24.6618254773066,815.790541250066,1.89837659249646,365.439690115842,15.9366554893991,268.155248965184,-26.9320397302106,460.119640391905,-27.131148212184,448.486588071792,55.3115708367676,226.533339676605,-2.10478242093776,243.685815473566,5.62202637420064,588.243741115962,-11.6499117600892,1185.378451392,4.12193039963586,664.32234533551,-68.0809144199476,467.452683509561,-46.4519026744694
240.835502920799,-15.0977540235966,370.875270825072,49.3209434440891,332.301483910928,-28.0882315139479,1112.0382705823,21.5235508941076,819.452644212727,3.98860880442307,369.876759562483,15.0164552699576,267.629379366759,-25.4950757084837,463.10315248411,-27.491438598946,445.149326657953,54.7795562890204,229.305871266144,-2.59873023899136,245.712841851831,5.30276869773358,581.056244400418,-9.69083606234677,1195.40749383633,3.65161998789807,667.944976657047,-68.2021154454694,469.706647657523,-47.2858023665446
240.240115068766,-15.1882881348954,370.79652963189,49.3131176976633,333.370668174084,-30.4777237662015,1088.46148522927,24.5340332956893,816.877238972386,0.842279659267779,368.677566917836,14.8287616323675,268.667447780837,-26.5558840381064,461.557641025336,-26.0956149206265,443.865283167323,55.1603286830278,225.355274432588,-2.13243780024151,242.368118718435,6.21009564834827,588.410784275039,-16.10002859185,1200.2795644836,-11.8309137341899,661.283347342258,-66.7527756158582,469.217091053069,-46.9074539438675
238.076452650337,-14.7052580929551,369.014534555186,49.3160229533432,330.50532572996,-29.6730133172264,1085.15584413765,25.3268569713822,810.361168537628,4.05488858254676,365.763552718616,15.4181303575032,266.304658586674,-26.172984707104,462.010325543247,-29.3934747296461,450.400825320881,55.5655559349515,224.889236282174,-1.89380341161087,241.78904975997,6.4438757037611,596.246084546232,-15.8154708367704,1199.58790532436,-4.34772532124526,659.527143415571,-66.3410944311014,467.783233743432,-46.394267000097
239.841304755791,-15.0013536044637,368.114869552899,49.4295658377018,328.448210490433,-27.2449280655137,1101.50089486054,22.9287385027857,816.78528598683,3.34919012345537,367.575106439806,15.4625469510048,268.744078934698,-26.4626280707775,463.625077327312,-27.4915134443909,453.104221918926,53.2950241808982,227.428556572566,-2.17227835334372,243.72819942719,6.05881178183444,591.685306204647,-20.0692598026787,1205.67955096673,-3.29292581966324,663.689642595014,-67.1459140182055,468.942898798588,-46.6543206466097
241.790464289215,-15.3764165663637,369.272950277594,49.4995505059749,332.348028273942,-29.9276595813235,1121.10959083006,20.8358513145791,819.401459352428,4.13301298902757,371.912368080847,14.3585077931172,268.480057499026,-25.8737799620053,467.873685257828,-28.7014385465149,448.75438684323,53.4581316840023,230.507545754657,-2.83859124976923,246.406054114531,5.70994287117923,589.461132120712,-8.38195591882588,1210.73553553709,-1.93363254724383,668.458371126186,-68.4801231224124,469.509226228998,-46.2200452482263
242.441889875678,-15.8649442582917,369.165864769221,48.6988249261891,334.727939654519,-32.0157270346635,1105.70784178723,22.9450236391986,823.294519961693,1.2872333276867,371.321204232006,14.8236649371437,268.415205907215,-26.6658621602657,468.532941321829,-28.6714291788169,443.658840293623,52.4391830480497,227.439614150044,-2.41834060188815,244.210090090589,5.7541037501429,591.960475215663,-13.5675300625892,1220.62060428171,-1.67593668565322,663.410419427253,-67.8344066114971,470.473494107144,-47.1047727427823
238.591977768832,-14.7806099445222,367.575560669202,48.6092498347305,330.300787961284,-29.7027764953738,1098.64631558517,23.7929101388647,812.760617532136,5.97164367605317,368.426154113479,15.225539291404,266.698507174666,-25.5985421706993,464.667159437523,-27.9485347382635,453.213807605389,53.230482290613,227.127751717999,-2.28335226088817,243.376742699216,6.12213277708976,601.048901969331,-22.1758219915587,1206.87334541355,-3.85539347024118,660.772121005409,-66.7172293990244,468.878544988918,-46.7119195265256
240.045819953023,-15.1060088047063,367.221992140559,48.9866543752175,330.385779260612,-29.1101111150027,1108.50960852001,22.7707721664471,825.143967316258,0.0406351120107052,370.216864459326,14.8472260881201,268.446326540347,-26.6251952874133,462.268561645444,-26.3808112756032,452.686503739885,54.8386014540136,228.418785086265,-2.37515293086923,245.01060959522,5.78555442128719,590.503215108657,-13.5456720418833,1221.67337275081,-5.14619140878025,664.468658940052,-68.2460187448794,470.968441051623,-47.3422214307149
243.161462195623,-15.62636574725,369.275868534645,48.2032792125611,331.963220890863,-28.6483397273242,1127.12907703571,19.8358973719894,826.022576919827,0.827940888232842,373.398959315416,14.6458550996547,268.992392051232,-26.0590618736903,470.384179683636,-29.5653600836312,448.713747179264,53.5847834271463,231.581691822059,-3.07395738674977,247.331775137728,5.29040161389679,605.152765660329,-18.4367427218135,1225.56568242719,-3.14118342276202,669.23114586771,-68.4584649410493,472.464439908716,-47.4190162478524
242.586344178926,-15.6022952592669,368.889058026102,48.6050827346518,333.690884317544,-30.580404991467,1104.57796256415,23.208286826536,826.097850973186,0.493764250346015,372.046831378541,14.8985518059677,270.338870344853,-27.2857890347792,470.294915535117,-29.7371363441273,450.495352485844,52.6504025587107,227.544868589605,-2.32888058202091,244.077121606587,6.21922361437584,598.275399469661,-15.6117927367814,1220.40700260626,0.862509958844378,662.480550649952,-67.5221538073593,471.598984602658,-47.1929926873984
240.979817922729,-15.167600841951,367.798060443567,48.5979512405581,330.382236912694,-28.6944579367365,1103.50251379256,23.7391372034009,820.888565243346,2.79997367187354,370.709596246808,14.857853289903,269.563100881018,-26.8575327937388,466.946742416954,-29.0820193602136,458.800151289312,52.4643372637174,227.301438615136,-2.04673265366963,244.882148750623,5.6137587310216,606.557134127401,-22.0769885678283,1212.40689650622,2.08394112274934,660.874904778943,-66.8537231267177,470.636459447581,-47.1828810921052
242.429421702866,-15.3923728901126,367.985022583028,47.9725021694496,332.458178846048,-30.1482568012823,1117.20224574085,22.0363526668943,821.672723905219,1.71195544502008,372.268216856958,14.4823180613252,270.726723305275,-27.9659391425251,468.329315515437,-28.948942812423,456.579090580295,53.4272695032203,230.040022955163,-2.60741307934833,246.342785026487,5.64437580735061,592.004404527599,-12.754284543232,1243.0554999597,-12.4774226235145,664.939404897674,-67.4397621426829,471.498879133195,-47.2156212781905
245.372612221593,-15.9695444199483,369.036604936523,48.2410416452247,335.119103821537,-31.3695507166167,1133.73607992777,19.630219913384,826.776070348564,1.7385952284614,375.567913929381,14.375385170732,271.500862083205,-28.015830225548,473.438183428464,-30.1601808845102,449.987361319434,54.0806009195741,231.849670663793,-3.06231303417985,247.91811433598,5.23661932829136,610.315393358816,-25.1664151249935,1224.44653326606,5.69852578494634,668.601664156108,-68.1481692146087,473.225853719643,-47.5338406785639
242.550892600683,-15.7346743014448,367.685570117344,48.9012681358689,331.679407245441,-29.9009943083531,1104.41147886714,23.6850491186477,824.254502237113,2.18425617671397,372.794127805363,14.6233326157392,271.74759703729,-27.7738507331284,469.403620098112,-27.5860805677666,455.615206367581,51.9694384934719,227.877427922855,-2.47069890951328,244.336312222533,6.04791222693526,605.267764774826,-20.2649992081946,1228.34386230523,-4.17654884388348,660.283506150805,-66.2488209548483,472.077328147326,-47.3433973576156
241.099525719849,-15.1774883225809,366.442794976655,48.8729880027644,331.978014558755,-30.9757478517884,1103.00461534842,22.985440787241,823.087262169457,1.17933909741245,370.601893626525,14.9198947250057,268.476159470062,-26.7831740244702,469.159814012976,-29.7540160121925,464.097613107739,53.2856423960831,226.990862216707,-2.17308480287034,244.389125080087,5.88965942552552,605.959851747638,-20.5522011811547,1228.47022711024,-2.94111118449348,658.924329935807,-66.5005163255737,470.460166622501,-46.629458063934
243.15105023754,-15.5246722270209,366.655315934156,48.6087780875518,331.048233937187,-29.124738260076,1115.25363795962,22.3721701051811,828.057574132384,-2.84828765716031,372.445010040799,14.4972305665049,269.477919927914,-27.0526961536645,472.078640488857,-29.9535308796147,461.906171202242,53.1500101810249,228.685942030751,-2.3336644083952,246.677502978676,5.22116344327681,601.26760260558,-11.3461939447562,1230.16770643216,-5.18486878626025,662.089882544978,-67.2383221757433,470.749566235282,-46.8613068150614
246.134850966943,-16.2555898520771,367.272640630639,48.6090273295771,331.537732726041,-29.9912914118742,1131.01793219638,20.9150963944712,826.591499892281,0.535418530278218,374.753787217926,14.3409699703498,270.203000694525,-27.1449797336337,473.252087464243,-29.8855036816191,458.657605930364,50.786360150377,231.567121286008,-3.02995688978268,247.589745146075,5.4950563370595,606.003242875622,-17.8027215988175,1239.84134329364,-2.33081149684773,665.536429601641,-68.0968307617858,471.76192158444,-46.8988518187196
242.353657615646,-15.4069324419389,365.367214245998,48.9861556645832,329.823316760118,-29.007910031711,1103.49798138133,23.7760135187559,822.949305860281,1.4045403827766,371.604661544389,14.9640577451985,270.391018371436,-27.1449568564465,469.966061697472,-29.1113256809822,462.903877471877,53.0926485204445,227.61068134808,-2.49904613055615,244.439866784628,5.8456239627179,614.600155602292,-23.2083678267844,1227.39333707497,-2.83665090611903,657.40791426035,-66.456640708922,470.629415295449,-46.9498444484002
241.792020720021,-15.2497858682212,364.63971590979,48.7563853326702,328.234432665477,-29.7401496634238,1101.41955859193,24.6526162335202,812.322011919566,5.72819664895155,369.915434105999,14.7143158307302,269.261871667343,-27.4265001992057,465.537175163974,-27.0888707332906,468.740532673745,52.8685106683907,226.534337636919,-1.89722536858062,243.472262371329,6.51998046603851,607.133150879584,-24.0387309803419,1228.92470237854,-3.37997926157707,657.218181742459,-66.6365142519559,469.296943728862,-46.724692288369
243.806921528878,-15.4788089759558,363.876621344146,49.2342697563882,327.25107193246,-28.9873007967457,1115.32602790105,23.4324723572136,822.425874749616,0.402304271157952,371.590910045771,14.9580237267151,268.251773265829,-26.9247220235769,470.671239917228,-29.4416199759736,466.263892745655,52.5724563471583,228.14631001155,-1.82136021507808,245.586070890564,5.73843563997535,605.4463306497,-14.5133672566719,1227.41025749522,3.820807740482,660.014709062532,-66.8145554452258,469.084805199751,-46.5897391959188
246.759185913624,-16.1843622028542,365.578834121071,48.2108063217239,329.748003119091,-29.7799991558918,1129.59248352016,21.6661709139313,827.931206483992,0.427599337853599,374.15148405612,14.7041780297093,268.960492272416,-27.307001746275,474.385250739488,-30.563088536941,463.055184977403,51.8869914625908,230.410481627228,-2.5119404295522,247.204474787785,5.51313750889713,606.210462173688,-14.1546472514332,1247.78391512589,-6.97017377893289,663.198633884775,-67.5840848032496,470.718387749522,-47.1711221222401
242.275167933741,-15.2164680587726,364.036884587228,48.8434920217441,328.246099194732,-29.162536161091,1103.58540782657,24.8851976919076,821.64479416727,0.0596883764527982,369.829547402359,15.1993149792687,266.900783749104,-26.4016387724815,467.725264401033,-28.5055278047304,468.062897722447,52.485233970702,226.138971527913,-1.6616818664004,244.159460410774,6.03269598044122,604.92563586406,-20.5014842323264,1238.27167440313,-6.21057018772775,655.022334451068,-65.4446355828466,468.738059745223,-46.6988984768859
241.929165664116,-15.1468699208591,362.432659581436,49.1620355655454,326.285834157199,-28.0487107260502,1102.06674835584,26.3573153981723,817.096544379983,2.25640853239022,369.484726734702,14.836271122524,266.514804284928,-26.1198675130721,466.811849895481,-28.6919543395396,470.304136127696,54.265152044101,226.845362677013,-2.15096482868197,243.904028848271,6.18093513560995,602.667697571619,-16.682882411594,1238.89831956406,-5.78239640619711,655.810100364207,-66.0373974655232,467.818506477006,-46.6705048229469
244.395541161808,-15.5760754138168,363.783873261224,48.9431176845795,329.05142316308,-29.9035847836612,1117.06366875287,24.5928965122122,818.909390380269,3.58525977551286,371.416414834763,15.0326559532028,266.150220387253,-24.8134090784112,468.573574367413,-27.5807253665667,468.74349898543,52.5151808501896,228.476232469632,-2.23512839144172,244.883383119733,5.94868017720639,609.51973533372,-22.919997265333,1237.36362851085,-3.47573283625833,659.277010198447,-66.2756673205708,468.711922213687,-46.5719160209835
246.822199520359,-16.1826172447544,364.252381286053,49.0522836523909,331.44737385189,-30.6210758287516,1132.80463600698,22.7378709227256,822.121302721418,4.13865968341238,374.003151671066,14.8428926784885,269.679244054492,-27.9702806767652,473.200505903846,-29.595995151552,462.933637250182,53.3281956747564,229.557251114668,-2.16820902178516,246.493675954361,5.88209287921909,611.320348848924,-21.6123634078982,1236.74792103711,1.34822987208564,658.002031497092,-65.8455730580134,468.912505315081,-46.5232261858289
240.932515956311,-14.972033979133,361.902771158086,49.0855710577829,325.295000669479,-27.4778365006266,1094.40503504627,27.4488445831494,815.740917454102,2.83890196141302,367.769712750914,15.3405456910311,265.979024451492,-25.756633369443,463.539302977533,-27.7748582885299,475.699470247611,53.0859301105938,224.921907891638,-1.73217555594186,242.854079503896,6.42016565380655,601.85427062317,-15.8686784830302,1214.08850963369,4.64547822821816,653.30241791752,-65.2474553392165,466.769262112514,-46.1981621191072
240.747474894194,-14.7557471022601,361.363224678764,49.6081502412216,324.980395163083,-29.0687026713281,1098.52942706011,27.0756289303113,812.86410780641,5.78185660001038,366.848231195182,15.7051785501629,266.941334234801,-26.6475321881652,462.061879108754,-26.1336627660641,473.279653280069,55.299293056617,225.67116979018,-1.74183247859223,243.019760752205,6.54294555773251,601.439128186815,-15.0131769288091,1212.87757669796,5.4768934317417,654.527157694106,-65.2136509588583,466.100533956491,-46.0624276679532
243.654790275841,-15.2889407882053,362.07326948415,49.5851311541032,326.152222435953,-29.0565328949593,1113.12803949387,26.2485959489212,818.401068521582,3.38466724912758,370.111737639279,15.2874881487303,267.043899455571,-26.5781377685234,467.370298692383,-28.4180875454241,474.171100484211,51.6733161820942,227.549226769704,-2.16268536270947,244.887062834322,6.25011071237423,600.497636475484,-16.7452933692127,1226.50869651338,3.20768142168587,658.585067363023,-66.112530648772,466.565744422869,-46.1393705603428
246.73537022409,-16.0310248698156,363.069618359244,49.1033368027597,329.661549030266,-30.1058559947605,1131.87446773524,23.6192457759831,822.362018332313,3.56673543170814,373.387243912116,15.1004872409216,267.895227043388,-26.4843280449805,470.233216548345,-28.5081854914395,464.939698756635,51.5783234727861,228.932187259102,-2.21871481114688,246.550288514813,5.72067383386855,615.588044417824,-21.2031682954068,1239.48483611542,-7.10986532391272,658.815733809475,-65.8291229677125,466.972927596217,-46.0031727383496
240.692357106239,-14.685912197746,360.740718322146,49.0059017507427,323.25770383255,-28.0323394470308,1094.04604576259,28.0979798529949,814.371175820204,4.82962090124695,366.428968335631,15.7506928210402,265.230953608363,-26.2014561149186,463.637746179105,-27.1565233192525,475.367921782257,53.3221584491906,224.616250278223,-1.53933310313526,242.322174238976,6.890254419335,587.512704659628,-14.2841572687361,1211.97713768136,5.29777157178197,655.343548070746,-65.8360710289967,464.761657450217,-45.915255226218
241.727279351388,-15.1701619820103,360.877318228259,49.1565814702817,323.204107985776,-28.5073248417568,1098.90391998693,28.0477443293307,815.308201385334,2.34223778678707,367.051081867289,15.5884858666517,265.005940693208,-25.768610325272,460.342194261125,-25.8644286933401,474.157999582864,53.804032616716,224.933699794602,-1.13688794125509,242.668606046438,6.81710047761912,601.475958029957,-20.4707430643455,1204.67142374282,1.55683389146261,656.038775941334,-65.5572978771312,462.666626706141,-44.9876017630865
244.288734929449,-15.4546748915577,361.297277282664,49.4631242371503,324.253933336996,-28.1298951306888,1114.16876697259,26.545124918337,816.906576016344,2.87800495445888,369.014241305623,15.8772526278243,266.241556009277,-27.0609958689047,463.786415545866,-25.8589326518687,468.367971103208,52.8488461224338,227.141013255249,-1.74000311680707,243.892858202581,6.44559566412403,596.009257619354,-20.1075272221357,1238.59090186704,-3.55084781174589,660.834642689152,-66.3787373835926,464.947408413007,-45.8321263779953
246.061300598775,-15.7289002839226,363.473380434232,48.8376724470379,326.991830365972,-28.9749627103054,1109.90958787404,27.4577722451079,822.526728113044,2.56626309436461,369.708464419852,15.462998722001,267.12536644058,-27.3304087434945,466.233582394199,-27.1431756250465,463.819856961455,52.1948482743739,225.05831897002,-1.48071482754495,242.665901580672,6.8566931473416,597.826022360657,-16.432520555356,1214.36529451148,5.95102857564882,657.968056802452,-65.7935779950475,465.225902633471,-46.1145226356214
241.64205373521,-15.0455692217581,361.549020338357,49.9472773243873,322.613116390741,-28.1401826671988,1097.88577218081,27.8347025544953,814.036095618861,2.69308475637922,365.915349530829,16.286539618355,263.316938426206,-24.7534028577492,460.398590453901,-26.5264957213647,470.453156068439,54.3282898737462,224.419800009183,-1.35093451275351,242.414400286368,6.64376872499728,596.756943374617,-16.7730526576476,1212.922122633,4.18724472552284,656.635012545167,-65.5348477822563,462.835277304642,-45.1867396440371
242.395642411653,-14.8288168661113,362.281122727635,49.6215098403593,322.790222196576,-27.1400275636374,1105.86116441375,27.6590408207444,816.935600383355,3.56482427540028,367.019087222978,15.9299843305613,263.809037871129,-26.0448604855638,463.045404998194,-26.4463250904467,468.570695112668,55.0032019608406,226.506600736744,-1.83681666093682,242.899404582887,6.67518124587189,595.255467061992,-13.9882202530317,1219.99486921217,-1.72596477154732,660.574312630662,-65.8743491297172,462.869846773503,-45.2548533625589
245.347765924467,-15.4533345006258,363.487487841016,49.4116627830273,323.769092562699,-27.5928222753007,1120.47200399853,25.5007077726492,820.432560227476,4.4501208249872,370.25644877085,15.4388397708801,263.810891509121,-24.764096125428,464.691748309548,-26.4408003806687,463.188156832154,52.5038816577577,228.110041090168,-2.14466039356646,244.865700063093,6.34943299777097,597.950341195424,-14.9103205194223,1218.06530465732,2.16478254705919,665.021621955686,-67.2745651271673,465.027147827685,-45.7727263645588
242.202515114028,-15.2378844451821,364.708344918966,48.2944514922342,323.59945268751,-28.2198108285899,1096.57317010532,27.3567891336359,816.312901278162,4.52999091969723,365.691815833219,16.3753873441314,264.348657048199,-25.0899408205308,460.752229808914,-24.602845419099,462.791624134341,54.6521649926932,223.930996070537,-1.24493623676989,242.599030901568,6.53032741313879,596.301685703355,-18.8706573345305,1206.5590119165,0.895573499580938,659.028575968622,-66.6420221877255,462.257930347305,-45.1511001744307
240.277779990188,-14.9462980705191,362.146014902109,49.4273188075523,321.85189972223,-27.8146272450051,1089.65878245833,28.9053420880688,812.636421232834,5.60569177974113,362.833342120813,17.1591319835803,262.57948137498,-25.5581102700783,459.907383920608,-25.9398411549744,470.160773001242,54.1119281272924,223.610918028746,-1.19944734877048,241.087421291915,7.05451189044053,585.771623566547,-13.6233794270749,1206.95823443319,-2.09287010501211,658.085983592196,-65.9834863824343,461.044417807505,-45.0007442643471
242.026525939411,-14.9842646268853,363.184059792825,49.5878401883341,322.677832925543,-27.2931649404421,1100.39379062994,28.2803001310595,813.64728008613,5.18324061558428,365.532789154219,16.4774540218169,262.409346094036,-24.8972644460419,461.648426244939,-26.6707906200754,463.966098521262,55.2516501383009,225.439149442136,-1.22720256941179,241.970856199797,7.12044400894571,588.603029071872,-11.1312698990508,1192.71882953982,13.1552881988706,660.929822966999,-66.9183502366384,460.36268952383,-44.6201899691272
244.260653336704,-15.5546303335102,364.719516263756,49.0536100731326,324.528057759049,-28.5105858493917,1114.75376556487,25.3102032343079,819.508234348922,4.23028243701261,367.334563027537,16.8656044156055,264.535213253421,-25.3195724045996,466.885256068207,-28.3603355303004,460.889368788539,53.3483468420041,227.26809493084,-1.68125362117313,243.437263738808,7.11512901388608,589.565458681078,-8.01359287133608,1215.17771814337,-2.16765517469149,664.622277097596,-67.275412717238,462.70227589786,-45.2681511184778
246.429309563781,-15.7564462572564,365.493015931697,48.3617463858874,327.867036850974,-29.2510876725341,1115.10705702636,25.4493692264723,817.819434272089,5.78567487212657,368.771873384221,16.0204781447901,262.754818393784,-24.7404109672685,463.932087104358,-25.8613479086021,453.403508577184,52.8812365848443,225.077455211844,-1.29672603607289,242.253616673737,6.88290512396565,578.730019804048,-9.58151075534881,1210.84946393995,0.944890792535665,659.533580509125,-66.0990407473528,462.841414554187,-45.3647587034828
240.256774711812,-15.0608248103377,362.227588930301,49.090679612966,324.031740108452,-29.2284480931793,1089.18350492133,28.3857226996852,809.178288219384,7.48519173534933,362.156499254706,17.0692744544838,262.034651587122,-24.4088820394607,456.427998325673,-24.4280151181242,464.250688113302,52.3776327241531,223.679334048579,-1.26763294150819,241.565241166194,6.72669279087328,590.465274985631,-21.140069099575,1198.16057858619,4.07520137182143,656.375458760986,-65.7621166957913,459.530696861516,-44.7404743382237
240.67211510566,-14.8002600621599,362.394179653488,49.1869731365074,322.0475265808,-28.196136392261,1095.0679441232,27.4848906917942,811.586500364854,3.83191342005415,363.356021442028,16.9015712024144,261.672295499871,-24.4838306980707,458.293296525512,-25.2308858608056,457.485647101845,55.778160905175,224.760263135095,-1.13292717666363,241.680319060659,6.92365623690774,589.390567931604,-18.2440124837388,1187.74821370749,10.9569955146827,658.366605218254,-65.9596331760697,458.94810758556,-44.0014941732802
243.220557514802,-15.4093902168487,363.160365799087,48.7300236834093,324.479484630594,-28.2864997366269,1107.24704436915,26.5636665578706,815.445716876004,5.30351474420929,366.12253294977,16.4975130388992,264.351322403002,-26.0437055083174,460.908740731009,-25.5945456394194,455.331191198194,53.0780304254218,226.376873007294,-1.16024527682702,243.351565490404,6.78579098531724,580.791776672896,-8.33371591932921,1201.95107019891,7.34190806334577,661.278118772175,-66.5824781298912,460.798368358512,-44.6425989897475
245.659576529629,-15.8875768632133,365.151237561412,48.2027279345179,326.246983205891,-28.4868078857044,1124.47162136595,23.2192231910547,819.204939168622,5.77628859916527,369.624972034075,16.3825620148936,265.248018078608,-25.7277471789815,465.955030575387,-27.7098249083286,451.300063100979,52.8777233330648,228.673294338181,-1.81846263488127,245.440916388017,6.08181639446655,588.579077744645,-12.7505917202776,1203.08154042678,8.40461102954895,663.637754518132,-67.4152317973885,463.098438844288,-45.6305729260136
240.162710247733,-14.9541350282161,363.898191206711,48.5800123856654,324.211403485809,-28.6530292875212,1089.88359571337,27.5471444357466,811.995763315248,6.1806392871653,363.824268759534,16.5949677184021,263.625406486499,-24.730427106199,459.372435716026,-25.9826452456482,455.516563895965,54.4770711263188,224.167141268635,-1.07905849613186,241.52100146923,7.13895077331301,590.292303054294,-18.2824184257175,1177.28828746855,12.3785612273626,657.255390511105,-65.8608959312809,460.449047286042,-44.8033138854949
240.219626139584,-15.2537660976785,363.240124851383,48.7514489810681,323.688780733296,-27.0420302743463,1094.67813061349,26.7648712056663,810.394813108177,5.02534770409753,364.123861839541,16.2301024527048,262.639157437207,-25.2222710236316,456.175768368402,-24.190445286289,454.664520269293,53.8425787529325,225.035329936557,-1.25051661243732,241.842083514439,6.90755910753949,580.880190919977,-15.910982427939,1187.91411343661,7.7991672563062,658.001128622376,-66.4817219100019,461.184985219504,-45.187587113106
242.558620920937,-15.3034884261913,363.175087002877,48.8590671559026,328.560746491186,-30.1559351150753,1107.23160166912,25.7138945076056,814.727794158606,6.77359587849353,365.997547191817,17.2282820235492,265.449025879967,-25.3543812208853,460.363254764955,-25.2124430966117,448.254255521478,53.3283900239451,227.125609622941,-1.68559797786153,243.368711930376,6.67560204106225,583.268845858788,-10.452495378014,1190.45483214876,7.50715643242856,660.998868182932,-66.567092737136,462.396933988917,-45.3190073394413
245.234050809144,-16.123573930327,365.166504174728,48.316587809416,330.108770628847,-29.0843309280394,1118.68487903388,22.8856475033099,824.052887233445,4.88696674995912,368.466982794324,16.3968833478989,267.640103033302,-26.4524006852572,462.864807934579,-26.3154652376952,447.267642027903,51.0147753950244,225.937080875863,-1.58708528518694,243.027125097513,6.75438166266887,577.341262737683,-7.42177737350419,1207.324469147,4.03424003105545,659.700691037764,-66.2596296722638,464.432091698399,-45.3778009921991
238.003263167493,-14.9156305032311,364.307582847881,47.705099690477,325.376990500301,-29.0948640556068,1083.87033265426,28.2301661650023,809.72437819395,6.58012136555943,361.711979569958,17.2672897658145,265.127859868979,-25.5842847655349,456.285902432309,-24.4441145849584,452.087874671451,54.4997505434624,223.79899433129,-1.33596737334912,240.685634375165,6.9644091774076,591.323142167069,-22.7329445759072,1185.76833918307,-0.577328819625585,656.165980735041,-65.6315688513245,462.373774690439,-45.41030096732
238.803210962458,-15.1869474083623,362.58946616844,48.5279683849543,324.784751186044,-28.2761922028807,1089.86804366466,26.8394204756247,813.437232371252,4.27218203299153,362.686748555926,17.26619914402,264.985341740298,-24.7132176886613,456.504612501152,-24.732666093836,452.8267109605,53.5019491945264,224.759266872923,-1.42280349574486,241.209506011118,7.03332729696255,581.253624362529,-14.9188493406681,1179.58029534004,0.833454683041323,656.345529655744,-66.0716988913614,462.662885056912,-45.4546702956756
241.004144259593,-15.4453443410108,363.761031267362,48.2422393664479,329.698894531307,-30.6836030203059,1103.09524661392,26.0792925765791,817.973366435747,6.13409157741539,366.611725747569,16.3928432793969,266.134666722175,-25.729374880162,459.124331478258,-25.2185344383566,447.615234144923,53.0191274410781,226.871764810931,-1.83696013042192,242.595869308762,6.83489266687485,576.465520126778,-9.49753444490822,1189.52484575743,4.41333873756316,661.208935540585,-67.5397056092311,465.026726318766,-45.7899578367698
244.094101957332,-16.0890811813059,365.467819284979,47.7562237615312,330.736071201512,-29.4843737637851,1121.33846280599,23.05812631476,825.846775640623,3.30529028777266,370.326277160044,16.003428439952,267.912475707061,-26.484981006941,461.141576698127,-24.6099035946752,445.690380726414,51.8072941840915,229.748348337538,-2.31803294654472,244.819168910157,6.68451001481602,577.773147097665,-8.43722952955213,1199.88374338642,-0.302602703616275,664.801353153241,-67.7245290782779,466.563303574346,-45.9072421115171
238.04330625588,-15.1313686722488,363.319934540595,48.292411786133,327.39752682034,-29.4336451499024,1085.74335823273,26.6766462952765,812.150194646075,8.38032786347102,363.350836941166,16.7369221617416,268.047288238916,-27.1116014898686,456.292516864828,-25.2771164875397,446.451925800928,54.3783956174791,224.13088229447,-1.43470189837376,240.91221098803,6.92960722209224,588.387352971774,-13.3304042936803,1180.40772245364,5.88794700514075,656.652708707958,-66.3578723599104,464.182038994582,-45.8371845687773
237.289566777066,-15.1230909024614,362.314606748732,48.4943003190147,326.971668027575,-30.1218508674691,1085.02379776988,26.7046064941695,810.372010156214,7.98554219243815,362.341050806844,17.2908556205116,266.747151921357,-26.5875851916234,455.063595507787,-24.7503863782214,446.483968979084,53.9769431014467,224.391160348667,-1.27702121545026,240.922079960225,7.14291543158085,586.084198803544,-15.9483474721117,1184.25014162119,7.36624971928385,658.068937308594,-66.8529377450925,464.400496137004,-45.7192625234494
239.90983146359,-15.2618805975139,363.027200955629,48.3507695405113,328.189678163422,-29.642673343797,1101.70321473487,25.4719778739995,819.757333969538,4.73268873877561,366.921184278889,16.4066752116401,265.183694308406,-24.5932330420508,459.248370940758,-24.9870578723137,443.789231781252,52.6126402334132,227.395070069851,-1.74387041648256,242.477731959129,6.89078760933193,582.18259830392,-15.3603099937928,1199.21136079122,0.610209507349684,661.812783826737,-67.3025228467697,465.879019087038,-45.5169058754035
243.202854293179,-16.1197047848453,364.953569466402,47.225156754214,330.670947668794,-30.845416489669,1119.2487896445,22.4814595598634,826.343630342121,2.17353288319656,370.477727312314,16.050832965149,267.629670317544,-25.5559728566143,462.935120369879,-26.1153716168074,439.168454493138,53.6814515162587,230.208110974942,-2.22408258349547,245.476910208016,6.08602457481528,589.226858311805,-15.1166445037278,1205.29805289335,0.938775072986718,666.519968908193,-68.4482198321504,467.253271698369,-46.1395177381691
238.812966840459,-15.4244321953061,363.044817590432,48.2900587148309,328.071525259805,-29.4811739976861,1090.28897782461,25.7363964661942,819.776754438432,3.51644275604896,365.3594067965,16.7721671412228,267.685683087852,-26.4746723753352,459.131572807757,-26.1365855865084,441.748678591918,52.3706141313973,225.814508937843,-1.85373884475126,241.236308357454,7.20666133403167,583.044138248586,-8.89202604788237,1195.20866566924,5.75780618798541,660.301216839268,-66.3167074762739,465.564205908054,-45.968696930825
238.153163807316,-15.2776439506103,362.966333914111,48.8590284100969,327.909296164551,-29.9933502939861,1089.72215743675,25.6162266640312,817.564712896591,4.80586718894411,365.261578654399,16.6320199956738,267.782900977777,-26.9878827304094,458.88371888471,-25.5139228573565,442.740451327373,54.2104531170686,226.480212090635,-1.90493966406291,242.110063509343,6.76721545908658,583.976615205831,-13.2873302468727,1210.80939356238,-4.54478852851808,661.48567240474,-67.2371949587098,466.883185198696,-46.5518097948891
241.105890526252,-15.7899367334888,364.960859410449,47.9813631766149,329.669877545863,-30.361991428042,1107.62637035192,23.3856203053977,826.808810828469,2.04629985984237,368.937834724495,16.3614737381919,268.014882609144,-26.4790380695955,462.154330745833,-25.4747532922697,441.783782151897,52.6443232134638,229.007690637938,-2.27454860412274,244.431102959498,6.10700859382139,596.780954960182,-20.7274409198955,1209.16988712436,-2.52940210456799,666.386464719327,-68.2031222891608,467.379628265608,-45.9348077406122
244.080730272434,-16.4662814190322,366.908343080231,47.590394431946,331.631884809272,-30.3501595216434,1121.63219316419,21.1577547193153,831.557202191601,2.28993063347322,372.012744322546,15.7897984862189,268.569232372856,-26.1218131430132,466.64191178139,-26.9944586881375,436.730493055413,52.3187357263631,229.091495369252,-2.34862450017573,245.111937291806,6.35585732043349,579.560065159861,-9.73371180322866,1192.8441126435,9.42321583080629,665.345459552481,-68.9506261249505,468.621400282228,-46.2225975271163
238.081055883028,-15.1717795794794,364.855823985709,48.4856751854388,330.203782734882,-31.065191531593,1088.50528593468,25.7916021122334,821.943695677527,2.98111484840443,365.898244116833,16.9378321855748,267.214717862154,-25.5326926460492,458.579042465395,-24.7123146745958,442.113506651184,52.125027098978,226.862171722973,-1.73083248020086,242.157512927848,7.23883389051888,586.100806016622,-13.3475727541893,1189.4442342249,9.42159802347863,665.037675149883,-68.9220895557621,467.547987739189,-46.4568789003645
238.943496287459,-15.3775445217774,366.094941921122,48.1214208807882,329.142102263806,-30.6963535497431,1096.71938136461,24.5742150438895,829.776872373468,1.30962770048334,368.170297704141,15.939767642083,267.600885077481,-25.0283047606334,462.770695390496,-26.5412585524523,440.336838904404,53.4443119386719,228.356982153911,-2.24659504321084,243.539085013075,6.26591566093435,596.652002028386,-21.4042488377332,1212.98457592781,-3.35945508713159,668.120000037752,-69.4054609973483,467.157401480256,-45.5637601757164
242.147596528838,-16.1648350830323,367.699329740869,47.6552993211605,332.951625168487,-30.1305290430729,1113.32249832623,22.385097212599,830.90532714679,4.24189771891645,371.44232250097,16.0020000054864,268.0537992831,-26.051739463336,464.44928049175,-26.6839253222313,438.846695419935,51.8215898604382,230.680180693257,-2.55366571862676,245.860723966164,6.09441969015291,604.991217683439,-22.2295874773871,1223.71924894718,-1.86871021108734,672.513937676676,-70.2434905631133,469.863701995435,-46.9258272407999
240.533869473743,-15.7541425232675,368.02955914657,47.89646137313,332.527995201013,-31.9209282616441,1091.22362719853,24.8693314004459,829.502379521257,1.41051493484273,369.575109122063,15.8082043592677,268.532299818105,-25.8616238371774,463.089520900555,-25.3885809802169,436.382406786874,52.9174310744979,227.313818977911,-2.19888296549475,243.337729548081,6.41615941859806,585.588485744387,-16.6559873787116,1205.90118987727,-1.66470719949695,667.083752286664,-68.5389536493761,468.812933927624,-46.3719088336035
237.970068503524,-15.2511188759282,367.946536578107,47.3808505435502,331.425811923595,-31.6329797251986,1086.26435961703,25.5055310106538,828.067154984261,1.71943113888768,366.712419297992,16.4855070055239,267.47065610768,-26.2016596577433,461.96671402992,-25.8871137897028,443.200775860162,50.6334569418006,226.980703721381,-2.09961718387391,243.143906805867,6.57728833914308,587.527847462599,-13.851023173145,1212.57488191075,-2.55723881345104,666.356478836436,-68.4704484649593,467.816513521719,-46.0962055773706
239.276603620446,-15.4301021764765,367.691186287899,47.8783473690687,330.078199145747,-31.1704530252438,1099.33942267323,24.4587722672613,830.296295200789,2.54023554281408,369.404201772398,16.2084007680579,270.326728609135,-27.8023112368632,463.511936696872,-26.3079114275021,438.034031621218,52.3768683695334,229.629768106534,-2.64766877105414,244.73900736699,6.35953528056672,592.430743058228,-22.0587850420407,1218.2079674482,-0.164656532564188,670.55438839435,-69.7117567207395,468.696226404488,-46.5732424162716
242.362812123261,-15.9580962262415,369.276372633438,47.1534212740053,331.817251527546,-30.5173532890712,1115.63760690389,22.3961165336469,835.581520515841,1.81058769579658,373.117231390103,15.6475872624883,269.129280899494,-26.8850901830921,468.104437335357,-27.0251002978195,436.648673445289,52.1092745520358,231.71832237016,-2.43998519706925,247.27327721836,5.74607871526588,591.297288273626,-20.4974847850834,1221.10046166905,2.40808785386217,675.208283189459,-70.4887594903704,470.441465310466,-47.0955110096933
238.945357692441,-15.5269168952102,369.655431248233,46.6725375623887,334.22499089123,-32.2504108494041,1089.8212152127,25.1875411015708,835.135999822949,-0.176665072599918,370.289792587656,15.6120733157031,271.771424983306,-28.1596794131224,465.693363992833,-27.4255501720687,434.821901374445,52.9497304557705,228.348177537327,-2.12446240707644,243.708849985045,6.55034168427126,592.617724753299,-18.1428522982529,1223.34300867058,-5.28170203207808,667.422325023774,-68.4245703584451,469.927613140869,-47.4638806560912
237.923227293973,-15.0107584906619,367.023303118492,47.8404798015871,331.984005080815,-32.0974469902844,1089.06199095827,25.754096994938,831.754983665457,-0.660555496367096,369.205512550445,15.9287434035087,269.824335400639,-27.1915360924597,464.00377486415,-26.3065605538045,439.274555971158,50.8460324068667,228.229820685794,-1.92372208496687,244.347406855524,6.40584605287293,598.954880384735,-21.7505897205363,1227.27340314926,-2.97847981475721,668.047594408682,-69.2547013178776,469.457153631163,-47.1595833208306
