151.391885267052,2.93950198035159,708.970312864559,55.3996158849673,552.32935357951,4.64744893381947,320.461071327546,-8.09200213952002,469.768887995564,39.287754509968,732.58875332114,74.1068473933152,1183.03893556197,95.5929733471855,223.940343167137,4.84777448111282,582.584954074931,113.696332155731,407.576230180952,-1.39354629222538,1409.11937975467,59.1483353205781,92.0524480552283,1.21855304414567,46.4911254219905,0.648786508268332,284.873067669669,-45.3465085972534,409.988219726316,31.5502704108043
146.428367208712,3.41994571214747,680.521364574534,55.9671327258098,550.264532067554,-6.21845618252302,309.599172369709,-6.52884541503193,449.111447284603,37.9865087296896,705.787118697969,76.3553062963945,1154.33309083783,87.5483415239846,208.413727113565,7.77027322469477,559.881354239136,116.619952443104,392.769613420512,2.31399331568642,1337.05942559647,66.3988900247962,87.326332472962,1.78757294251943,39.1340493273471,1.05305322131962,281.16909050696,-46.3467466848094,392.54478704153,31.8594733744659
147.483729220833,3.36000013406951,698.267012822582,50.3314324718366,532.470936844895,9.84157272928307,312.491708353778,-7.00238929313227,447.450249646011,43.391130049665,716.09886152425,72.6218156217675,1159.45531978211,98.2662631135813,213.174452244087,6.79666232105607,557.054186973935,115.888349617051,396.844868318945,1.08070680110469,1360.77991902516,68.2202800757429,79.0349422372037,7.64105019317296,42.8499514392718,-3.01700674068775,275.118294547411,-46.1740215142546,401.005528078153,30.1245085516908
150.917270796081,2.91752128063415,734.543910208087,33.5348852760586,558.777810232384,-0.780841664506837,319.377045355396,-8.05433346102636,469.361155809606,39.5908358477898,729.421595335504,73.8848890744066,1189.9883877537,93.7733595054609,222.164951035761,6.04075911527284,571.00215225083,116.307459686924,402.782546154279,1.31578952292704,1400.65320592112,56.3992120367298,94.6633609011436,1.42916122800584,44.2809680832691,2.55369119309724,282.378859410547,-45.8486421060197,408.063674038672,32.1700532884007
147.641176030038,3.03702532088119,686.42691183701,62.7013182640507,550.705682759351,0.51956319203607,311.256125754224,-6.86607674901118,445.690772977117,42.5402285414782,708.237328115635,75.2337184116597,1140.18137401513,99.3910739022429,209.481143664177,7.62559794180806,559.344084121583,106.972958596879,393.254587475653,1.3992206362103,1343.83886965163,66.4027751842983,86.499955176859,3.10874659530825,40.9193638093435,-1.01308975498924,280.377848112166,-49.4234818452443,392.733915711502,33.6116921050963
148.004289232268,3.26122785391722,700.81399149743,53.951335052518,547.156343632603,-1.33681399116381,313.010627683128,-7.26601915688164,465.992465123011,34.294275188191,716.342911487635,74.3395355406412,1162.34220481871,94.7324336249319,212.728632234833,6.93939989578041,559.544625852634,116.182928038999,397.658158893483,0.788371364709078,1364.41267947728,64.9782167001469,86.0919666517739,2.56988169592894,41.6148804284959,4.05694552638912,276.987900893362,-50.3056224866273,399.271533809383,32.0959791670561
151.497579558884,2.62508684190381,722.010578560586,46.8030069258503,558.616834197281,-0.886561636458821,319.608572004408,-7.98759771262832,477.217927510873,37.5712483079766,732.072230315148,76.2841069308227,1192.19477378621,99.5823278288198,220.552750099899,7.50449397152829,579.739041524745,112.863359871689,407.670859065731,-1.30728153076138,1409.2412794108,60.2896646033267,92.8075818894381,1.7428364171468,49.1055811546904,-1.2481553470208,281.203078576416,-48.5063862783025,409.427923661177,32.8629356829555
148.372121113979,2.93327255208971,704.822704944237,50.9135168293046,550.6984505714,-0.015601385425256,312.158751538846,-6.84829497418199,460.044165933614,32.5656130469691,713.23247611508,74.0399222132548,1143.28123142958,97.883593837284,211.360205852819,7.19928752332478,563.328789189074,115.674201826425,395.92948254318,0.75072329381974,1356.15779946873,63.3687043377972,88.9872966971949,5.4897704346338,45.0512218768472,-0.702466442999772,275.779590740498,-47.30314772495,397.103546550153,31.9626372530052
148.725606439836,3.03810830574279,711.740093870932,35.8371130176986,557.446391791344,-3.94990721489934,313.81917362663,-7.38878135058728,458.04202017617,40.5836293118575,721.499137668222,73.1873719744784,1151.50206163831,100.63695140709,214.153072924691,6.86287514232935,572.111322193089,112.703552670098,399.291093653308,1.14615623779139,1369.24322495444,60.4055214897474,93.0961107165159,-1.64095487302536,42.1088245038063,2.8854989443156,287.542808398532,-55.2996294041567,402.235494584408,30.7152617996193
152.041485146426,2.66928836395059,720.929797734947,53.5860642935718,572.866702846657,-7.74514164020074,320.097415649293,-8.36252701645309,473.018951699751,36.2765642990388,736.692525087036,74.8182340552526,1185.19067765821,97.8698985267477,224.972740642352,6.27254064283276,581.680366727582,114.763583727542,407.811187978608,0.887741350482258,1421.89976442411,53.9974407905375,83.8106828067165,10.7253301699718,47.4913721478003,-2.14611454595046,285.978276841914,-52.0147161690016,412.102831331476,32.5601382452987
149.873600754974,2.90629206666781,722.380765514252,42.9689635274927,564.626192237243,1.11426891541471,314.530926511712,-8.10389870448545,461.451736548707,31.6769253637945,718.403294631404,73.2599845943261,1157.73275194353,102.119918886651,212.828554001435,6.93698271499956,570.800214797553,111.275382468095,398.089788738833,0.00283096337149423,1348.94144312316,69.2482283560413,88.4579191199219,0.0386934022493171,41.6619889431545,-1.18115773112866,273.56782968892,-44.9688778272569,397.580943400376,31.7912690159413
148.41558141058,3.17507400862828,698.155227946456,55.7697674825192,551.622012352464,-2.38158855294415,312.648531591903,-7.04768783427206,457.680058430978,37.6934980484985,716.775438356464,74.4306679918628,1161.57669523028,94.4748685676563,214.287708847502,6.9188789679621,575.629187309147,108.657742849347,397.014884293411,1.79993208262872,1355.23893158179,73.4700765528793,89.9740126998188,2.22115968388437,53.6759189258224,-7.91583472932668,283.126403551189,-48.1293122738938,400.183523381758,32.0233968664832
150.665975170018,3.12774384500347,716.259499070455,50.6076384057251,558.682010343561,1.83310810751331,318.035836965101,-7.93696344172907,474.765128063727,32.0691376213956,733.685240086662,73.0189941660941,1184.49787101817,96.3961531193026,222.644338245768,6.36354519999506,586.929929903502,111.501507000743,407.597036766676,-1.54407447596603,1399.73943830034,73.4225586786262,97.1769989870749,1.1970728878823,59.454536043469,-8.57331434626879,277.98538123076,-47.8957394675281,414.223081426851,30.3027750015072
151.319100760809,2.55384878904564,720.02991682109,56.1174240809566,561.0219953173,4.11246495639773,314.582824373045,-7.44321708306389,465.122994940967,30.0717272294247,721.334667574191,72.7790654959158,1179.5981307758,89.9612531942984,215.101299685934,6.73671920072402,562.452603600265,115.601462633729,396.134139226495,1.54744357575687,1347.49424569786,78.4252046872641,84.8404295204707,3.66459143958431,39.4736043092217,3.60042318348891,281.522813383147,-46.8395361740107,399.93486134088,30.7139494640015
148.23925121487,2.86542138588271,692.926008146012,54.76835698225,542.468692030128,7.81868147638231,312.37762187792,-7.43078386632347,456.740265473803,43.9595488793645,718.971651968567,73.5334133773977,1166.6128494803,94.7290409594477,213.705118015503,7.59098759950116,568.335972534626,112.416157898743,397.429415979136,1.90084281321119,1364.86552619872,67.9772566897145,83.3249227303079,8.91705279731057,43.7937062229094,-2.20168577448634,279.497618470684,-44.4736874030993,403.642070695074,30.232886773096
149.76927260475,3.12477545296724,720.033116495046,44.6720080023973,563.8352470108,-1.71868704645787,316.938395121911,-7.98250379687582,459.42785730182,49.2284667495989,729.34154299023,75.7040588421327,1185.70277894436,102.544007631118,222.09777104972,5.5140992336856,590.260708191878,106.89759665226,405.030846168714,0.759504297508589,1399.22942673961,65.9696652239058,91.3053221975827,6.20379570872265,46.0390076705657,-0.209577422777379,286.241215717323,-54.9450474853237,410.818204530092,31.764344447988
152.43991956935,2.70967410109609,735.744437533967,42.8131385462178,567.537262603054,-0.20558491978397,317.478778243094,-8.09266814361524,465.250269793112,37.4951412652217,731.352877842277,72.6779617981485,1195.22677025813,94.7070104419601,220.02167905483,6.75506480052291,567.997482664574,116.118682696926,399.694912252764,0.313677654954227,1368.0442131538,70.3728503335512,84.1772805106914,8.29854911300847,40.6872544543151,1.49951910166787,290.709088031584,-54.5900938710285,399.25237793923,31.2098558762857
147.952182135516,3.02637350866708,710.556784206816,45.2313492516437,549.19297755282,2.87251757746083,312.460319082602,-7.49059915868466,457.25457735005,36.199336113849,719.461999645262,75.7672456332347,1169.07016149063,94.7943694401235,215.043391453552,6.54733097971254,566.441444380005,116.12621976799,401.260988678711,-0.0942837827766182,1378.46096563926,54.5901283033219,94.5462147375532,3.88571275377558,50.2111570301698,-4.05530709994849,280.599398253067,-48.3385031021077,401.89279257143,32.2824447978497
149.83885153621,3.02801980003321,699.813857660131,59.0188482311844,568.644545567319,-4.64248836941095,316.882127384282,-8.17405042316584,481.039937104601,33.5766333971095,732.242001361338,73.2181390118181,1193.95268290227,93.0766805230457,220.924772477434,7.0501288251268,575.242617262899,117.220227172379,406.252034883253,-0.0750634023918861,1406.02558357812,61.0097153066305,96.5787355345707,2.9520734571752,45.4205664060629,-1.05733021447308,287.012037698416,-47.6098832620514,412.285302029574,30.0599226138711
151.895070009648,2.65239957244904,743.660674349592,39.751836965968,561.704049026792,0.580500186702141,315.926479386578,-7.79870163297353,474.55906708671,31.7162376932002,727.66048194653,74.7968718937208,1197.65014591111,90.5077825690177,218.898890855151,6.51203356006993,578.293426432667,112.760830946538,400.777139800207,-0.415384431428343,1363.89813540866,65.9515043248578,84.9579355551573,5.40270538441612,39.922670690228,2.33678832061377,279.316913119862,-45.928843411328,400.571213043465,30.3985707153323
148.137460846865,3.09857960299821,704.732000799999,61.3370564651496,556.98941711572,-1.83406130910643,312.921263014167,-7.56176239112894,472.960243802474,30.8780905029931,721.468576782134,75.2452639080137,1176.59318732182,98.0330624745007,216.845988938263,6.78823037561788,572.117570910767,114.442898586476,401.594470129775,-1.30044600685024,1366.33942962608,75.739713311947,88.1104887835237,5.772805275193,37.5355082859407,7.84455876077913,275.398941996195,-48.8612388038737,403.883044525277,32.120813630391
150.172647878462,2.86455234674446,721.227046289351,47.7232349934024,553.609766599092,5.88261614008272,316.930301211558,-7.54294900481993,493.335917218869,20.4894332784106,735.624827675194,73.7460215547035,1196.1681756289,97.9285100942112,224.0897073536,5.99156718714587,570.28740583235,122.134674384437,408.92839520547,-1.46291152295147,1416.78118030325,69.6963832293815,90.9567999829244,3.15953728394507,45.7156650939231,0.560322129907775,290.760062110879,-51.2906907336919,410.734880575524,34.448477619306
152.758667133866,2.60575604874576,748.790475892819,39.882583894412,567.485799565675,4.12821611278988,316.842039257229,-7.84362173839953,475.498529842715,36.8146616805478,730.451341559109,73.725669410297,1189.13031981532,102.732474175548,222.262209797586,5.01463364600782,572.521176221431,109.776087304829,401.926862561869,-0.211898556435979,1380.79099937416,60.8699797780457,91.1086981185026,3.40994871666448,37.4330554164327,3.88766510108863,281.410889210732,-47.026684372668,396.831464341091,34.1856323803646
147.707066872829,3.01790360723004,710.89968128407,47.1972232941085,550.506808591252,6.97888691799021,311.650799755407,-7.04063182555581,471.69483752296,38.1367041046406,719.21685789698,76.247296895169,1165.13947455928,105.488355932945,214.960722539406,7.11797958797354,564.176345081314,116.32929264814,397.055611672511,2.15188001297613,1393.62109205859,55.2579108526827,86.638738516678,5.27618016292302,41.0128304524926,0.132844186794895,273.536770411743,-46.9873543271332,401.87486366179,33.2690803731507
149.292422100607,3.08092312390108,719.72426706574,47.5144644350359,563.782445420919,-3.41982422678676,315.692302922145,-7.66496116887358,471.253581731313,38.5690019663077,729.977002401563,75.29220597194,1195.31865533888,90.0412705396136,223.035075651752,5.36158403475357,571.683473084735,119.286242431627,407.624329763874,-0.216992478258715,1418.64346951303,55.1828599059393,89.4830480802215,5.59612406900838,50.1945467576269,-4.33485129088986,281.744955263225,-48.798021026287,409.452239119257,32.2443350142402
152.778577013494,2.40017585487247,728.683166161867,48.2712459267643,573.514036246452,-2.39543684732777,317.87608245801,-8.3772776708784,462.342067549243,44.9418711001275,733.391476096855,75.2600072930524,1204.59355384736,102.687737301425,223.430312061679,6.13406925846532,577.557565743014,109.945800969902,400.800379618329,0.130803562651004,1370.20745340697,72.5709930303023,83.8413606501161,7.65552110983833,41.416349829192,-3.40217902218378,295.957162309205,-54.8548887851773,398.105366132736,31.5999608756925
147.026451800443,3.24219104735317,704.460652076573,47.3854436209085,551.418232416549,1.89771084554307,310.115546327619,-7.06948081386237,455.762010700842,39.9537677592625,718.947005870194,76.1791440439963,1175.72423768042,95.2620967399218,214.455679946341,7.08209264019972,564.204278759774,117.245000600473,399.699521264507,0.016869326635642,1378.90441892362,61.2711723547131,86.9715835438876,6.84712158739058,44.0206077247316,-1.46488782859245,278.875797019976,-44.844272444552,399.848858217401,32.3514685061023
148.715460146967,3.08237224960063,712.525094345367,52.7357694598021,559.4042284395,0.128080214913335,314.179821968202,-7.49886787212905,472.504019714563,34.1211315071895,729.090094125439,74.1231427923916,1183.55044531246,96.2703452664198,219.619782581676,6.3195212632534,574.452472095323,113.796415146099,405.740141519421,-1.39522396229761,1403.47446364812,58.0846358971163,89.8418800074915,2.39309196307695,51.0350375158511,-5.51302106330296,280.841605566793,-46.9369654862317,407.531785752953,32.3714526822919
151.90058146291,2.80740081591328,742.126767361952,45.6604912251508,558.058177341648,3.90667381511544,319.752577509451,-8.30848340324157,484.741544605158,39.4942756036859,738.724145885034,76.3090937367933,1214.29344382557,101.830619963618,228.147659820053,5.31179122661559,582.077576162526,116.63746097452,404.790293037648,0.477496147029903,1412.1521827512,56.6742811924208,87.6236807561174,2.96916401178476,43.3003107564866,1.38115315753673,287.461538719158,-58.8622781543054,401.78107052964,31.3976410221032
146.839674727352,3.4898707255662,689.788202985914,60.3382387616941,552.538102007904,-2.02820072742058,310.335210924148,-6.74736061036121,452.55590944469,37.921275248556,717.658544760503,75.7609700145498,1167.1794270792,104.899086841167,214.492985705927,7.6278723582699,556.543830096837,122.662147703619,399.117024154098,0.450046826822812,1367.64567415455,68.2432620723469,95.1285703053263,-2.67891641808812,42.576666862098,2.0056095656337,269.102306527305,-37.8723688403523,397.958710063806,33.4186190274997
148.0878331176,3.23589349206093,723.554609478328,39.8835303343571,556.369185674375,-1.79004135136482,313.150096624841,-7.49204940131,466.714882080411,36.1191293108394,726.498631986874,74.9591731363294,1175.7307064125,94.933918785528,217.477780960754,7.35022288691561,568.752376695071,115.532055813369,403.909942768551,0.0932954374348251,1413.42261417772,59.2456712790583,86.3647288787606,9.02773166723486,49.8884127250213,-4.3445039813609,277.397304384314,-45.9201532025258,407.925900911379,32.033509957486
151.500450868224,3.00398891298402,728.748583664889,55.2724213351341,561.138281828868,0.607310231330496,319.62274023558,-8.26462804914604,486.151139456674,28.9417688091915,741.074116572139,75.1149323586151,1212.656545832,94.646846860459,226.11055412858,6.2293244212004,566.68334249378,125.000768381004,405.798103892797,0.0968494534510139,1408.95883455609,58.2415842791248,93.5785642082553,4.23215570580525,38.7533296413405,3.23934988683171,277.889629307065,-44.8697701311748,402.548631832731,31.0092623707361
147.267998159848,3.28635548547456,706.414024392824,50.3790787103038,550.537190533881,1.4997895915772,310.830453831431,-6.94882075571513,466.803498117403,32.2461465212704,716.269403330673,78.9077365241227,1173.20670954804,99.8327304022462,216.150141982952,5.98945304383458,565.944911207915,117.542887448543,399.322051465238,0.149891548388082,1374.98641433733,64.8042923618987,87.7886592713781,4.78586167902444,47.2683224503631,-2.81201038633466,290.2870143599,-47.4598144073686,401.235473640501,31.5026218886848
148.653853850031,3.23831753905672,710.606399815284,49.6686514770172,563.374580116304,-5.46436207128143,313.963079113466,-7.44672947962141,469.164140983991,38.6476472124266,722.594114312754,77.094163115046,1187.24333701886,98.6328873570288,220.366775700843,5.75482257925151,573.990730164708,114.434034210942,403.900918880253,-0.401611360861131,1395.97947890946,67.0718144081121,93.3654179251816,-0.676188836733168,48.910372983305,-0.43850599639603,289.869497854987,-52.5652786415921,407.243869459329,31.2714961635862
152.087265040881,2.81833856029414,744.36958831672,40.3323939229884,566.262360446825,-3.60290371534199,321.064493735425,-8.54502646351681,490.473705688412,28.7658831682038,743.369319208899,75.1156060597078,1217.36322788604,95.9432098275858,228.431577002883,6.40497205752155,585.235860035927,108.404779527591,411.772294326141,-1.37282460016463,1420.64093907721,65.7279320937054,94.8758502625094,3.00036011688966,37.6298938255253,0.893073375483576,283.779033622585,-44.0128749211679,408.47623362998,31.1171033332469
146.555391224672,3.68711945347055,704.929667526443,49.0170394705171,551.878230045209,4.30075185024623,310.232784552938,-7.09920341139308,458.663839837765,36.8582296180497,716.190213681991,75.59118130375,1152.04087206619,101.819660294301,213.449343909,6.96408061413297,570.595472733682,108.072404999078,401.149511690712,-1.2940267961467,1364.97872540029,64.9300217157179,80.2225233535946,8.62161883707972,41.3186122336097,1.42453418520075,274.813940268734,-45.0235425656639,399.311124453204,31.8195367311306
148.383387364887,3.14322462194446,703.525941565495,52.7936065249312,566.058566666991,-4.0973601690054,312.581591214548,-6.89260872724389,461.608345300916,43.3517509558137,721.737946741686,74.6079927046995,1172.1401381428,102.785232817776,217.373353971687,6.9112845603683,561.030510494274,120.773737670008,401.432097316775,0.852708283634296,1366.27833005022,74.3133960318286,96.2297015281464,-2.36718575186455,45.8895477958784,-1.11561886083528,286.311043795439,-52.7262299306985,406.546698781544,30.9947737308203
151.883026845469,2.76586883309231,722.776740457202,50.5588103068909,554.062191803491,5.11701945192646,320.178932455256,-8.52065327929682,477.207169188149,32.0528853851957,738.127360713615,75.7170319177304,1201.43882060749,98.8640846386865,226.598953257338,4.78427321987652,582.238345022717,117.773803148373,409.505907682566,0.414460521504353,1423.54521130678,64.7874326840258,93.0206340896815,7.44243347699201,42.3533122918156,0.021294105720018,285.177019049127,-49.8976439485501,413.765775169566,31.9615693163388
146.283917929412,3.47607902913604,695.113571432307,49.103251607304,549.031837182095,5.56751385651143,309.575182949235,-6.7699816586067,454.417885965205,38.8807940440398,709.90199502916,77.9932816857559,1152.50067234792,103.594506260108,212.658795266285,6.90246799784973,554.745016980537,123.193025875197,396.647252309159,1.0974257784321,1355.73451647868,68.7681152073695,83.5324159071881,4.59379718227213,39.8639249113331,-0.0597084195715403,276.606751339968,-46.9741026840606,398.289949436908,33.3513982476191
147.97245347099,3.29318681437151,718.885026374096,34.5643302927455,554.640609902955,5.55688407563582,311.899125447979,-6.67350856009931,470.654399322717,34.2132179562192,718.469980866727,76.8268034145579,1166.45964782065,98.6241773490569,216.243835484898,7.18549498935398,562.867366585507,119.174310127307,401.653141742454,-0.337631689343812,1388.86160035309,60.8604598008637,84.6774164710663,4.85641192839191,47.1602555628446,-1.90189610700033,281.077561416966,-52.4829342553344,399.061178196049,35.0217484149499
151.348382033642,3.09213790701863,729.109447870145,41.4019485524658,553.199252760526,4.62357889952379,319.546095150153,-8.11243189531856,464.928755573004,45.2048423984811,736.485380542209,74.8722740337709,1197.05152486466,105.972794055883,224.589395230325,5.75849577819182,583.995570495726,114.02920207156,409.263198871308,-1.19792825023442,1412.4849916045,69.0263022976045,95.6217394410744,-1.92892403162066,47.4912988389231,-1.62964405796713,279.123627044053,-49.5858381120936,414.883580685138,30.8917612180944
147.080630237466,3.38512306721097,712.577793784629,37.0681708149539,544.912438963099,4.88770218715057,310.335856338775,-6.79545123736931,464.240547636251,35.6866140318132,714.178102630501,75.2610034128212,1145.85224567737,108.549075996246,211.906857283664,7.96297023006415,554.212513451087,120.642690727446,397.94612755839,1.21767485319812,1361.85730512059,73.3818205870337,82.600447358843,4.16828370011548,48.9241519298843,-4.44353508867423,275.51293065541,-50.9801838095786,399.311085822016,32.0882777582394
148.353703360624,3.23370285565431,714.127972728218,45.1057940345859,553.137464766808,2.40129520432054,312.51131273487,-6.9900565649712,455.582757622835,37.3477632729162,720.865091062174,74.3251549835157,1173.28384348689,90.1693902712385,214.703518961869,6.92417779457234,557.894462844897,121.951389629816,400.268367771916,0.581157800113322,1376.8412649664,67.4578919393002,91.9740917180605,4.56328702403032,43.8644224165266,-1.79031838271902,271.663907347912,-50.5075175083463,403.46140288945,31.9491112517988
151.668791914478,3.04284850396956,724.041018364502,51.9704795250823,558.897805639685,2.7216588440619,319.622704179422,-8.23634928007606,479.279322257756,33.9968871067016,740.670077787954,74.1413126241816,1210.62218867867,101.563939095555,225.396703926925,5.38893975624206,596.417265720226,108.97953935134,410.374138706708,-0.910543433977007,1412.20315396045,66.6339619351503,90.1456792282403,2.6113184690215,51.6707513478696,-6.27048547818052,282.028756661536,-46.7735037753048,413.602119236067,32.635997047358
147.871898715887,3.01004970167573,681.53775481508,65.4479683280156,543.231663201985,7.46517304252775,311.134887895298,-6.83271218879727,457.695737566564,39.8843260015996,718.328580658526,75.3795369615844,1167.98164537232,97.2623244781111,213.462966718899,5.8023561709023,573.654139481769,110.044352471559,397.732439160559,1.65500910903943,1360.05136824073,70.4923950032282,88.1378144568879,1.43859971519491,43.9298335706745,-0.707751280269944,280.873678978491,-51.9689435058026,401.165734289043,31.8734974469746
149.383485726732,3.13866984334462,717.462390543046,39.1325518767278,553.304224169269,2.49221888790958,314.027543520642,-7.51735328081941,463.016684838474,40.6513807938572,725.707782090752,73.7422656336951,1185.21870510748,94.5265616033324,215.497015787821,8.4991858931909,573.485864761839,113.226645756246,403.420453938466,-0.226806797841244,1361.4256146929,79.6802379933095,87.6193261287965,4.78657137260554,49.6948094774166,-5.10012831034105,282.80751479798,-55.1612591587032,402.41330964701,34.1611885963816
152.615872203715,2.99027054540178,719.105513931488,49.7877714915667,563.19610811179,-2.50335359899991,321.329066913263,-8.22355473206087,485.183076101256,35.2395868174836,744.826768486052,73.4476822942204,1218.5970474712,90.4196528020701,227.057982013788,6.14300376509109,577.689664069787,123.388407102915,411.510898985291,-0.564642700475403,1413.37166078259,74.1449440870581,95.1092559788939,1.97541302312126,45.1871217346184,-0.4815981298944,277.772303226955,-44.6141982411644,415.888980511933,32.4046457692492
148.716193472363,2.96001996252356,703.107419504658,54.0509156252053,547.991516725554,3.75235993424662,312.683674030272,-7.79885963522918,467.436051131436,32.7994234825394,719.884082919909,75.5625666462583,1161.80590219237,108.831439069246,213.648691515132,6.49836916765768,560.372811399545,117.08773105622,399.95816620975,-0.0588253414904826,1350.91536478289,78.0297554395229,86.7719502307088,6.68760050953319,46.9212051935417,-1.87395856838882,284.340212370764,-53.1379646147185,396.480448378345,34.9867084257579
149.014902256211,3.12473937584525,710.785797255354,43.3825179047398,545.229160093765,9.32818909984647,313.731693127084,-7.59720706493603,457.21765692329,47.665457587941,722.872906710097,74.9534867655695,1170.03435610615,101.696780293772,215.649644136134,7.18702172098624,565.346671402305,117.392805830992,401.446773281923,1.32115477826709,1373.9880622824,73.4380019991808,79.5941071017919,9.49454131691694,41.0177661379388,0.813431485066285,281.156363610788,-48.7592073108504,404.974045351029,31.8412418708053
151.959686497742,3.00325847711438,715.68016817121,48.9389329109755,558.606038897615,0.838144578099676,320.047821909838,-8.22865570339443,483.936014567264,36.9464527722534,738.206471840092,74.672018682342,1188.09126242257,105.163067987333,226.832139016279,4.93177184995562,589.916573771419,109.235911160187,410.281058500348,-0.719301630782272,1416.662663877,70.9800874911111,90.9947890158568,5.45112848360686,41.7735428852149,4.11969855059106,274.121796991477,-38.8962193875886,415.421895646195,31.5191234546028
148.837144013909,3.32524091774746,719.076207537547,47.7958867779295,558.989021728695,1.02789897746003,312.736258399647,-7.31543537791561,462.696137067388,36.8451297411521,720.543979114041,73.9105711758244,1179.40375883827,93.9113874110124,213.372177504973,7.08698164470829,560.200364214203,114.608617509811,398.794558608919,0.393674561826408,1346.91669875697,69.4900297912156,89.4368951464417,3.25943097780392,41.1296611201282,2.18661342946784,268.713020034581,-39.1043013502604,397.355151297994,32.7710398823852
148.38701980082,3.17672852222223,705.489222208434,55.0532181853412,548.74917373604,1.05168069062909,311.498937416088,-6.88202172089266,468.376671879231,36.1820154541137,717.778896207533,75.9944163161363,1174.07387249822,100.513689549959,214.176254925542,7.32129637310884,565.004121733781,116.277407828942,398.754722032691,1.17019702507403,1368.30024439286,67.6427018973193,78.643492038884,10.5292889311717,42.43958993847,-3.41948072382643,267.56009681041,-48.2572262127757,396.970040293512,35.3025565281049
150.641330938335,3.07072051380572,719.763759509959,48.9770293279529,562.306121136241,3.6497432833898,318.105809711483,-7.92181147440268,477.590333366453,36.1942254590769,732.247859054436,75.5706115053568,1191.23531335016,103.640396401033,222.203615638449,6.61123071117069,581.00930098839,116.202879725726,409.179143805039,-0.459996897064562,1409.91731733585,70.2742378259268,89.3225522537492,7.62109170160287,42.9648957843484,1.79039406166125,279.299833081958,-48.9144674603149,410.886003539345,33.427161324263
150.865490581546,2.80668934150776,713.190888934577,46.8046596270615,566.837074599872,-3.56964622847062,314.02383684759,-7.38543721894884,469.345798674902,34.9440918062564,719.077277498467,76.4309716310004,1177.31886204008,98.2379338864163,213.90371776364,7.91583549344471,582.576681859353,105.010405737542,397.041043005758,2.21772898281362,1358.76915130039,64.7671543307868,89.5811203883111,4.23428874433487,43.0957106108519,0.977233570651536,270.072688648088,-43.1260353648497,399.788304305875,31.140219525374
148.273205589194,3.26155942783829,701.56832028449,45.5949709347175,546.650815979905,7.28606446349293,311.849624461622,-7.02358490018901,450.072978160379,44.539378079917,720.023265960922,74.7227294956062,1178.16774227772,90.4370796597891,215.936432771191,6.42068325158524,557.522037913171,122.759535034393,401.51414419955,-0.155740404963442,1380.55360105579,65.0771737024223,81.1875675514425,7.2940877296108,35.0817812354126,3.94855923294944,276.597580869525,-52.7194831137356,399.278786762576,33.169212141181
150.114515368735,3.32199800398307,723.666723163597,45.5374021446409,556.127191328344,0.791807648916211,317.342521066042,-7.79489183298212,482.113073294085,33.2908919594972,729.340402808324,76.2355681675116,1182.52605318023,97.8308341260282,220.445118521339,7.27845360908181,585.640538752766,111.745531542656,409.297622597244,-1.51103051704334,1410.06392561953,61.0075338879155,93.1652304219298,3.13294325112873,46.9581779187091,1.61121125069715,285.008502964207,-51.229965959561,408.514371556861,32.894418575537
151.69713405452,2.65868252909191,709.429729609782,55.0568611974158,558.371597561861,2.64333696046564,314.981154272753,-7.43781614263056,472.977075692593,30.3174165413962,722.839758679253,74.3171248769959,1165.02829632982,112.536859221349,216.770296920234,6.36400716378196,572.083379496314,113.08480869212,400.119268846288,0.0922866204239943,1359.24425715078,74.1288800821756,84.8051232625899,4.93092662983909,37.7057647837972,1.08414775005656,272.441971530482,-43.6004117762504,393.507699519587,33.122806852895
148.574030089852,3.20752093313239,702.295951543735,47.2780207611883,547.251411972533,0.93690946963512,312.503722212434,-7.02191956924268,470.359682261586,31.679408539402,722.623334518701,73.6799674182013,1157.45052827598,107.664691189328,214.574676045704,7.29709031725615,555.453002578711,127.984222561815,400.198436885477,0.307278748119322,1358.97709358535,75.7254489946377,86.7813035338377,4.2217415201325,49.8302388840677,-3.48629254111792,268.536010873203,-38.3678805711312,396.82612767311,34.2498306302516
150.338320422499,3.26489983373232,716.962988130826,45.0654755116614,557.004855694479,6.59888631224128,317.691195680248,-7.82467622029888,489.030916366457,23.3634623812692,733.348964668468,74.1248017091733,1189.85816409056,100.224179387104,220.662126847196,7.98408010879946,576.972778946457,119.685805762367,409.325176484052,-0.459734456977214,1413.79717540807,65.9043923968879,85.802760355828,6.5444182151864,41.6763558471397,-0.12637114481519,275.332765018841,-45.868879135444,410.90074030552,32.4021871217811
150.060997797466,3.08286659007201,711.972582391056,48.353891183586,557.695075621166,1.18478437792334,313.529805392135,-7.44461088104042,454.559277210831,34.7557750872562,717.324701277109,74.4747298820598,1174.11497049273,99.3771523855002,212.701884712432,7.55523437302341,570.662772004928,113.017427464953,397.411168677597,0.798785235718748,1346.20042355056,73.360578425484,91.267898757314,5.81293493727254,46.2666831640415,-2.82372476152194,276.758524575421,-49.9631839674094,394.400118282048,33.4323705817162
148.438227627483,3.36835844812925,691.651303112484,57.2199695178159,549.922422199989,9.79415365799392,312.659967602743,-6.99863529637329,453.299148758874,44.9789730838507,719.430004885496,74.6813553541992,1163.31761372451,100.968158130027,214.338275549844,7.46753167364827,563.627371696061,121.308395708809,401.20259301071,-0.488188399180953,1378.62120209022,59.1336015493512,87.1720988726644,5.29580724196377,43.8839676453354,0.0281503006676336,270.794698237382,-46.7336850824302,401.259401003816,31.8534175453695
150.969779379182,3.03382385385692,727.366657997556,49.1985524678338,550.761624073629,7.91994018991735,318.282934511912,-7.64633828325442,480.800897008078,31.8467369794641,729.240870439782,78.8923551435077,1191.38998952792,99.7723711887232,221.368066208569,6.86406420363839,580.514000473356,118.050549765008,407.845128365078,-0.737197896890095,1418.95131632046,58.8400525857708,93.4299508311961,1.1145690822626,52.4024804541641,-0.649982643405908,268.804291115047,-37.9722510315816,407.359993195037,33.5079146864722
149.890610416581,2.93593638609621,709.65487886766,53.7181754822288,555.995845423109,-1.1568101191993,312.929439325155,-6.83702956301723,449.157593407175,39.5357313219239,716.504535698062,74.8519334348608,1148.53755253088,106.927910635771,212.382436134248,8.23632561237389,557.031445642998,121.2053502296,398.02172552305,0.400491627675103,1361.2157338945,66.0809575562008,87.255285175624,3.89655646341786,39.7343806753577,2.33514105741045,274.514530497715,-53.6216990425844,393.406945546331,32.4581484988086
147.314277509336,3.85355831920576,697.330718260611,48.0924392446746,537.72639185554,4.28711248532011,311.711484962434,-7.04597354186899,454.4124786608,39.8715476330268,716.238000281871,75.0750525037641,1170.61433463536,96.9114621890474,212.201765929894,7.52828674199392,560.583020213179,118.523516795902,397.634726765842,1.57959970187779,1360.70662393658,71.1133285645019,87.9134652971451,5.44764979772358,45.2958433356205,-0.631010113859373,267.972601330165,-47.0181027176034,398.282427309829,32.2945860710928
150.345013010531,3.07026812347616,713.10812425004,54.8967814281861,555.599795548003,-2.1631945701463,318.207079099951,-8.08690180960283,471.697377153967,32.1166184941468,727.214492101037,75.6163397955275,1181.834730346,106.108165428246,221.863937117682,5.06452592739773,576.737907250719,114.687731099328,405.728976422051,0.464110192371545,1403.71804776544,61.7656014492027,89.4690391247093,5.48472113248945,41.8753793338777,3.63725843581858,288.987969494008,-55.5382407835703,403.786550853516,33.6471170899436
150.280727794316,3.08049691046005,726.906847150842,44.8033377040132,546.304630071517,6.72489014746095,314.151473947534,-7.3875947301287,462.996936446482,36.3574983919752,715.357563572887,75.3032599294772,1162.61083267652,101.409640164752,211.984965351134,7.58412760080973,557.43651353714,117.574089580051,398.289147001774,0.101981633803097,1349.44145086534,72.3069237167464,85.3495505473678,5.97406016842256,39.5602343523781,0.541072715129542,278.990933151294,-51.9301108167901,392.800031479066,31.6617525288062
147.624539452857,3.25346070125624,681.54548323023,60.8944107852976,541.67784747727,3.73536728277282,311.598034579283,-6.92727001774278,463.485302062182,30.2182261244615,708.957252227411,76.3495919171157,1133.08066522923,110.265857095222,212.513000841973,6.80004479643036,554.000098241786,123.992463623663,394.539377629162,2.885930306824,1351.8079256008,71.3057779426957,84.0083475711318,3.41859543828214,45.0172571630492,3.52908513101868,269.576502080092,-45.4353049324421,393.197568031361,34.083035674912
149.100663780417,3.3381717972672,713.813765506236,48.291325090903,543.608635855389,7.07683233944982,316.088516438297,-7.09413793177047,481.022616237069,28.31028663145,725.00594380659,73.5998880692948,1182.66115142036,96.5376615643939,218.596735711431,6.69678540399984,576.260629323911,120.574495115176,404.453731828668,0.275518295736211,1397.43014516745,65.0505735982041,86.6546269041038,5.58610691179633,46.2552096563474,-1.5398247093238,273.500151733749,-47.391011866582,403.461208327543,33.1604786927287
151.981058430425,3.00078341874614,710.102263059858,56.8541434023207,555.426038679317,6.77407605789151,316.679539821209,-7.48508853603593,474.164682117794,33.6429345321596,720.928153777675,76.2857235141177,1179.79658581233,108.758231428725,217.409264204283,7.14738114908971,569.613786973406,120.520004434689,396.483822859343,2.17609380264371,1354.66225616211,72.6602171449084,82.3533899125747,4.51832698788207,33.9509043261233,6.65458058096013,274.96047164016,-46.1555409402906,392.261286351923,32.4392917885281
147.542570889319,3.38938251681231,689.930866225434,48.4196919845894,536.818461289113,7.28354210377069,312.065134744824,-6.93767721367854,463.381718664013,33.6327436225649,713.44654925338,75.582879022844,1165.31572510052,98.5631938235092,212.610128018195,8.15506443137509,565.739936626299,110.995007786133,397.423217657743,0.0659863985020431,1351.39463770271,72.3358062122497,87.8626484162949,1.21501207520375,42.9330253651869,-0.283255857864806,272.717469221064,-42.432924727602,396.009832997748,32.0203689519351
149.277349585802,3.50389952419803,712.520891155043,44.3375866086686,547.612373730443,5.20007214001935,317.096364002535,-7.82092992053748,460.6159732725,38.0406716267455,721.507848364648,76.6669008557195,1168.11878850372,96.2900215716785,219.228090467207,6.79128980342942,567.191710612094,122.92313899384,401.448439377112,2.20478132323716,1388.14760874415,72.3853177236507,91.819411150371,0.42030191077262,41.0715976299483,2.40319953799557,276.305149417978,-50.2045474484545,401.22715127288,33.750994721112
152.155920022146,2.97503559629191,721.512469098169,47.311078184166,554.680309357826,1.58071653179949,318.317302683639,-8.12171725385861,460.34671315587,41.2287431732052,720.478959855967,74.7978583922425,1176.42339418097,105.036064106551,217.670638250818,7.2459054608057,555.809615564054,126.170305567319,398.420603533485,1.09304450561886,1351.09482343684,75.694718838168,83.8511373155661,4.77079313662261,38.0502777424184,3.83896139668334,263.45302056591,-41.548655313212,393.273343785639,33.0094718498199
148.240331632383,3.34943624935267,704.890860706251,46.5130290105642,540.356910933378,6.49509336562494,313.488966239096,-7.1052141250783,449.333036936697,44.8580045665096,714.348567107754,76.5543279901573,1149.20612475075,109.43305393132,214.88369956157,7.12276373189743,569.717252939593,114.182409952957,399.734368344563,-0.800060184429562,1351.82336542615,78.2891526014859,88.4485477817856,3.23920731454942,43.7352386570264,-1.83553564435823,270.697622405991,-48.5332223796315,393.817621327273,33.3048637300222
150.39621742413,3.31488527353471,711.825046510727,46.664608040647,553.511252227099,3.96271502808599,318.550149059855,-7.68914107293235,462.867541821263,42.9712361369416,724.966940314778,76.2347909845626,1178.89778781729,98.4383213696366,219.449561709574,7.02313020684054,573.007458237106,118.940074455859,405.417924013685,-0.317203144874244,1402.08470321288,67.5561624651656,96.4728319588276,1.26754773100489,44.7569192589523,-1.27427160617863,270.322137572311,-41.2900302326936,405.225579991969,32.8402571354622
151.663066975266,3.00251931561525,719.628824857792,46.3107226574147,561.487217952987,0.0610340645834412,316.488437307403,-7.4046824923437,466.759337654104,31.2852597280671,716.674518659699,77.1326763252174,1176.00826814546,101.006855212918,216.012344453867,7.41552313249489,564.370395442563,115.64424254622,398.398073340606,-0.00111151095817078,1358.0083710676,65.0699715254582,75.1101481764572,8.54866142040282,40.9781183615576,-1.01610626324587,277.171938427129,-54.029606974076,395.051823324192,31.4750000209082
148.183991155526,3.5339910321384,687.327714656333,59.5198156386128,534.577063706441,8.55003893835153,313.738734263491,-7.3001931846733,467.253791706237,33.1760015079738,713.308383473222,76.6911904419936,1149.78494459105,107.939273453008,212.650159314098,7.595954143121,571.354510891811,111.798217063407,398.197568627273,0.817302699526891,1363.47818164873,72.2596708383786,89.2099514161235,3.62309675782854,40.0699918100331,1.52847898575027,278.981526917063,-46.0381159674142,392.991800674796,33.7274390894994
150.345558832216,3.15264746280338,707.399518161409,52.0316734271244,548.544117718157,0.735288168712822,319.083475146055,-7.75551420722264,466.724938002687,41.7719096500618,726.186937242573,76.4474742075947,1164.24130237291,112.980005090382,219.267404628306,7.98354695525781,557.859715266779,128.495230078946,406.493836182059,-0.580565799711903,1409.47124999044,67.2120495453189,92.5649096620961,0.88668599427149,46.237440381197,-3.49520384985564,269.983931093644,-46.8594951316834,405.539712700854,32.9966590029588
152.470158510225,2.82204292561872,711.43467367655,53.4641971787367,564.908557961946,-3.11306808137621,317.379764335756,-7.78438136899567,465.106507863235,34.0342513380889,717.396335014186,75.3651316030222,1169.43218083851,104.028197222849,217.983487277067,6.16064304708,565.443869587916,118.264679168361,396.913731778991,0.915600775275869,1349.28144718129,72.7095022675832,83.4678757813381,6.78293191727136,51.11291279692,-3.92468275326405,289.218362105104,-52.4038365278503,391.128552816778,33.7806166517882
147.511576412965,3.57630597240657,691.474648444952,56.2896634622642,548.28644054379,4.76988992812014,312.423899233412,-7.00712209141549,440.288283032222,50.0334016103586,706.706293844102,79.7492753526543,1146.44751917557,107.762593149912,212.58467507956,7.13929091447431,557.648434222899,116.988696781771,396.746509875264,1.39541944995836,1354.29916591374,63.8858536312317,84.0902286378192,6.37596920457707,47.186364326615,-0.712698054720397,267.213437958271,-50.3955594136654,390.734908447911,35.5562342636632
149.280849116974,3.34468648649356,701.653587268326,47.4106737113748,546.556874959171,6.20898353338858,317.144400665038,-7.56224623294836,465.402477844809,38.8904550709735,719.484772080621,77.6836361772598,1165.34468820965,103.599686553277,219.015628149773,6.2262923148623,569.689290628302,121.81963734295,400.584693494336,1.59012583146695,1399.97059205007,61.8794770344906,96.543633927572,0.580259594954038,41.0133685207084,3.66265846402928,262.188002743066,-36.9984565100631,403.316288322783,32.221890096589
152.2766436,2.75869988945388,726.097962252699,44.6306213641027,552.292054467892,2.41797164949681,317.505219388203,-7.76374807037248,460.49794965982,38.009869743913,720.073950702745,74.4352006682092,1183.68923781637,94.0138239721921,215.262829420321,8.4990887287959,556.184539727994,121.857275447258,396.637216677408,1.28804403471861,1359.12018438675,67.3264283943443,90.2529149323722,2.26549834757814,40.1695603692547,0.732014991429135,264.430264203588,-43.7860781697345,386.947237646163,34.8903999826761
147.068708205162,3.47475961327505,687.662493431404,50.9221664339158,537.125781248266,3.94531014191968,311.504758317537,-6.75839361496047,449.425141821949,42.8538561604542,708.677701573181,77.8466722693308,1148.504946668,101.50415095649,211.308981534156,7.58006170378983,564.946864076742,117.787847389466,396.250046810606,0.527584280779497,1347.62567864493,73.2389370900863,93.0651468751436,1.33175031600584,38.9144442000158,-0.15043818135806,267.754665164025,-54.0172837920533,391.044352406289,33.439884428547
149.012839534177,3.13627751065606,687.622546156742,57.6884822148004,548.741572715731,2.20111245457849,315.772574939729,-7.2361150384916,466.918551489566,34.6698171140866,717.673421496025,77.9661497693237,1163.36831885482,100.552066352229,217.874138186028,6.40367236348554,574.887497730271,112.554735712009,400.280906890807,1.39291720789822,1396.16433776835,59.4155462060443,89.5209778505111,5.31568137019359,36.152169615718,4.05533791532618,273.668849006988,-50.6726025486599,400.657252123803,32.8323146182554
151.700778914407,3.10210442171573,715.748144827904,48.0574332022267,545.019006588731,11.0995555322407,318.191434165587,-7.87435649111056,460.975253345807,41.4567787728321,719.954354408147,78.57830609718,1170.58081439482,110.019413344212,219.372108780253,6.59267808386882,572.531601103356,115.421250905387,397.438730018107,1.26382554663511,1365.35376605845,66.8742917293816,84.4659422652309,6.98726617657354,45.228553979672,-0.112922498299421,273.078612662784,-49.4985313581337,386.080465194285,35.4100672379323
147.095301255854,3.53104546097932,686.42855760023,54.1448343254132,546.144148238944,-2.81822153995926,312.544267562523,-7.16215736831864,438.845873936671,42.8343086082285,709.478947876613,75.1983911170655,1135.38159271318,114.616597585846,211.938111640882,7.83928591978185,575.391903592452,113.970881065755,393.602484649965,2.14300453756783,1363.25962976005,63.9191841740491,84.9287440271698,1.62040667129149,41.0161198988936,-0.781829408932436,266.367947428809,-41.6937210536608,390.090261557741,33.5945084955931
148.975714259379,3.2760095736947,692.657929169803,54.8283921354584,537.784172636421,9.91424851821656,316.665047054687,-7.81188958308676,456.341058849735,38.0882000234683,719.384029530256,76.5271325734953,1151.42231786139,110.855599124739,219.455526652947,5.43602985496122,575.126356145766,117.315390070856,400.837370082151,0.56554882353884,1379.52562622565,78.1268085834287,88.8535813402718,6.57395538290362,42.4749909434262,-0.282342045966734,267.937455281599,-44.5939661884158,398.573272962703,33.5405426943363
151.086805444687,2.78962150680085,692.236586382586,64.347506781071,555.439679285739,0.868006909209972,315.024469263411,-7.42534657895719,451.750040189538,43.6932024170169,710.668631624806,77.0683080449885,1158.47734437234,102.092361711103,211.781421732352,7.83591094819251,567.497906980524,115.134136433026,394.976764007216,1.28397873037366,1330.24947313614,82.2021051463093,89.8073467719392,1.78730402135324,41.0850111106802,-3.02019454619084,264.611722382355,-42.759868989285,386.770984541148,34.1198301314845
147.596553120494,3.25917380717242,692.185711626063,47.14342961438,533.960580597045,6.98864077825867,312.411674032307,-7.20333138778869,452.493695128751,36.5349627138757,711.77046210786,75.5918304172117,1141.65280161287,105.362554921838,211.694031844607,7.33383077246801,555.496990192881,117.171916539524,394.895348776116,1.81297639533198,1341.09397063064,73.771599836607,81.8751569833517,10.3073293994958,41.9039560015488,-1.06259239337732,263.34971414812,-42.7604963614584,386.077447612099,35.7313938254636
149.298645038342,3.16015183977595,688.202188345681,63.5536634533537,545.129592025736,2.22384785402341,317.334144718639,-7.99374953793568,463.995368246872,41.6744056606957,721.782018236026,76.7820323315571,1169.36583822709,97.5604973979244,218.8260566517,7.21058379816555,570.46318100274,114.895966312987,403.495930818235,0.327141972477528,1383.95402107463,67.0570169008059,76.6559421390136,10.0898344591094,41.427910861622,2.76450372340162,275.4786033633,-42.7998273401199,400.290473673124,32.6540254336528
149.918895084928,2.97601370579894,704.791163125762,45.9707966402663,540.904321260041,6.59243199594822,312.977777384978,-7.00235166336638,459.285473690252,34.7896841142765,712.425191298973,75.5063330234328,1158.65385024437,95.4000348471684,210.66294803586,7.86583257932782,554.861379240495,123.067005499659,395.044034368675,1.19524612596586,1332.7267342445,73.3956129375334,85.2018838603015,2.47804980452844,50.5551313178626,-8.14207330174179,273.120034591717,-55.1229773254761,387.0809373878,32.3962524451637
146.909523851286,3.45361590278747,676.632210288598,58.0273308266488,531.931278542671,10.2098595373098,310.999293485326,-7.13760843598752,442.524105292295,43.1329415484023,707.052504700699,77.3490474791127,1130.13426829025,108.228692534724,209.382679771399,8.1392468374888,556.245636882607,121.370930179367,393.942340945262,1.41230555665087,1354.26674528912,65.3658453710435,79.6043624469177,7.55811373901557,44.8540138010461,-3.32662107564222,259.695180755607,-44.4539592387597,387.550133387834,34.1963847376575
148.845442228517,3.12171628082407,680.546632209913,57.3835626932673,530.932743640184,9.25786611073639,315.960662894505,-7.63361835335452,457.427194873346,40.2753982611009,720.990288282307,77.2434867921418,1149.21107698188,107.243867896079,216.793206041134,6.89715397126477,574.66250561839,112.98221006638,402.372316425395,0.282756373208364,1386.33562655429,64.5964309600782,86.2889283133639,5.75244933855311,38.8264787226196,5.07804410740098,271.881913137745,-49.1765839898402,396.524114148829,33.2466901984715
150.49502978177,3.03928928613572,705.976332162577,52.8973061619613,543.562837301798,5.15224416691056,314.469269811033,-7.71967506229014,456.245045065884,34.8581607697508,711.48412291558,77.3004884042803,1141.32786776763,110.952095528045,212.076014727057,7.61502414677563,562.485854715287,117.259246246335,394.349257502284,0.993254515025668,1321.34366177623,78.8804420325303,83.8173630626161,1.99619140137619,48.9599750103494,-6.73254325987812,276.533696652861,-57.887306648997,382.723352138857,34.1597461340271
146.061233632417,3.41127965184724,683.907237023317,50.6293555431371,528.252923746964,3.17889669164677,309.774807236662,-6.67959474712185,450.114170792068,33.0754706071976,702.206924403106,77.416510593781,1136.78438867229,101.703405270624,208.703597418421,8.10731669324583,541.865890139784,129.578919444288,393.639863061986,1.87836240340419,1334.59529595258,75.2755501742381,78.0075819977854,8.05156158207728,36.1031495869292,3.70090193380169,269.387837531912,-47.3535151039378,382.975706715843,34.7081914405938
147.806083581356,3.40786188989167,685.254835293452,58.4703517290406,535.450714898064,5.06708385344246,314.149529989552,-7.15597047891124,462.478931815277,30.8558737197738,716.669833244988,75.5587538529902,1135.5394825542,114.883940181896,216.815232193583,6.13049053025359,565.668826344922,120.554160716625,399.697997819937,0.540489822413524,1382.04477754547,67.9692773437831,90.3461273288087,2.64362462904092,43.9460021546269,0.937231131931768,269.749799219979,-48.221234894514,396.35504520633,33.2751735949874
151.572202686147,2.84119752818105,715.323911508413,47.050293760715,549.992157153704,4.56807802854016,318.552066993433,-8.37878671001299,472.340806146224,29.1319458896476,721.871229786049,77.3354547952106,1172.83934163352,103.546268534924,217.673280422009,7.86103766073835,573.891734080195,114.021638702421,397.29407514284,1.16462017321853,1342.09123864223,79.7167416334094,89.2844212279414,2.02110795770043,43.6039545802961,-2.1174279217612,258.352652236037,-43.4849236633263,384.161586361494,35.1969884459276
145.618726168985,3.70415154665662,691.943621600717,46.1519926470435,545.899669969545,-4.91753889680208,309.895797893683,-6.90995540790493,455.296512561961,32.9123991220647,702.529158214292,79.3339998842091,1133.28134257283,110.179188474979,209.254583216319,8.43894012019882,548.400239814614,125.312679372451,392.902870331494,2.17770552709301,1347.20955508527,71.1755854642107,82.3075001007626,8.69292023263254,35.0948470371142,3.68584454330469,274.116400104004,-52.0389015684654,384.998246194216,36.0297280656241
147.592266336181,3.23086199204927,690.572906495273,51.6926702852204,526.698608578776,9.97821301112383,314.154584569371,-7.28499118686276,461.713941264237,30.3233712757739,713.796225648924,78.2915379897096,1141.97567260289,106.484803893142,215.634937244802,7.12646906242977,555.963369068504,121.890827087274,399.892437492511,1.09826327106372,1371.08942922009,68.0379147047664,83.1562163177737,9.80935509869491,46.1099476789899,-4.11777349582139,261.269793209489,-41.9319091046024,395.072038485809,34.542576001858
