237.956948848366,-12.7754594460432,350.723458966762,47.3082694531249,324.101165200825,-28.9272515960458,1162.80133719776,37.8900060863654,826.610343424009,4.97758553561254,370.281758273444,17.748194111646,266.477587219214,-27.1140482798737,476.533564059459,-28.7126468923883,436.821641144368,46.1218498433919,230.500049522724,-1.69953029116715,254.832019190334,3.63002329134925,586.160987736507,-17.0264178487997,1237.65418184441,-2.62940049752293,653.345288146158,-64.9884728711784,462.44862650899,-45.4026537031914
241.792992238322,-13.5354939933447,352.568841365964,46.4177517147348,325.944302122273,-28.878232954164,1183.6363727546,34.6282000373147,822.926802905792,10.3259021089378,373.556897134378,17.7461623180932,267.759820269113,-27.4304538902905,483.640133407414,-31.7927659099367,434.92323259546,45.6315821000172,232.774462356051,-1.97504304948472,256.385898275387,3.88633393658198,579.173543559534,-16.5222646103129,1236.96748720112,-4.51939733707007,653.49945291065,-65.2904354652943,463.154351515027,-45.987758852465
236.059862703917,-12.4434215564124,349.940736713984,47.0795479769708,322.389005264767,-27.8518250206291,1145.54842277221,39.9724762435836,818.78308497866,7.5833660628386,367.238616023089,18.3927282873889,266.428074772882,-27.9116797995761,476.318469460437,-29.3405445697759,437.196239973327,48.4086791345765,228.178245627589,-1.18311498395022,253.038866351634,4.17879139124835,580.591617078287,-13.4165155173915,1208.80375381581,10.118362715275,648.453534040638,-63.7484069180559,461.396826676754,-45.5576825092597
236.642927218521,-12.4908784094655,349.601489817911,47.6690631455465,320.718861896668,-28.1767415727867,1153.95313556564,38.5486101598595,817.272219949625,9.22580105665603,368.544736106289,17.9787418522312,263.79809408756,-25.0212164672885,476.93850300187,-30.5605942018584,439.641065379678,47.1929251125502,229.057944045178,-1.25215501717682,253.455722040098,4.58875601705593,579.810232247184,-13.8159024021283,1217.32598468122,1.8714568582064,649.51120574585,-63.9444204422896,460.857511726127,-44.8254300461723
240.901327814611,-13.1570394463776,349.870952413641,47.5080849721075,324.291705412413,-28.304937396722,1175.94040109236,35.8869597504272,822.557126196043,7.32813597689746,372.352709326458,17.5298803210865,266.03546428971,-26.7429221480701,479.544065388296,-30.702853265988,434.281070595883,47.9637430721922,231.084321916152,-1.59363135311939,254.866737018593,4.55146127286018,589.08357092365,-19.3922577450061,1228.62600107847,2.29004954970251,653.487480515831,-64.6689833585689,461.984629188751,-44.9887133744736
242.534133539156,-13.6294077758703,351.068340264312,47.5456011083334,325.136199204665,-29.4063597543048,1162.4947952769,37.0661940846525,823.024366067313,10.1472452624429,371.079867066861,18.0203257368218,265.345646252712,-25.9248328640502,478.874027797557,-30.4839999902953,431.849518931235,46.8381741292701,227.581821268095,-0.849703478875092,252.888608722806,4.62880420556755,588.407879476506,-19.2263885861731,1228.23320248042,-0.124301303086865,648.385439450625,-64.1105518286575,460.845298407543,-45.0292617630423
235.838795695638,-12.5201250415493,347.798642237975,48.1761822993257,320.4332336937,-27.6071438376081,1146.03926697367,38.9150214530409,815.186993701202,9.13805410419005,366.673541087644,18.2060027610487,263.52625268623,-25.8086960748079,472.293274324697,-27.7514183883621,441.268196982297,46.0433742494512,226.382863910405,-0.741965782210469,251.329061572227,5.07088587579324,582.435995236519,-17.1346866351509,1236.86525059212,-7.87376607421723,646.686889745184,-63.6006730573771,458.424378641097,-44.3608850748486
237.404290883912,-12.7556789473647,348.033432884331,47.8057420341918,319.454520730822,-25.9891076720263,1156.52657334139,38.3450645557754,816.651642464592,8.44397208143104,368.10153559285,18.1396495106688,263.48967973093,-25.6413558644571,473.196660733547,-27.2162028450872,438.93536491318,46.6962261000953,228.833194015807,-1.15948665046207,253.425556279175,4.24513448182059,564.495399276421,-7.95368552603052,1223.95712573095,1.38660022870726,649.03728542811,-64.3035980100381,459.352663503086,-44.4210517890346
241.023713477221,-13.3075211493611,348.185270917663,48.53999907093,321.999174784255,-28.5097036796482,1178.59273401684,35.2205569079512,819.573109249185,10.1104715212107,371.433430347827,18.0229159903094,264.918507132519,-26.1029698239359,478.786746610796,-29.033989364327,436.675294922499,46.7056696746965,231.124771994747,-1.51993837796107,254.787739835365,4.28053404854644,581.588650417469,-17.15908263842,1230.05570159768,-6.09245280587089,652.538823294969,-64.3693134567138,459.405764981618,-44.437215922863
244.786976767377,-14.1044922931464,351.216774005049,47.1686832695466,325.285785284789,-28.9054904369527,1189.39536768838,33.6138473641332,818.892353513681,9.9558256321594,373.841725572805,17.4803636114731,266.061339440379,-25.9169346755165,483.121551873677,-30.2191496672259,435.495497069701,44.7965951268611,229.252147253194,-1.37769702523843,253.649150006977,4.73223689696908,581.288345872061,-13.2481956555994,1243.29556630747,-7.5409831069292,649.769372281696,-64.2213354278863,460.569270564375,-44.813074587312
236.09811786719,-12.4729321387886,346.85487884869,48.0817551453862,320.90658811384,-28.2416440610552,1147.37002727987,38.2895978532354,810.739316635787,8.79150449452305,366.447040531007,18.9613104153664,265.445668411142,-27.247469959991,475.281235003108,-30.2120106816578,438.081955377319,48.2212123446092,226.931728467842,-0.976998499463693,251.692992437806,5.09544688236243,568.850883807988,-8.96323328978139,1224.2458192477,1.12000030905613,647.557853351608,-63.8261061996838,456.520115679265,-43.9487739989922
237.341485849926,-12.9713174428455,347.606878464492,48.0009952911938,318.859810724702,-26.5838871352135,1155.62976157796,37.4947520052366,812.777303733385,8.86265153541947,367.5954373405,18.5167664722472,262.035070705744,-25.9540021329778,473.147568905912,-27.432984306512,442.371084032208,46.6557321958827,228.278204267821,-0.906099907153237,253.702083332574,3.93991130726566,573.685843042987,-11.4575489712301,1214.71847623916,9.59352471933646,649.202554182405,-63.7816685297265,455.864870382201,-43.3995670770887
240.840986465471,-13.3649240454422,348.556552709976,47.6698541491012,321.654274569006,-27.3144963672612,1176.71110854877,34.9446954460366,814.378337609582,11.5070632792625,371.20103931316,18.4449321043759,263.307795868351,-25.7834931114889,475.410595107068,-28.0597589174173,434.046435544335,47.4002236443661,231.144547956098,-1.41924528471445,254.943747034228,4.53996593410838,576.260623903477,-10.7191714378264,1235.59416196068,-8.97429151775376,654.055094883225,-65.1417731435657,457.928119031944,-44.4480080660318
244.544859057109,-13.8931993289581,349.788658724025,47.3470496995862,323.597812489199,-28.0088404031279,1201.49586236375,31.8714361184734,824.772937485524,8.99153173577468,374.8310958102,17.849196893223,265.36925740424,-26.5487046636235,481.755855441745,-30.7622934403229,433.459081910268,45.8667354246202,233.986164106422,-2.22471217122413,257.104249674301,4.55679934083741,583.639121816897,-13.8798296085222,1226.56676579957,1.03963606993282,656.186958735481,-65.2322724349515,459.500040151064,-44.6807500549424
238.142492060394,-13.2665544866515,348.221507540497,47.6167370481795,321.591258599172,-28.0877555380651,1154.73420611847,36.2157303736338,812.950194659972,9.22787402535242,367.973320020777,18.6705497042124,262.072918010171,-25.1320344174048,473.8026746303,-28.0255809085669,435.806193085806,49.019759593217,228.324718209214,-1.25177377428783,252.335019507075,4.9973947496577,582.235333144693,-18.5209137970026,1222.9595892448,-0.850420134533006,651.271578210707,-64.6321416508563,456.676431687046,-44.287255777544
237.702651914508,-12.9403480023368,347.780014287795,47.754216003726,319.45578649755,-27.7343447990417,1157.35663687447,35.7678641070358,809.474788329898,11.4022101983493,367.58178064751,18.5004802668068,265.102443844215,-26.7422206522639,474.305301108506,-28.2150982331607,439.506239968181,47.1542132770805,228.354838290235,-1.0007813772744,252.536344186858,4.96150585432286,580.561961056163,-16.8802107641708,1227.74487594423,-0.649569581394663,652.243417726069,-64.8602024779034,455.482865709331,-43.6871606264911
241.018000646498,-13.4849635372996,348.934211354974,47.4750594974257,320.428368516108,-26.8684151027435,1177.80025297727,33.9742988293354,813.949307169101,11.8511485689867,371.24797904233,18.2849919157717,263.464161336098,-25.7058524279789,476.037650097861,-28.0499716729725,437.546578810966,46.3747614242205,231.361786322596,-1.64918642935294,254.934678431848,4.57096017268454,575.716634895626,-12.4853406718501,1229.94602162937,-2.00674203076272,656.709086722943,-66.3096007834534,456.748244642455,-43.5281448568683
244.514468552049,-14.1934672015735,350.217619761416,47.7265154716221,324.862105707505,-29.4078935006616,1199.9661294407,30.4788341698487,823.740021425655,8.20423942788463,374.401553606119,18.23463259873,263.99990237239,-26.481129728685,480.079249146307,-29.956972423245,432.192383642146,48.0144953637209,232.540812097332,-1.62389905165546,256.878014965523,3.94088905070482,577.571794842891,-14.0622071107645,1244.17456170033,-7.81569381524971,656.614389705184,-65.6395038495976,458.141149267232,-44.3023032145725
237.176821632923,-12.9918574068918,348.364723095813,48.1046971940605,321.293608157777,-29.0018989874874,1150.13892703767,36.178171591161,816.987935647002,6.97274229083373,366.262765450746,19.2374143327044,262.079941580319,-25.7030597006941,473.894620104374,-27.7182160639613,442.120634844909,46.3389616194978,227.79163481187,-1.26539263613364,252.657669478111,4.54863975201514,571.93615303973,-11.8866517489828,1232.79742981593,-5.65149132235885,650.110218899234,-63.6385262744144,453.801369208811,-43.1418437461589
237.071382622806,-13.0187736246964,347.466804890399,48.2798336740363,318.519571606918,-27.6825590395986,1155.30227316337,35.6583424595935,810.748701969813,10.3285128488897,366.913471759041,18.7063054650045,263.512807087675,-26.600309825244,471.963414375716,-28.0010048583943,442.867376027432,46.8994764388006,228.397290105426,-1.13130387397518,252.546225184383,4.89809348117601,581.159841315795,-16.8129200643065,1225.08809010153,0.819037391381976,652.004541301352,-64.7071348651025,453.629054343114,-43.1510830436036
240.433605080742,-13.6930459732331,349.564137669342,47.6942957284329,320.909682752802,-27.7562569789291,1174.66340918467,32.9057706249561,818.030333166307,8.24800381062855,370.211479507267,18.3811274154134,263.041736293379,-25.4129284328969,474.906352648366,-28.0675247576367,437.244154193703,46.7214574995442,230.910463070417,-1.59231713907601,254.320583596544,4.42393383058088,577.154389198497,-12.2527226132714,1226.55718719742,-1.30175371163466,657.041018764478,-66.1570342596815,455.056687113593,-43.2646615482043
243.665249315408,-14.0740886761508,350.598551788033,48.0032563695303,322.579868340065,-27.8026203627896,1194.14922075781,30.5600481844803,820.217696148576,10.1854118216067,373.14130416906,18.1529668131022,262.632620441313,-25.5972899119559,478.370635763969,-29.8066196612146,434.286991331667,47.2601528273762,230.68847849172,-1.38744036518097,255.730501866723,4.42152990669998,573.505000036998,-13.2068634513878,1223.29191135905,3.48910149874297,655.204957874892,-65.2436173891678,457.555570097666,-44.3837368255155
235.428035844489,-13.1594718834018,348.587601876665,48.0960521211225,319.386588398804,-28.1495942831018,1141.31334709949,37.0327115038092,811.418519795854,10.0597136108839,364.320798061745,19.0916590692041,261.459045008119,-26.0684748741067,467.009586231185,-26.4883507115321,438.845876750169,48.6612287427138,226.621722235605,-0.963985565466556,251.351324539047,5.27622913136847,570.774712472997,-11.2679703809048,1210.3564297793,6.90707317539826,652.1639171989,-65.1679936923259,452.180730990742,-43.3084068665079
235.407148600389,-12.6978129217178,348.253788592693,48.4636349397286,318.639161036995,-27.535795990142,1147.26625705992,36.5917539339463,804.295837243366,12.7766494363658,365.429841982773,18.7307970974649,261.67225016028,-25.5818114636493,469.425736057399,-27.5480215628539,440.651076544276,47.6241844654757,227.786487885204,-1.20932308336066,252.169764225946,5.04837904422511,573.361821375482,-13.9575838622363,1214.25982314884,-1.4179004954063,653.856487540529,-64.968769590217,451.647074423268,-42.5973542923866
239.71554231148,-13.7817237068554,350.619721521983,47.9146750740015,317.700774409015,-26.0777602111732,1169.0813255024,33.8002209666401,813.060458327714,11.2025587235599,367.882883839955,19.0166259574263,262.966875812428,-26.5087339414401,469.769130918096,-26.6493476887307,435.382421025751,47.9769851150939,230.389052692692,-1.54567445437557,254.241022209662,4.70910823884926,568.965163213621,-6.75699820985897,1229.77321331009,-5.63891094442544,659.337569896247,-66.3067591016604,453.9919379839,-43.4334912669066
242.960599624088,-14.1051678582306,353.180159053206,46.9488069397019,322.557827536288,-28.4968277508756,1189.45754533896,31.620272611315,816.315637635322,13.7327824855947,371.143360001766,18.4708459709427,263.916114002847,-26.689675601718,474.989569500434,-27.3457445329474,432.011695619318,47.2221482604609,230.344720272778,-1.23476920039481,255.490962061777,4.19070706830112,569.524063581432,-10.9293130195082,1220.96975362689,-0.892198989141846,657.326273557366,-65.5840276020184,455.92309616188,-43.6108770429006
235.955589333865,-12.9685660169428,352.170911323251,47.800980378591,318.479257449504,-27.414817085435,1144.72726592678,36.3850198486189,808.753515530388,13.6903439639317,363.619830902387,19.1369319536854,261.883287632672,-25.0523557399829,467.742749166621,-26.5419315842417,437.474632858011,49.7286735946852,226.747732350197,-0.918862147102808,251.814537424355,5.05654640016819,569.479853108354,-9.84034644043298,1205.32728293313,3.44289089434114,657.693401028531,-66.2884797720178,453.231894272896,-43.5729030697243
236.878006329275,-13.1662918018601,352.548888517684,48.4134806467363,319.13067904261,-26.7429595250834,1151.40497812514,36.1702924313158,813.343567291335,10.0804369484915,364.145791936867,18.9994479692953,264.758391584929,-26.8104742058215,468.343019558619,-26.440184300683,437.344171225077,49.516420975906,227.585599026032,-0.775562979603669,252.053660413618,5.4355272958571,569.595303552141,-16.095822714804,1214.50703909021,0.903575074926496,659.442742331012,-66.5356855592273,453.364356153288,-43.0005282041409
240.713372355324,-13.9300790410496,354.636398913121,47.5848968326197,321.40287115672,-27.2422517687335,1173.70846423927,32.4451591994108,820.448033424569,9.01568641956119,367.096733542401,18.8293616412562,264.266418041505,-25.6036893240184,469.915507436021,-27.5550056626043,433.130383797054,49.364719140367,230.501798001279,-1.5480495036057,254.31131008838,4.58890633368744,563.88008016865,-8.28171019028777,1202.336976045,7.05809911476848,663.685893771005,-67.6198506158962,455.218949267093,-43.5394030631538
238.817133456074,-13.6195427805164,355.493648777631,47.8238506002454,324.408992223232,-29.3424279652109,1145.41049412372,36.8937986573425,819.661694886228,8.61384545902314,363.734986200432,19.4837875279032,263.930169909167,-25.5339962181098,466.641019700649,-26.047168560877,434.762624110766,47.0383593524988,225.306906362046,-0.303124341673297,251.093848021572,5.18736824388114,565.151113105471,-11.9384354253804,1193.33695200564,4.55164585638442,659.829637481321,-66.749102207148,454.258894922595,-43.609915301617
236.744562189776,-13.0635421448602,355.310806998571,47.8025478843463,322.905235721581,-28.1311207946252,1142.60043403855,36.7149798717555,813.843295615385,10.8526062436159,360.725924023185,19.575578072417,264.251031191746,-25.2918029202022,464.2623274683,-24.9674260468107,440.126588800654,48.8513614733114,225.119075471188,-0.479334234444653,250.470787548496,5.59198178036197,572.225561999333,-14.0977611552326,1184.84336601412,13.448513057995,658.965451298415,-65.893458942108,453.327322478902,-43.1719778078079
239.134637373398,-13.3800182098761,354.61983005554,48.3349743936195,321.82673049666,-27.0773389360616,1159.30323101423,34.7426969384637,816.955174691384,11.0104543247976,363.355159245741,19.433669383452,265.921094914983,-26.9275506701837,465.661346623824,-25.9056648777667,437.3199688073,50.5727515771927,227.816803229033,-0.751939847933101,251.862000887643,5.30665933990931,569.699768530876,-6.66132247470979,1196.37398851976,2.06820896611495,662.846477460792,-67.1439071737518,455.187076383186,-43.6699237697256
242.849837023512,-14.171830157418,357.511914817054,47.3698258890219,326.285252029321,-28.8686553195396,1179.10595947941,32.4009177126039,826.401469797504,8.01815383427929,366.621149164588,19.4275226894764,267.231791833915,-27.095864123116,469.8879079839,-27.5513799876354,435.838188375809,48.3603633703896,230.128962893952,-1.0448105681385,253.895676661454,4.94768060778226,580.995645275723,-17.330075255815,1204.99336906414,6.56036188398748,666.805388422824,-67.9384415275096,456.519932538596,-43.2910635152176
238.458288308259,-13.2448754923541,356.734240694128,47.8378894971937,323.501211861045,-27.4843989269779,1146.0003794243,36.5026827814349,820.605955523855,9.25142590508035,361.778636308676,19.684614595207,264.915894617604,-25.561197835131,468.328827103694,-27.4529407188156,438.592696775035,48.3145020932052,224.927488653246,-0.32591736393725,251.145150576198,5.51534999609527,566.835590967423,-12.9029394145564,1199.66953010729,8.19339223474347,661.1039292708,-66.4016229375866,455.337067980287,-43.178272950443
237.837420624702,-13.4855937962305,355.791555652732,47.8620598558852,322.599762111414,-28.2958773988892,1144.50023975074,36.683261399994,816.052621283475,11.4892200482465,360.229822532928,19.9844988141467,263.871428625914,-25.3287247761261,462.758372062988,-24.6695050041845,442.12856696865,50.4463219779508,224.535588109222,-0.177545249686312,249.934357556504,5.69000695658872,573.811196443102,-13.8755676975538,1182.84445846231,17.3322088665395,659.568265033234,-65.9548704974778,455.967520484487,-43.8282802305493
240.98922311768,-14.0379425881398,355.448132588702,48.0070874460422,324.164064957555,-27.546455766872,1162.81252485642,35.3617478518929,818.529252851705,11.725499613878,363.610563935395,19.5521561088134,266.634358250315,-26.4914357946249,467.012343206437,-26.0223533516094,444.073752215768,48.3622566179861,227.467266243813,-0.279567155625688,251.649571952777,5.75727616209138,561.169596875867,-7.66308964713654,1202.75975376841,1.48051281115638,662.356158548902,-66.4148823567149,456.659056213896,-43.4634234077574
244.051916461778,-14.2482762364846,356.757218017347,47.1418670934652,325.128663433672,-26.9523862055705,1183.86442738636,32.6227644250476,826.833743689388,9.18804181833225,368.801115017755,18.732484664182,267.860477814692,-26.3089089804588,471.350318783831,-27.6932221106878,438.255017839267,48.5307447500021,230.838370657614,-1.22620616964291,253.541477385978,5.21243571241403,593.294813082381,-23.6176777150795,1209.75649039383,9.40360274925476,667.053678198418,-67.865939761508,458.70788168196,-44.0522157803783
247.02497347124,-14.8774416111132,358.44497712234,46.8399819802977,328.978184085331,-30.0239269013775,1179.35485931668,32.4490748331188,828.172256544355,9.0470406964096,368.637051372232,18.8262411501583,266.417673922693,-25.2641033501993,474.149627458738,-27.4481180939432,432.482631737538,49.6973649880442,227.350007992663,-0.70117581349826,252.394608949064,5.21753962454428,571.500528979939,-5.77510724870755,1218.58681419821,-3.43536967635288,662.069327717488,-66.4705698019668,459.272956892312,-43.8652284460704
240.932242005105,-14.1755377109533,356.515010322575,46.9949722273717,325.246539529713,-28.3545622048265,1158.21543949555,36.046654917942,819.48483905587,11.7902395768469,363.476416060662,19.6277808203766,266.413737956084,-25.4808172342919,467.291917098482,-25.7409427523474,444.103012125394,48.7553241103887,226.265099579456,-0.135936917607189,250.785485294558,5.71695155545795,577.871688390936,-12.9879982837117,1212.7236358006,-2.65999654220934,658.645482158691,-65.5818854541956,458.626099630504,-43.9358609395868
241.889422529312,-13.9515734547229,355.412056387099,47.5319956659254,325.089238199235,-28.0322640407859,1168.99478038476,33.5304839629303,822.480240552865,11.7656173495361,364.824401460616,19.714385940389,266.568175582506,-25.3796305799952,470.719094097509,-26.6135852268253,442.623209587093,49.9683121308163,228.272425810296,-0.601365519036401,252.207761826039,5.29525172393336,574.409159424634,-13.7695727636039,1209.28504747617,9.57479100896681,661.41005476078,-66.8986942340956,459.111784949586,-44.1108422128009
245.057888756315,-14.5747735191825,357.36605171778,46.4447394146465,326.288765952001,-28.325199179708,1187.58980219709,31.7434681887449,826.970332893602,9.72551677049909,368.941614886769,19.4021198180261,268.180966147806,-26.4730985531377,472.011738519973,-26.0326069851502,436.049642016308,50.7835952178057,230.827150951228,-1.10576546662898,254.648332161517,4.70069781771478,587.42872335821,-12.7396998922857,1228.63662143071,0.145914891767169,663.561493738379,-66.5450261573278,461.097215866385,-44.1423607032712
247.466735004098,-15.1116999287482,356.870203406207,47.1379068642674,325.691646166432,-27.7017588860198,1178.97388213978,32.7006879732184,828.346262752729,10.0247554008024,368.115971333172,19.3679763644192,269.240022901624,-26.2570632876642,475.103803151432,-27.7404032168503,438.224641753814,48.2219585257625,227.633086402008,-0.624486255808377,251.784472046615,5.66492829426408,589.624978254977,-12.5425444324802,1237.79671880432,-8.12268045950694,659.857006876991,-66.1856395692022,461.666457310063,-44.2216264326956
240.803486401394,-13.9509507468175,354.576056476218,47.2641585994942,325.805032366348,-29.5247600570627,1162.18335208758,34.098215786482,823.569377801853,10.7026979365408,364.27184805213,19.8323058674016,267.226781161191,-25.5128237020458,467.74801058975,-25.3612279523949,445.860533462438,49.297204498576,226.452258989496,-0.136204056110401,250.987591876683,5.59571433878537,578.243861945116,-10.9544226741446,1220.3608429288,-1.17027446480341,656.940093007912,-66.0311520486315,460.341634467417,-44.4652326579786
241.95897648198,-14.1870318820155,354.113985249046,47.8098393465034,326.228603279484,-28.9203758796604,1171.69100007136,33.2458241913775,824.886287352274,10.1736229906249,365.993017547233,19.8537148523353,266.735150865374,-25.7556928391011,469.910021880608,-25.2210974619323,445.244596643046,48.6707586947322,228.513348931544,-0.485604606044978,252.213454613853,5.69507249000451,583.742261578789,-12.941679685328,1236.70421997816,-3.38995234134241,658.345677874152,-65.8959790062375,461.015811589299,-44.4951097567154
244.996720613507,-14.7403841213174,355.676131643643,46.7165856523458,325.394785961654,-27.6926034847059,1190.07662258039,30.9047244393585,825.577205348307,12.8894694204544,369.874041915133,19.3649493063196,268.15511098795,-26.1186840996958,477.327405378407,-28.233736480573,441.009908180616,48.7419345417002,231.388822232545,-1.1303599957839,254.657748817717,4.79264773482454,583.58532236493,-14.6764834626525,1235.72995014896,-1.51776905592455,661.939578840971,-66.6914732363103,462.606791339498,-44.3407890195796
248.869553083112,-15.6501128835399,356.927630187241,46.5027414326796,329.559487810977,-29.4374283770288,1213.74144822278,27.1898840174532,830.980655058084,11.0974914961682,374.385005116934,18.6852193263577,269.947601781894,-26.3971255524345,477.754015009353,-27.4150500680527,437.58024856141,47.2273413819598,232.514423733128,-1.36829348144472,255.811168574287,5.06196259624265,587.814702362694,-12.177741726255,1249.15470838457,-7.33950627655635,661.319781908135,-66.8052061379429,464.556840575234,-45.0300194895341
241.267277672008,-14.4729078355714,354.598627974507,46.9543586925227,325.064189752805,-27.7050209351774,1162.22558836969,33.6683867922714,822.746248140436,10.727500831905,366.533398004399,19.1561988214345,266.851399710072,-25.112637555919,470.476270392507,-26.2399071256708,444.53558907602,49.8578523048924,227.859222363385,-0.535335324586153,251.568185425011,5.56111684150225,583.237460842292,-11.7741329250221,1231.30188798255,-2.70831505439384,654.865722449873,-64.503893963664,463.154629950347,-45.2501768768712
241.233885067134,-14.2101749362629,354.755564638658,47.0003515500278,326.905620026793,-29.668692039463,1167.74785197035,33.2577551790266,825.214926139139,11.2036815976375,366.348713084674,20.0977098890907,266.341609973412,-25.0532981945742,469.643007920031,-26.2062897842402,442.734429435937,48.9269834054033,229.171893406737,-0.690782414157818,252.112430223333,5.42647722948206,592.034339711141,-11.6543092773157,1238.15139251289,-5.88562837455428,657.397423328557,-66.5626538535033,462.781412009089,-44.8340211030691
244.506933403809,-14.8792323787678,356.003999268166,45.7281651932659,327.217661920835,-29.3148169896113,1188.54037256674,29.7484570906583,832.038549921277,8.54628734378978,370.852584037728,19.1626168345745,269.38782460863,-26.8942181807929,474.274059880988,-26.1487871256629,440.69090165637,48.0066132105989,232.077213689979,-1.34155412543809,254.468161038711,4.98010034146598,590.611149745357,-15.5227135899288,1247.28698331391,0.536135230609462,660.513375327598,-65.8837388724896,463.574610253639,-44.9414576256995
247.854074970335,-15.5117165130172,356.080169520794,46.4450425835827,330.103025064598,-29.9247997682402,1210.58333437605,27.0370389639696,836.874584519175,7.97191493414115,374.810130309161,18.9043876974529,269.785788494723,-26.6283330967557,480.543320038352,-29.0380771954876,438.004213478291,48.0922790831024,234.81618859925,-1.71649727773308,256.673148556337,4.79498540973409,597.122265646534,-14.333437541125,1253.66237762907,-3.01258065548619,666.744195430607,-68.0611856335235,465.660491730024,-45.2385013676027
242.780115156172,-14.7937047651962,355.586612364271,46.4762710232623,326.646682201658,-29.0232631181198,1172.98124319848,31.6816151162773,832.695849229047,9.29491303259026,369.86247020195,19.445780395322,269.143038264935,-26.7335611023873,474.945360805114,-27.1291281547918,439.732927745732,48.9303512694509,230.576291824781,-1.36182393057098,252.968194178625,5.32040463079484,596.721092696146,-20.3883504933522,1245.98660656024,0.962006922161271,659.724362968718,-66.7835765724648,464.28651434721,-44.9258151953855
241.235914715676,-14.4178754581051,355.331316880119,46.2912017954125,328.471631649266,-30.0812366890204,1171.19461265475,30.892703439599,827.900294299369,11.3025897568149,368.119492906261,19.6110689282095,270.839433301401,-27.1584242503326,473.918957945932,-26.6791128948103,442.356750909968,48.620899896338,230.682841104132,-1.39826954259478,252.343775647325,5.72098383336549,600.413374121244,-20.2844579771639,1255.61107558788,-0.611212140041615,657.818780134998,-66.0431333952459,464.20843896931,-44.651842774321
244.369876551655,-14.9788408091472,355.166145807786,46.9289756580865,329.756823179251,-30.8283669710546,1189.60595999636,28.4964061661496,833.951296119593,8.72604359098371,370.660143995274,19.7401268383159,269.271502740805,-26.2901749159858,476.306711418062,-27.0172871260334,440.90125150038,47.1913519317693,233.123408361097,-1.91519462793528,254.919214532992,5.03209276262148,590.575055825504,-14.7460392661274,1255.63829927467,-1.83575021908342,662.868954392391,-67.2765156729777,465.884169724639,-44.7833117607899
247.249754741721,-15.584838798446,357.618785193306,45.9946982707377,333.266903819349,-31.5733996263316,1208.14748404089,26.2246942058023,841.448823881164,6.43902904378876,375.232584130099,18.9359909280564,270.53202893624,-26.441205188487,479.092764264331,-27.1519236914767,438.905631561234,47.6157079330969,235.588280275093,-2.10876869121547,257.249194729583,4.41443989609782,598.271731630754,-15.9537990103304,1258.60037964845,-1.32398270153301,666.719667181737,-68.1371157069598,467.194137011853,-45.3750449976593
241.371437441075,-14.5139281944625,355.581567252513,46.9999461918613,328.141138834462,-29.9401611868308,1172.61018837509,29.2669327089114,830.346081417141,11.0061971774636,370.424136727275,18.9191648637587,268.47869348843,-26.2424131218183,473.874409790925,-25.0945732576498,440.832271384461,48.3520621585109,230.818444769812,-1.48172448355863,252.9522110249,5.383579192979,598.656645494949,-23.5118000565878,1245.77143468268,2.77510466648707,659.771520902025,-66.9486858740723,465.849140486608,-45.6846308629828
241.365281724246,-14.8152154555245,354.995491197909,46.7160264438746,329.379347328727,-30.7582635349338,1170.74585023528,29.838783067579,830.99332170107,10.3789594483429,369.257726078477,19.4860551489093,269.323136830308,-27.3160211307879,474.766533384119,-27.0284344796034,442.772833776354,48.9696615464817,230.899778141083,-1.4164201943627,253.003962651605,5.37773077947769,596.304568879876,-15.1149818168583,1268.13673927275,-12.2562778783448,659.170944742784,-66.326686644068,465.839027252017,-45.6411380204626
243.606968221633,-15.1861196481637,356.555643905546,45.8360049669193,329.823644489823,-29.9565155931822,1191.53831669184,26.6611950002668,838.329013454538,7.24936913098129,372.747422513911,19.0381920893938,268.130842119428,-25.5668437966537,477.095242543128,-27.1602373079983,439.812693749867,47.5218152530246,233.828374876668,-1.9473106497206,255.457532474463,4.97355974043653,604.490325848366,-22.9122087584362,1243.76042324026,2.81342834687506,664.235465542996,-67.9873479411535,467.250083330076,-45.9598749363634
246.927087047199,-15.6262343594058,358.656801647773,45.5594806829895,332.125849705872,-31.7368949465822,1208.86529146123,25.1982422800526,842.24646149191,4.97325816054749,376.162461241519,18.6988646064098,271.396321761545,-26.7738097717051,479.184319372272,-27.264410622956,436.860873775798,47.4255031500498,236.034175474247,-1.97743152276023,257.620223500814,4.55202256155877,602.213235327923,-19.9237767846445,1261.50165084111,-3.71625365647187,668.33489358882,-68.5541545940903,468.161603453048,-45.9311498331734
241.917038747319,-15.1345968195633,356.714408361165,46.2694502172843,330.597411765402,-30.5379793967045,1169.64983717292,30.0313380005506,836.091322097833,7.91099266607426,371.459928720113,19.4467474375444,270.947666732293,-27.1583470665514,477.914625660917,-27.0071797200969,438.898363004205,48.8854512617408,231.366779805711,-1.46465648105117,253.601150941316,5.1828493787013,602.179211613617,-17.3068280521056,1266.29119760789,-12.756955485273,661.160610091614,-67.2732127155608,466.667955157464,-45.5190982865598
240.340123975335,-14.6488346487856,355.469649503197,46.4266997300254,328.58660262182,-29.7076118687516,1165.10302019334,30.5504478904563,832.098884816146,9.73932373482561,369.657645964077,19.2231870741139,269.989224566255,-27.3229796442016,473.723435750132,-26.6036665699413,444.063173184362,47.3236855557579,230.874154890414,-1.36208989447022,253.102558473627,5.32586514514666,592.921400695252,-14.8803971550806,1253.605439947,-1.94082544550912,661.063509538586,-67.6658724239196,466.012789964624,-45.0436546775425
242.066609732859,-14.9239300870922,355.540584114399,46.4248483149451,329.135205354516,-29.4746109464211,1181.48918779832,28.1063762083155,833.07084376345,9.70761620286984,372.202972957733,18.9511029137564,270.649182943576,-26.5440276685727,478.188918623841,-28.3794053415503,440.56463249249,47.4706197427193,233.23328801858,-1.8959724017443,255.125341308298,4.93689664591586,595.121965421365,-12.0952318798035,1240.91082359462,1.70430722563832,663.495450913537,-67.5542225720864,466.645533872024,-46.0995245570102
245.258133935866,-15.4080565379395,357.664890087367,45.367967642452,332.162739769858,-31.4578087269573,1198.94508308214,25.3282398652788,844.490265693514,5.09752911288986,376.090441089507,18.7713260657775,270.671180671854,-26.6232703966045,480.802656664891,-28.6951484506709,437.492571151285,47.2499639268437,235.554955834166,-2.00134444601061,257.350335348212,4.71382836383515,607.547427573092,-22.1572847618917,1275.62200330077,-12.0265089059337,668.532422174862,-68.7590760566856,468.083292441055,-45.6626867089114
240.808196566675,-14.7651618886918,357.478435889558,45.3647234176178,330.683728964812,-31.6737359673462,1167.33091964621,29.2349339381549,838.041178237732,7.167830309939,371.93736766811,19.0810718490474,271.282909829174,-27.2293625594035,475.708522987759,-27.588318619732,439.732770654287,47.8043179410087,231.756742729736,-1.59285158388299,254.011523254155,5.24004851211498,605.797166773724,-18.6504086080736,1246.54895234506,0.0205509113177481,663.367203002395,-68.1971723623854,466.183215019169,-45.2497772232616
239.33724481242,-14.4622201140358,355.363737403621,46.7553162769858,330.851837551638,-31.2288968228239,1162.45744316309,30.0083438617286,838.133455436824,5.06371167052717,370.137276901527,19.0692663652199,270.031728622629,-27.1200946990754,475.505550103012,-27.4070831648773,444.175189180702,47.2386427124466,231.251116606346,-1.38253354099084,253.365441715858,5.44251656233388,606.768128749519,-18.9694055617024,1241.25007976249,2.03209696882577,661.58959099718,-67.3493471437408,466.32754954934,-45.2017188767071
241.085369496822,-14.7491792202539,356.051315990549,46.1907026525703,329.636772362942,-30.5279622394925,1176.25857393769,29.1740551772964,838.95852454959,7.22244805180636,372.770029130286,19.1052378557494,269.299321413293,-25.961265319212,479.946232909707,-29.479511011546,441.999570566106,47.1289485239754,233.550533234412,-1.82412758203463,255.587977137653,4.97768362468031,601.938357347517,-22.3840153008414,1266.46995576029,-10.0730378263969,665.608949675588,-68.1667564760568,466.69777713631,-45.8144761070917
244.370342832516,-15.4267584145712,357.356528306882,45.9837794307783,330.868245475593,-30.4155217380403,1193.76653118282,26.6964985624519,842.28299827131,6.94665297736085,375.962563398522,18.3993171311138,271.895465665413,-28.0726156803381,480.722494057251,-27.4998926709296,438.843474756689,46.5925687095789,235.870204528644,-2.20302814290972,257.496458118311,4.74367512453872,605.109651435741,-16.7391223470994,1251.74894593952,-5.31271023244083,670.141297640867,-69.6335849659676,468.850525501697,-46.1786338352088
239.651232015793,-14.5801055500103,357.499787484084,45.4201611883783,328.416692925589,-29.4009469607313,1158.44432575368,31.1281494639152,839.893694971281,7.10460399507977,372.018787898135,19.0190154475606,270.166603979088,-27.6396379727054,476.288451642323,-26.745138506269,443.153786780409,46.7372853060182,231.916850956619,-1.82141877747607,254.00253155084,4.91170124833481,605.465274106557,-19.4785189479889,1263.0226414771,-5.52095874205641,662.991605590091,-67.796303627551,466.980614305199,-45.5063886436623
238.570224928861,-14.3075986032555,354.771864536905,46.3800278012933,327.688690383275,-29.7229912015329,1154.7716417447,32.0602973478335,834.004774113487,7.93407046051651,370.023769406654,19.5204472582988,269.311379119178,-26.2434564925999,474.688909976499,-26.4162549228502,444.630585655208,47.8315956727837,231.06489469472,-1.50523049043324,253.558283173739,4.92672194614104,594.807539215187,-12.6050545430619,1250.38311260621,-2.24872703458287,663.326073086125,-68.1811123190381,466.142403050669,-45.3148555486871
240.516013352243,-14.6757063994399,356.204652417089,46.2717115222043,329.079872431154,-30.207977714021,1170.76985082922,31.2578556322614,841.069999961347,7.25406322948566,373.302319414419,18.666105970949,270.277350779014,-27.3874879670253,477.88625508907,-26.761774012716,440.866441136143,48.610800152694,233.762503790715,-1.87374050457754,255.402107447382,5.13744027773956,604.794203616592,-18.9626267069299,1275.8015181429,-22.3333434558703,666.55980926827,-69.117869798325,466.058178272079,-45.4767849606433
243.632862762192,-15.1206827965195,356.735984278045,46.0810175815954,331.194348230474,-30.0930125614967,1189.4564981154,29.0785104222181,847.765901000036,4.31333933147371,376.116812790593,18.4542610792355,269.242814273382,-25.8681119785174,483.054992389083,-29.4891870460495,437.698712811538,47.6635293789956,236.148651615483,-2.3224981196416,257.32988498523,4.67890464747934,600.007757714145,-15.7482890801824,1256.54490616584,-4.82221937366878,669.745189544188,-69.1455634430761,468.227965534072,-45.9873523185911
238.157676558585,-14.0571339390263,355.424229838907,46.1829596091801,329.184384682523,-29.9060413191475,1151.07017001552,33.4970424327408,839.051129036845,6.40371661657629,370.960578472569,18.8545073047045,269.637544458372,-26.6167598056882,477.388128796172,-28.2079124932401,442.606874488613,49.1023614192714,231.030038184273,-1.3557998902035,253.031018525902,5.66294699313143,605.147761285309,-19.7458022155467,1240.46119917884,4.20259939378073,663.187865870345,-68.2256656967041,465.701556102513,-45.1788787925752
237.106588373218,-13.790603712879,354.234250086597,46.4891908235172,327.373958610996,-29.5209430846001,1151.10820992448,34.4400005359401,835.752271108983,7.53801107008785,370.173212690816,19.1233503876687,270.240872291531,-27.5006212167716,477.106210113706,-28.6904676280937,446.193010604757,47.8917085823842,231.48251579025,-1.47624814424297,254.284487730285,5.07944364377778,604.927996408646,-21.1479421781166,1246.96061926683,-8.64363775711233,661.336715880609,-67.1623715735199,465.230081825625,-45.0040342272201
240.662827213373,-14.5310138160296,355.006369225619,46.2040384604238,329.08367606796,-29.8871739267784,1169.64921662815,32.7428963836395,839.481080607335,6.79907026640916,373.006066656037,18.8893180452395,270.408505757489,-26.6808580495858,478.711221049806,-27.597850927893,444.58399035385,46.4846700595962,234.155419068399,-1.95287323852789,256.081141530142,4.31076139816814,592.999589930515,-12.6376946152652,1250.83042184453,-1.85752830749971,665.730061394666,-68.4822204801543,466.330435802239,-45.973493671566
242.949362966489,-14.5125755540892,356.84179567478,45.6226066638947,330.275856781981,-30.034164861406,1189.44681619472,30.4070594537088,844.542952299765,5.52984525300755,376.323611906998,18.5226069967639,269.437633808427,-26.4387750753099,483.529947482732,-30.1856856723752,437.723659015847,48.5254552022281,236.055802302704,-2.30252901312541,257.947367473106,4.28058636238931,608.438957506224,-22.4113854763883,1261.65468257154,1.11228218986842,667.316380849697,-68.9346419759067,466.319891181063,-45.267908215236
237.758225599825,-13.742002292156,354.949218804143,46.3507162593716,327.137522255138,-29.5708178581574,1153.42465937044,35.0817101273804,836.936259578493,8.28973890055264,370.555401152779,19.4789790424772,268.5868882077,-26.0853306573672,476.630774750883,-26.8926867767717,445.282636932583,46.8725955300114,231.742469183909,-1.66275293742172,253.930393744984,5.13966921295822,602.381485432689,-17.4040271183845,1250.22823171747,-2.93608895768447,662.749864541107,-68.0350198281953,464.950567028645,-44.7699703301502
238.646364973253,-14.0737540818196,354.476285890474,46.4643640519646,327.921162649504,-29.6152133889916,1158.92777343125,34.8210981280947,838.932197481577,7.96016997144078,371.106769518692,19.3445655187009,269.262457443067,-26.1598142890408,475.825510385458,-26.4577862561519,446.813832764095,46.848918710266,232.122237931495,-1.67477081405455,254.266348295903,5.09640520799968,599.340622072019,-15.2688888789528,1239.51418779437,5.59512161300792,663.49253502951,-68.5881748377545,464.892433019725,-45.3984651179805
241.753037597614,-14.5708052035655,355.877353295499,45.8217446977358,330.681972086794,-31.3910564943389,1178.44366130035,32.7003313456643,838.144825502731,8.13669824426867,373.975691272434,18.7843502408869,268.056583924261,-25.6231122697737,480.727193689316,-27.8427579221812,441.984474427669,47.104948857943,234.210283796318,-1.90153985676805,255.630498240353,5.19664652654024,595.227182137871,-12.5758208750652,1258.31515718943,0.00639917570701472,666.306588098558,-69.0416134415918,465.656614713092,-45.358771078745
243.207493851338,-14.4108768320425,356.689690150375,45.7062420913077,329.611300100087,-30.8767302868412,1170.43372148722,34.0236731444936,844.550953266276,6.86097860878176,373.664730731903,19.0729786699087,270.132044293233,-26.6216153283216,483.590436505344,-30.2743113373004,437.16367942865,47.2365048713717,231.640006992773,-1.81440723076982,253.736467521876,5.57073093791264,607.542571852527,-22.7146656438746,1251.63972149047,-4.17407137815243,662.271323722177,-68.0980456927275,465.989443187919,-45.6704243139008
236.99097147003,-13.4785139546934,354.367538028426,46.5200431343223,326.185703687731,-29.9486739686267,1155.76760590157,36.4931524018054,833.906500178062,10.0715638189785,370.167661171453,19.1245998669407,266.906776832389,-25.5969033516335,474.202133766352,-26.6577151785801,447.570287318087,44.412974843753,230.779177651657,-1.65615753612247,253.349856407766,5.20535552493522,591.54709809366,-11.4491051382381,1243.98974253474,-6.7434539428253,659.3102805193,-67.6221753455066,464.992238144714,-45.2518419008165
238.602378480921,-13.6623532358599,353.646703023687,46.7459092032014,326.102537794451,-29.5388045743267,1166.40401833088,35.5372939168745,840.50371405751,8.02220510853871,371.454007146212,19.1878764563478,266.104703824381,-24.8596958285167,476.915514637153,-26.8654453437003,443.229415421717,47.1368140002693,232.362536022479,-1.51300368391462,254.248388702351,5.12266812779821,603.08022413201,-19.7321313966345,1246.02338484944,4.4571749717988,661.642484095045,-67.6430826709318,463.78363178972,-44.9483722912579
241.714893145798,-14.0599863808705,354.314776310379,46.6794057662703,329.541116283409,-29.8593042369352,1188.30440676418,31.932862435187,840.926528377922,8.41681203556582,374.96874434357,18.6006199156286,268.919948153847,-26.2233733154975,479.302642805414,-27.1957981297334,438.458179166471,46.968071225917,234.853138428487,-2.12356484184175,256.40159756826,4.72236648557301,596.330042025942,-14.6694167310004,1254.32699612674,-0.679349471740241,666.225547153418,-68.6826060139419,465.675650477762,-45.8681690909144
240.054799890997,-13.7176743981026,355.237340337635,46.0207248027664,325.522103819431,-28.0305124078762,1160.29448663118,35.999976262377,839.524233600921,7.33727424014562,372.40478182839,18.7524780429794,268.410260030383,-26.3609917835395,481.819273437905,-30.2116853252381,440.262139564373,44.8236222786041,230.989295592373,-1.53261453621957,252.773038406591,5.79532203255533,597.966970888729,-18.1460958083062,1236.61246425915,2.73173927309582,659.650027017803,-67.2865358983459,463.5054199353,-44.5199271689606
237.080578281833,-13.4279667185915,353.492136678386,46.7563116590012,326.275001454369,-30.5141470655313,1156.96540503474,36.4526131708295,833.068974193503,6.84455840324171,369.077316494537,19.0960401574595,266.946660629813,-25.6232343527074,475.781080740228,-27.6521681335524,443.423198846814,46.7815111850246,230.170171639184,-1.64712567058544,252.679352222734,5.78038060506996,590.170090128472,-8.3865602824644,1231.31385382029,3.27343554645582,658.980742097008,-67.4821114751229,462.573969667152,-44.5912581588681
239.090494954067,-13.7322774102758,353.920193565407,46.4696341612969,327.348722877952,-29.4687592551737,1170.92596537485,36.047694012614,832.973097263298,10.7785923720552,371.489904925162,18.7917761330974,267.106358487001,-25.7326213026923,476.588133584697,-27.3539338560053,442.869258383777,46.7880874142256,232.155156392374,-1.55827107516516,255.014499532973,4.71022190690201,594.16039477261,-17.48146099971,1234.33532360197,0.9496313758562,661.516067432577,-68.041368822149,463.627239961426,-45.5457587121948
242.669211579628,-14.4368939744073,355.335420205961,46.1664930949058,329.195751569858,-30.2998548075076,1192.21711619032,33.0699512178047,838.284485929167,8.47864052997023,374.479027465759,18.6034951718317,268.247475557438,-26.8014364340366,480.636623312696,-28.5265128127878,435.964074639717,47.5393500825152,235.313729678517,-2.38499393074199,256.569542722107,4.72676267593348,593.045637699663,-15.8135181899758,1257.4291955862,-9.18274689825011,665.28899833992,-68.3013152100509,463.485386496419,-44.7680887274524
238.890760139941,-13.347129130877,354.535231058457,46.1809491323709,326.193978752382,-29.4286683377393,1163.23320416022,35.8657607224826,839.360178027099,6.67090850536264,371.652062776982,19.0857687280087,267.866576740246,-25.9061402778419,477.460938137082,-27.0564482253114,438.153393178771,45.2830408833316,231.00798446446,-1.81744542784206,254.295029289449,4.68839766818346,593.985710965368,-16.1038222342037,1236.15789789516,4.09372458597156,660.887876583544,-67.9746888335248,463.23736312953,-45.3599829026765
237.70868205946,-13.1872472401111,352.928425826713,46.8993498446293,325.985813489223,-29.8016142934996,1160.51555744351,37.367459059434,838.69257353671,5.64700011594627,368.865917913227,19.1625022348329,267.527823051326,-26.1806400126032,476.893860110616,-28.7680875493396,438.915856483715,47.0479833789319,230.797112703188,-1.61236410505543,252.833903488514,5.57462180853307,588.762488983183,-16.2707799925832,1235.33476604642,1.15164770192163,658.898570861738,-66.7415746741933,461.326661167712,-44.7781958356167
240.142158433611,-13.8830977348043,354.197857057596,46.1863665210818,324.223799580899,-28.8182197901501,1177.21333814903,34.6701839519735,839.771442575574,6.51412615405004,371.023260113997,19.0829595377013,265.659838091173,-25.3690290348708,478.29777039095,-28.8866423491851,435.745970079208,47.3977236167944,233.460896127894,-2.20554145980734,254.639063135438,5.1077269287576,589.464511828608,-13.3388954118037,1237.42967992698,-1.38749953925051,662.617915774888,-68.3502113593014,462.057082044631,-44.5739716445433
243.121213541473,-14.3303182966715,355.80090209726,45.815668856911,327.850655860797,-30.6720485755598,1195.45064140494,32.8343040025242,844.117804929469,4.75182396763804,374.742698281811,18.531980443165,268.445558020796,-26.341401855698,479.089982961423,-26.9544321523274,432.243296770991,47.9762432100505,235.626530508386,-2.34915206515946,256.80097270263,4.90316449726531,592.828917085591,-15.4051150513603,1250.61299689157,-5.17687808693039,667.543073874768,-69.4949167420599,464.370719071326,-45.3956711324164
238.238832655269,-13.4957126738428,354.121269052675,46.1301778520743,326.22821059209,-30.5469539896743,1163.19628844052,36.7428385130415,834.324448894231,8.02248409541544,370.745634949231,18.0911289208242,265.838696896872,-26.1814828338371,474.58212464787,-27.044304215175,436.885571422675,48.2994420622387,231.098462540438,-1.82809824685959,254.092612675846,4.83394894267348,588.920485471752,-6.73278280662965,1230.59220920041,1.74330567216359,661.119705649856,-67.7638046914228,461.930553422923,-45.059373688189
238.767338204791,-13.7962725194454,354.259143224504,46.4694850692491,326.767839973311,-31.328215387837,1167.30263047336,35.9511995335577,831.601736766681,10.0036886207295,368.933540689282,19.1726691134,265.029338881641,-25.5265692568718,474.276141796505,-27.5185189892479,434.051929079649,47.200544284922,232.031595608967,-1.91201396818135,253.877889740134,5.17764015355108,591.364157406755,-18.0347572378913,1240.72503795908,-4.58780974133097,662.124455218301,-68.1346149274485,461.61203842845,-44.7013214467276
242.41841787191,-14.49025421922,356.2531321798,45.9364082648735,328.050516134274,-30.206129844412,1187.99512271524,34.0649004015302,842.38382856541,6.87608834562027,372.794387288256,18.0940554903445,266.189813597362,-25.6562538308637,478.452123032085,-29.4490987483171,433.155774105294,46.1806478492411,234.51469854449,-2.23870455713287,256.091942954323,4.64306304020335,590.16094991256,-17.6464523631949,1234.00983342915,5.44524558570864,665.016004769444,-68.4872086643614,463.766935859329,-45.3881447216248
245.805495329109,-15.2028641311773,356.989677484914,45.880714454578,328.012994745043,-29.1994881373533,1192.69368670746,33.9623171697857,845.639450869545,4.69574510415571,374.504420540641,18.0079803941369,267.593729538034,-26.5145389742459,479.313555840793,-27.3719269703158,432.01212602687,44.9864864710627,232.358848313039,-2.01607700022186,255.033920441767,5.0413539119259,598.277153043969,-21.1791761946485,1237.67110260907,4.92253974200432,662.55968435258,-68.4028596109455,464.089606078706,-45.4788047669099
238.21282978602,-13.7081060741518,354.580240928073,46.2440352345521,322.632059185189,-29.164096778734,1160.31112198953,36.7836571877904,833.18194768964,6.41252913859526,367.681920856503,18.9067387025994,264.092798641918,-25.1386998034945,472.544790452677,-26.7847246276234,432.704549420575,47.4127924137859,230.973740207943,-1.88192749425801,253.289419874448,5.16846215812796,591.359620067186,-18.8083315734702,1228.07794218641,0.723643404968301,660.598148984758,-67.4893963951398,461.683387869431,-44.9305814236503
238.943076504136,-13.3598443866677,354.982912936267,46.1241344127126,326.206009377149,-30.585250780072,1166.99392437914,35.4300984731419,834.513579720026,7.6384790545132,368.757662314982,18.6607274800918,265.401824179208,-26.1084462377065,473.628968669527,-27.3097738891106,433.272463064314,46.5535705885606,232.04000511898,-1.88746726218815,255.209423232575,4.61444416991692,585.081200963706,-19.0468569406096,1204.28187597225,13.008245826815,662.921143352861,-68.2508153270742,461.428829220737,-44.0938228322136
242.656268819828,-14.4633333029996,356.07764725041,46.1615204899182,326.79510022655,-30.3969343069782,1183.5276660054,34.7882723577107,841.734755395421,4.92525952663393,372.701489299732,17.8380456541888,265.61997246294,-25.0770808480362,477.341464319832,-27.5833917114892,431.724953668811,45.9570759403142,234.810895152485,-2.43023850111533,256.111940439337,5.04320134444747,584.54793536129,-13.4681148442677,1234.52028309988,1.73081207577189,665.926298943953,-68.6435518628631,463.004884762431,-45.0556918493964
239.042671262125,-13.6625300976579,355.682197890916,46.3514086990346,326.604722550832,-30.3820399071751,1153.92678854626,38.9588896354657,840.918821402009,3.92430887110039,368.252551660114,19.0247003216821,264.681463639118,-24.8400934999568,470.24313679834,-24.5316743276098,429.735015965426,47.3517892181331,231.016203883278,-2.2499891452864,253.711122803683,5.16797694152403,582.555945670869,-17.4553750216762,1236.20557803054,-6.98606409096165,660.140600648395,-67.6466932491119,461.09830211652,-44.2702262261313
237.377159498796,-13.2572972649526,355.118109840893,45.9485533755972,324.355118798155,-29.7642232112588,1151.17900943531,38.0829067428112,830.603081580537,8.42311463771802,366.104139738282,18.9609001226349,264.9090324706,-25.3638100429078,468.5944813515,-25.1607304739524,430.530550194403,46.8991965674167,230.001140503028,-1.52269047506599,252.944648416981,5.13719652721399,586.059762455851,-19.6047096323844,1211.94614250503,9.24002362199031,659.393979021676,-67.3496612963908,460.939990909886,-44.4516468283875
