1547.77411690917,-23.9006125617474,182.95268042761,40.7736041953583,644.105138713527,30.1789167304911,1642.09456927206,8.84726382565737,162.283404900631,27.2124090083732,574.056780880322,69.8508580117973,377.471156282562,-7.3764022266354,610.752773177765,44.2651728458593,415.736911693769,96.5694614960468,599.915809068653,-32.4817572170759,553.673899908383,20.3422716171562,165.893496877628,16.8611321509944,112.264347636853,61.0847832036938,600.017440307369,291.051454849347,1164.63446926661,-104.900065356754
1514.86731212269,-16.0332148350204,181.196022130554,40.5115871568007,645.456991038768,27.0554707084328,1626.19213283788,6.83028442748015,159.537329357647,27.5999138915427,568.574921248731,69.3800268977291,372.459188269515,-5.60974650765946,604.645054714666,44.8552749204269,412.061921459065,101.824492084526,596.62459106505,-31.6172661454035,547.529552521654,22.5719380873649,168.843962906963,9.95716175391651,112.56173646467,60.8748015556682,600.196454235439,293.405570796384,1174.68128032679,-112.677426307829
1531.25276888136,-19.4209636455091,181.748276626916,40.5172429115212,636.519483910083,37.1370777629714,1638.16235649647,8.24556857271976,161.499414973869,28.1160294160232,579.775221343066,68.2725022827755,376.624082239474,-7.45879580614446,614.651138966845,44.8634194131797,423.024408368795,89.8534601642272,602.426577162898,-32.202730043676,555.896072281247,21.4000600332612,170.463729908329,11.2212562121924,111.663788255048,61.8969732368907,602.21429834292,293.813881838603,1181.17086995042,-120.907656421817
1554.797034292,-26.3372352032477,182.751848948284,40.5223612098017,645.392116217508,31.3685510631104,1657.46527359981,5.59658849031406,164.224264494919,26.7181233411748,589.422604854069,67.1679279697513,379.207335880773,-6.31290572061159,626.036255358347,42.8249250289336,413.109939734864,102.495839820329,610.98173566527,-33.6802616944585,566.582070222048,19.0033084030943,166.912870033428,15.0939180613785,114.309110886009,61.0612955415679,605.103264563945,293.817853225767,1164.13584143461,-103.864812039502
1521.78903616186,-20.9737989890957,180.716480514736,40.4067770332561,629.840165214267,35.4626037725675,1624.48313782495,10.3235317102504,159.502851878511,27.4163688101582,569.098231394486,70.2115414559541,372.954617756295,-7.54762428942696,604.174930688609,43.6087692514321,420.84808196396,82.7846834118371,593.241638639131,-30.5703278660712,546.274652426299,22.3949683524373,161.852898080394,16.4876787653651,112.344312137085,61.0179818092507,604.572561745685,293.83909523263,1155.10808095658,-107.713378181402
1518.7194918864,-16.7167699109422,180.686515496478,40.2735775632835,628.983695102242,42.6271448232757,1625.53255553464,11.0793155093899,161.404736471236,25.9239148524085,573.018026620999,68.9073155781992,374.55375349299,-7.45806950890157,609.292126348362,44.0070337926154,411.016955132601,101.090691551861,598.688215221879,-31.8915210706684,548.599635412723,23.0270666929401,162.61175542915,16.6095946239106,112.762865643203,60.8179970322746,608.256718818635,295.638142949365,1170.10316403831,-111.345656037601
1538.40689396779,-22.0751499583991,181.77518370383,40.213742030279,634.154975954791,35.9594759340264,1643.58547107755,8.24450146952901,162.365633900574,26.9473880222972,584.336300495674,67.6512808160319,375.231120554564,-5.83902873356091,621.36138828906,41.7002941036173,409.423535866202,104.324297298456,606.770264931127,-34.1780400638633,558.161262436771,22.1786800814619,169.887146601114,9.37435667743593,115.082550386925,61.0081510240234,611.446370612585,296.804899981904,1177.27216904609,-109.486313088508
1559.44922641362,-25.0235586250646,183.978271219998,40.0940702845192,662.00141126199,20.7207299724044,1661.32762385857,7.28806913066814,166.138386864308,25.953624068708,589.927408518466,66.9259007987079,382.334751548353,-8.62402588090329,627.076820722731,40.4550359869734,418.441820897224,97.9250622669114,607.691028949996,-34.8831504650645,561.10071269651,20.5207070534636,169.891744586468,16.143207207539,114.320938059073,61.6159385786382,609.666836360181,297.024517256636,1198.0235464856,-130.378595611429
1521.05529531239,-20.4124272250795,181.116449769598,39.9444158560387,628.113523946316,38.2442245377254,1631.79002740606,7.13631191950762,159.877042907621,27.319584606934,572.102933564699,69.6805670719061,376.358094101192,-7.68523121197264,609.434815741091,42.9779664548365,416.687481178268,97.9132259950936,599.079194181695,-31.5637401136303,554.216094310181,20.3874273729138,163.725926308115,17.2506610231907,112.324537460599,61.6660561650778,611.424267105843,296.97217040491,1164.73633264957,-104.28299689297
1529.61349091777,-19.7636528439524,182.171424551767,39.9250295847302,650.023209424326,25.4599595547066,1638.39363817143,8.43720628014783,163.556463128301,26.082187570857,579.848872916474,66.7829320621332,377.487193857876,-7.99383228065965,619.688399737667,40.7051894737819,421.522685658018,96.9870922457481,606.018178267766,-34.2168924394245,559.177985870583,20.0450293876457,172.437003960407,15.2728312507511,115.128973286621,61.0632137988278,612.952584644184,297.849730327405,1182.43241601996,-112.98461814034
1553.69448602537,-25.955281846651,183.216093534194,40.0135716812859,654.005938661282,29.9548095789674,1657.56061614621,5.71460441599076,163.783196532631,27.072050325886,589.092131672105,66.1496121980434,382.492314078819,-8.96928261768159,630.268914086284,39.233581223056,424.65194769848,92.4398595940896,614.821256930057,-35.9114541557927,570.303073732891,19.3502663735933,170.279949154194,13.806539946098,115.890473346801,63.0123294872648,619.280697636293,299.45787649892,1189.16301855371,-121.221362069709
1546.22347710177,-28.070183145201,183.799012798067,39.4892856431414,648.559440125277,31.2236931670124,1647.85426575295,2.91425860027305,162.462935941922,26.7892093897678,575.524502698715,66.7398241720239,378.314025481534,-8.23325444563677,611.731959651451,42.8239387622231,417.801144388245,96.1699667968682,603.331785840966,-33.4841978063601,559.449371939842,19.3849863172511,160.038857362609,23.0269574825396,114.398339218367,61.1304749315157,612.677546717562,297.743258395538,1180.35649300214,-105.027637421388
1538.49367375953,-24.6629406072034,182.503455963716,40.1331192592005,641.52839603251,37.8430778962016,1637.84912245528,9.12121814261872,163.494221363902,26.5422896494676,575.637638184867,68.8459264636406,379.006780085597,-8.24936789624282,617.617833429971,40.8906941974694,420.637903279795,89.3460435102678,604.637183813715,-33.4216748115678,565.502153516429,16.3243462065701,174.667665914332,10.7442529713496,116.871809731216,59.9688894968798,613.080479441528,299.34964220179,1183.86314917511,-115.829515864965
1553.54703158558,-25.5251720764359,184.387362787364,39.7941791075538,639.08737121082,36.9802621445304,1647.97593878729,9.29861533551576,164.64594930329,27.319020283824,584.58504992079,68.8289930689879,381.451500817057,-8.54655089664659,626.724388915275,39.7004457511534,430.261635537913,96.2546429637676,610.007959611258,-33.2033823823141,572.888039307447,17.7064564618895,165.630929270826,16.715805361368,116.156449173485,61.3342894255017,615.609515266858,299.524376083051,1193.16981603135,-118.208597265092
1576.68991333737,-31.4449151622796,185.587736951754,40.0959142223388,663.134948010263,26.35508479927,1672.00212527804,3.60621782653976,168.415565288557,25.5818292251737,593.57268438715,66.9720351055004,386.428974350647,-9.16026821837102,637.878770564915,38.6270372012125,424.763781241769,98.4767541889449,623.199081916855,-37.8713149455456,582.149073695042,14.9253785578251,177.20076522306,13.5357107102892,117.074684691527,62.3008291537676,618.842518770372,300.749907654954,1206.96279409924,-121.922229160482
1554.5972808755,-30.223694850894,185.142445971122,39.5152931421428,652.898375510741,31.2206475462759,1644.91822662084,6.47792721044402,163.588509508098,25.9929864233468,574.146440570924,68.168782247251,380.329054156923,-7.90239280475718,615.490209553589,40.7866603759501,417.703565573276,94.5475089822177,605.365832600588,-34.1123483231574,564.784695478041,17.6678753454259,164.471478695727,17.1995278818837,114.303322407644,61.9327050267994,616.902711406673,300.102874502289,1205.21862323762,-121.848242089437
1545.2144393023,-26.9186713845024,184.3367380931,39.9294552167642,657.910448958746,24.0136969402549,1637.95875735121,9.53716474649076,163.931179179928,26.0674884257393,575.836161942753,68.9786167151833,381.106208131024,-8.66916257128862,618.983251548443,40.3534520550411,430.170900448467,91.1721405758064,604.804807643428,-32.129456569936,567.215750309284,17.7922724095869,173.99877117366,13.4289267187269,114.640136325422,62.8056507492412,618.061436420648,301.728053968281,1184.02939758021,-104.838791817452
1562.06101094609,-27.0481912728133,186.26861054301,39.8804789322168,664.465862229324,33.3043324803165,1651.72866660643,7.10434521957457,166.148865068816,26.0946130691319,588.140223483028,67.3661359198267,384.315711088924,-8.12736749149109,632.494666363144,38.7100144401102,422.461919872547,94.2580723684511,611.991921381713,-33.233743210165,574.360925301384,16.3020107085486,173.989846186335,14.3981213096226,115.914469612204,63.9478950027168,623.172472584469,302.282770720866,1219.76639326297,-114.638065891576
1586.20278736585,-33.2162500010201,188.677323500403,39.3622465296985,663.476584514084,33.8477436263666,1677.16195258873,1.41990768891829,168.379221595013,27.6597246374119,595.387296275139,66.7958991511772,389.661696182593,-9.71487110212405,636.064654762594,40.6944413600527,433.380733363824,94.7775970410036,617.570684207144,-34.9730543174323,580.665919416663,15.1099557306655,171.378826342707,12.5333719501939,118.54672182822,61.3206212194201,620.596296362394,301.006103495673,1211.76375018068,-113.844042715309
1544.35468662332,-26.4317550814226,185.427649156931,39.8785151316414,655.502507793786,33.5747274011513,1642.35351787747,6.26287651924297,162.733574115192,26.3051771637054,569.683413277928,70.4088770796382,380.628092428793,-7.16607043636081,613.307908316806,43.1328334169369,421.210529508646,94.1889744970213,602.664521894553,-31.5486996453779,563.464688867999,18.3051212310023,175.671053137854,10.1846365650016,115.490069151011,62.2350859050135,622.671938162459,301.020234455124,1188.62009641814,-107.024146514879
1552.99450179726,-26.7704207578621,186.067549715704,39.9648661642114,661.094878589862,30.9241778958527,1650.53014653826,3.68897957909922,163.467355289395,27.8758149810013,578.489016253296,70.2641831465806,382.555387809579,-7.54269072779051,620.726406095886,42.9734249332931,430.532352544734,94.5155437789231,607.167911768664,-32.3971726426928,568.166930588293,17.1226757806351,174.689302103197,11.3673633106403,116.696442217478,62.5508814421944,623.33552647549,302.810864125006,1205.98410654536,-108.317212008213
1571.32821754399,-28.715200303825,187.179049566577,40.1964759022709,669.942887779574,29.1570521273634,1658.21646169702,9.40497330315169,168.118512807116,25.8744383576673,590.275432590989,67.7659408507683,386.494635127812,-8.33052161772674,631.394964573791,41.7538867130163,440.253453921675,94.0098433416161,613.174643712336,-31.7846467079227,579.663288779289,14.5016773220317,175.518526697446,12.0508167683423,118.367258900941,62.8844502016131,627.124859833907,303.151971383489,1224.86485049824,-125.802899213596
1582.39792292213,-30.7889015290761,189.227461664602,39.451980003135,672.171996593989,26.7620875064367,1663.30035294405,5.38573223517734,166.363832476758,26.3115232493294,580.869216303976,71.3325625423401,389.00694700922,-10.0936974385793,625.710885250995,40.92528318285,437.475034790948,94.0123944686994,608.032334287093,-31.9683910139681,569.709033242494,17.612584182387,169.096836732692,12.1803744873856,115.630833166298,64.3259928892013,623.576325564192,302.223452790732,1219.02330799136,-119.043375536996
1553.15460983285,-26.2024616469739,187.505539662148,39.3174772239538,656.298307378484,36.8914921216207,1643.26638462854,10.9537244552721,164.929798059298,26.3131488769994,576.426394929536,69.6453533080261,384.525676147197,-8.34533983468626,620.638503176288,40.9053131098097,427.272931902133,96.7710494970825,602.934295115009,-30.6865517408279,562.791019773143,19.6517279772443,179.779235240344,12.6054051196095,116.472054045048,62.6828927074576,622.886119800076,302.193337682237,1212.17172508697,-119.207030100424
1565.18675590711,-26.2877464531246,187.740240277753,39.9703927662461,655.717627791576,35.3676393974357,1655.74507264356,6.62922131891748,168.94265146594,25.1666203679317,583.095775701018,71.4964517183084,386.210175071966,-7.72355242481578,625.079737715126,43.4231744823251,424.5215573654,99.9485563183092,612.091698515427,-33.7175053659806,568.695556378358,19.3031884838879,176.332818430541,11.7571831842845,118.493319576295,62.1579896820088,623.846212264493,303.128756746818,1205.62083375085,-105.811112255153
1591.20109813015,-34.6893983653825,188.985553889557,39.8005726186691,676.708473069294,19.8630999623538,1670.20428879527,5.65853093347575,170.508635455044,25.4579871430025,593.142928749603,68.3894840313065,390.403950541494,-10.324298844342,637.086482390922,40.2308346290563,422.911017308115,101.712895027211,618.998690825964,-34.0615809327112,579.043231742164,16.6034739113126,179.439142023228,11.2750112827936,118.680278063228,63.0763665610641,625.442463714654,302.567919305275,1215.33608432702,-115.999464972744
1564.71563440631,-28.7375775162831,188.109191222089,39.7121274999196,666.469070110964,26.2356919253604,1648.52048119919,7.60709492734091,164.6659325676,27.1907906039033,578.553459485177,70.3602634844063,386.913829813345,-9.80007857566119,617.431503909481,43.0735385081826,427.550121865828,95.7886577510859,604.131670170401,-30.7914188731871,564.118124247716,17.445284969718,179.288819753186,12.3965023250503,116.966383190224,62.7387992798093,622.222802784297,300.801789809591,1210.61272168191,-118.83290167286
1562.3408931003,-27.0059724822703,187.352422876744,39.9788393518985,653.478872960321,33.3367169628444,1649.35390123896,7.11292181292155,165.525136028733,26.049703685765,579.249275980529,70.5162429263446,384.3128267973,-7.16449554513589,619.144206312041,44.841898750319,427.408779380833,97.4184369070633,607.456324735914,-32.2500721211411,565.401651501332,18.9053099549008,177.305131427947,13.099155837478,117.879917500654,62.5923090921314,622.891697284888,301.995040797009,1211.77751960564,-116.696014248995
1579.41125441726,-30.7206593875473,189.340767596833,39.5512050660607,665.930739246111,23.544530116354,1662.40509561065,8.28353615128579,167.089217977666,27.5021901759605,585.572495891689,71.9140497557702,387.787985549956,-8.1978707063938,628.455259878334,44.070953341762,441.727613038463,90.3748308333634,616.062349382723,-33.8422676048057,570.49019404383,19.1969498058829,171.349143965893,14.8148222597446,120.167014982492,62.2005790263671,626.173643905029,303.656970213258,1217.95695702248,-117.949323481573
1604.21273032043,-35.3897628631376,190.906582344622,39.6768441190726,672.350178388613,32.284852339303,1677.54856674733,8.20145301734542,171.306088103264,25.3501211962255,596.62445034503,68.4352676970988,394.465661657941,-11.2486321376727,636.882436768926,39.9294229795904,442.178489365625,92.8462304915689,616.726231211377,-34.0000873943996,574.078396648586,18.009913758691,176.406026287605,8.36496201752485,118.677102257595,62.8862030528017,622.440323248721,301.685419099076,1210.6273292786,-107.781934031686
1565.95652760251,-30.1675920736088,187.868192509748,39.8812812649545,663.937242343166,29.9353978868251,1648.52720589492,7.7676705458556,165.227616369336,26.1642081733747,575.681429474286,72.7094241309354,386.360323837268,-9.93414103082611,616.278325338385,43.1109239040915,425.775415604804,96.1699390021547,603.204225017567,-29.2098129477262,560.66122323431,19.8136646783502,178.165570099817,12.5009847597069,117.061803483001,62.7269600570257,622.918578064322,302.270725610595,1223.12114875099,-121.603615191912
1569.25879510232,-27.6249193057495,187.820947274509,40.0536237418271,665.451704015272,26.4820876630823,1652.82509632865,8.78172816746374,166.166678919628,27.0642442730754,581.530447871598,70.0044295763292,386.800710413918,-9.67673269297318,620.165001600419,45.1612209724608,425.227757880174,95.5501765440616,608.684001023107,-30.0888127276529,564.066239186446,20.5510947712848,168.346872950605,13.3104728817011,117.895231945781,63.1210012761152,623.855290486032,302.088655487349,1204.66671270093,-112.011689547109
1592.67405205393,-33.8679652548905,189.988622279803,39.1769294193254,664.049450393411,30.3570983543054,1667.02411325822,9.11545416046658,166.807762117112,27.2799484603465,591.45140077699,69.464050530279,390.291235580804,-9.88806124443305,631.793799518074,42.8177533345592,439.500821423004,95.449442515983,618.703783980115,-33.6373435111507,569.057679707004,19.0648164609821,182.078792109918,12.8579433417222,119.814076641917,63.6164049217888,628.931123668118,304.074956846056,1251.77024627821,-128.115177136825
1593.24754551614,-33.0780568369845,189.940535648804,39.8931905020888,668.699514965728,26.6467649033151,1659.00469573003,9.31978036838768,168.533276859226,25.5224975671136,579.72458282599,69.6151030385509,387.01286815865,-9.00024550084838,620.355025923053,43.7612788706266,435.623338101596,95.2373062073894,610.39984567745,-32.4249963259655,561.127783657296,19.7683688859739,170.858569075765,16.1902384157673,117.899654863342,63.7530616052356,623.984949601983,302.491411937464,1223.98166858026,-116.753415994384
1571.67158207931,-33.738619711369,188.230379868409,39.9270142310023,655.194306368959,30.0808250792415,1648.35671260097,11.1671337617416,165.765030217605,25.5789146781334,577.068991223649,69.1880614264881,384.101720060482,-9.78162801726538,614.715110472968,44.630973319639,430.479976002846,96.5677290301772,606.055622387134,-30.8064204117078,555.851103397846,19.8015360908102,170.350284179141,17.0468968934252,118.508111306515,62.8166219300259,626.935220491826,303.458564774292,1225.07268557164,-128.442788397024
1580.94280883984,-31.3372558284798,188.922662767146,40.1730883901223,662.016817695193,25.2671134993056,1657.77761250156,10.8561718528556,166.929846658922,26.2067340467908,584.147989268103,70.8474564910576,387.77088138886,-9.75679215796933,624.250008798076,45.6085458369271,424.789351591334,94.8763001307512,611.756830142334,-31.5205225741104,561.945378816015,21.2837309515862,177.814620079035,12.1072554263827,118.176204538237,64.1594373589879,625.493207348982,304.947167464317,1224.94117553692,-119.620224070043
1602.55665838945,-34.6342391306874,190.480036888432,39.4375747204095,662.337350465725,24.1955922174783,1677.765367445,8.06798793471402,169.641329699367,26.6981378757551,595.026774737326,68.2105604810303,392.306345339787,-9.90535105283428,635.550964642273,42.0421097869982,429.71991044948,100.946138302814,618.835162588598,-34.8294987506663,571.585724791319,17.5048578723082,179.595860834216,9.45369404568367,120.499395419378,63.4091218851458,624.638755972876,303.579027074523,1226.5026707284,-120.690815620984
1572.94008217387,-29.0395285963894,189.576318259163,39.2408371138553,663.330048437425,24.547859156251,1649.83674643832,11.781841216681,166.732518090438,25.1269076442568,578.878326777043,68.8567612705524,385.152559332927,-10.0141290847892,614.075144250432,44.4298628396867,430.421929001601,94.9292045883225,607.10667662309,-30.8892576787833,558.213239072396,18.461458751806,170.104357864041,15.0581132182396,118.147146443733,62.8874469970914,622.933398722588,303.459574106321,1210.26083435464,-112.080802100513
1577.10596274566,-28.5536967883763,188.372660657371,40.0180714061766,651.187778950277,34.6922750300872,1655.97985007246,10.6083398628118,165.171751933243,27.2266900579854,585.351939174657,66.8334247937995,386.474578531008,-9.49227350480615,619.710741553184,45.1402865668508,442.315226403438,89.7783755253268,610.897260889511,-32.5027156757372,558.644774916109,21.0346594913636,178.152258668735,11.6642914393646,116.8642294474,64.4791736391719,625.118440767795,303.222494920922,1239.38028469961,-131.568572011704
1597.77249047726,-33.5855008546692,190.418370115356,39.6849374608001,667.788093710909,26.9961493238092,1675.33308473235,8.70560507530802,170.496003444911,25.2713849426634,594.708173327442,65.0327066534966,388.233131291382,-9.36846024332129,629.062013155727,43.0109199999053,447.056899252168,87.2138644323024,617.682392910946,-33.6470479213616,564.415089853505,19.5848391322149,180.809580388057,10.1813409788124,120.322197028102,63.9309077991933,627.434776045284,303.807917451192,1236.33614637468,-122.842223094666
1581.23495599728,-31.8156398083115,190.504951148467,38.849539369713,669.277669259985,24.3779788851204,1656.60719846045,11.4656126372082,165.196949804759,26.4220515005293,577.537667396479,70.1602073996924,384.518788805354,-8.35959039807499,616.045337587013,42.3916545612928,430.544677875225,93.8702317788146,605.822786803525,-32.4967792272659,551.042557047554,22.0584838874183,178.014915554864,11.3011235071999,116.429645668527,63.3150815095128,619.641514066877,301.990408134069,1211.41459820716,-112.177339088024
1566.83183793459,-29.1780592073658,188.086459805584,39.8772684683478,642.56707124977,32.0160921925288,1646.45224034454,12.5792240806009,164.78333536329,26.2381766374161,570.262124624774,71.4517623090041,383.596828299673,-9.7112866531171,610.591731266363,43.6144451913378,433.938621133715,95.2977954146489,603.488901368223,-31.1312242510801,549.037826253448,22.686136008165,169.369822545444,12.5464580582514,118.904427348505,62.6793672923021,625.506774587941,303.313712408812,1205.74586019549,-105.886656060767
1576.19732024377,-28.6112799022666,189.205364514672,39.8503809184136,652.168608099846,30.0329056604379,1660.09768779354,10.1253953850135,166.810954300348,26.3789056990327,581.651922515826,68.0936433017567,384.703281543878,-8.58282214247043,618.490211097802,43.9571049543244,434.676766275143,96.565041281387,607.728396569085,-30.9132570193258,556.939187349756,20.0575522707876,171.533438715655,14.3977047005347,118.053294581173,63.7105291333758,628.131940296819,303.821279825297,1200.22814037618,-106.96650665252
1600.47058529549,-32.3078221965962,190.446639481205,39.8589283337944,665.079041241208,27.222228077841,1673.49288988455,9.65432523640985,168.316246218267,26.4144405461277,585.456527730835,70.1315142755866,386.438682368428,-8.88793133992674,623.139325230979,44.0367326190587,438.652911054093,98.651228019404,609.208620200742,-32.5085418792357,555.794606535511,21.3974320051013,176.9572263155,12.3904914891312,117.897865989884,63.1495077662953,624.230771394359,304.208402670959,1224.3339171932,-125.781726845687
1555.57465155327,-26.6972536696819,187.446046478926,39.7423904666267,644.511950238783,36.117811759029,1640.37223141976,11.7262817225592,163.831742438746,25.7697005271948,564.052272020504,71.5263885489382,379.009836631749,-7.38826800361061,602.042899720029,45.269987373433,417.821306626341,104.820915064825,596.597184755485,-30.0380970197814,542.683414947028,21.8777379611241,172.524221893662,14.3110852137365,116.051368735635,63.4132094543601,625.963720323535,303.288551269879,1186.92403447601,-101.729391308488
1561.17564534625,-25.5456514644774,187.781179268307,39.496471743897,644.784457859292,32.9989561442048,1642.69587107158,14.4665099249558,162.313107502056,27.130913478398,569.790289698216,71.1339744461071,380.089169671787,-8.92204208129396,607.009180988308,45.3941582753093,424.500960358121,90.8787335941268,600.669859532258,-30.0208612167067,545.873816479266,21.6793021888127,171.254491989251,13.7180205135547,115.111667021583,63.3907778986703,624.408465414736,303.419332084975,1193.90436586851,-108.04304693975
1574.37459802505,-27.4193176334036,189.239308106341,39.6800045079529,660.195470320581,30.2740023388675,1662.83315459903,11.3018848843835,164.572575723928,27.3417302003985,577.197283996608,69.5003181414096,384.754264920654,-9.87694079338918,614.282731566575,44.6831228934687,433.476531037966,97.6234509272394,608.097663323516,-31.8573409341042,551.416483073627,21.6912050729608,172.085478231693,13.7479434612873,117.835256365948,63.6955984031443,623.809817804399,302.487832152464,1196.71795664386,-113.626221626394
1548.82650658259,-22.4784999009385,186.164839495874,40.4453039591864,642.166010079767,29.896485139891,1636.47110925046,15.0569126134317,160.300925593847,26.9902419457993,560.596268512029,72.1332204787257,376.146379044999,-7.32365341945941,597.365172411864,44.6875655189745,416.663888991287,102.7765187475,595.670630113549,-29.7880912901039,535.041477238138,24.3813144584701,173.371722478683,11.6709646837332,114.549775999228,62.6367509844884,619.440712227952,300.556852764391,1190.92666472717,-117.04812254044
1551.22273856032,-24.1204173775146,186.372346582971,40.4052133794231,634.275921380792,36.8280150613462,1639.70716670031,12.7257933015942,162.767251879408,27.4719095175756,567.496833210878,71.7494496765541,377.420727277759,-7.44892483437267,600.588390524952,45.2408242017929,424.016685539815,94.8968579560371,599.923280919164,-30.3020721466899,539.11806813687,23.0106422022756,172.507276689797,9.24720654231109,114.926473798092,63.1574361551189,620.182901869954,300.590085138092,1185.1729830211,-106.945138346651
1566.15574673529,-25.1233914048024,187.674430195882,40.4583270815899,644.029129206174,30.8894095761243,1656.43826394961,10.6640500898029,162.328423304374,27.8493524023279,573.92001465806,69.891205673056,382.006493309999,-8.96703039067064,608.057447310185,44.8425531188484,431.508139013916,93.6257599558209,607.474251937734,-31.150966994631,547.109816729978,21.9885012154273,166.552826715249,16.4289787531961,116.913345162468,62.321193133566,620.634417436556,300.918355372792,1198.64786418724,-108.112947732121
1545.77442334891,-22.0786123553057,185.344739735284,40.5599548376392,639.992180633616,33.1079481639326,1641.46384612266,11.6640316133003,159.23228803889,27.7787860389445,556.250321771356,73.9622434723681,373.026866577553,-6.81129593447697,590.401418320124,44.2479924491814,413.881814415302,101.000857113757,593.575752580873,-29.2600646870289,529.80707157582,26.171576859119,166.93873435043,15.4246215220704,114.119353669438,62.4787970231504,615.662521515664,301.250424055178,1187.52765292662,-111.593849604278
1535.96725302701,-16.4155991034738,184.216077935038,40.9752502837246,634.589659598721,28.9449281113372,1634.43614020721,14.378409876971,158.007126878518,29.4001371286669,561.426613981845,72.7980593340568,373.096519364023,-6.61868477066198,588.645854193973,46.7782075530029,416.030096997642,100.026303476952,596.415834010428,-29.5576088208353,533.287535269486,23.1662569239575,169.404358034852,10.8092012866178,113.539959911354,63.0979278089185,618.830353635126,300.08272207635,1193.27956909108,-122.322479259078
1556.48747267523,-22.0427678049141,184.86192666834,40.9530663839744,643.028627158897,26.0330045217823,1653.86793543162,10.4631302309171,164.803881473041,26.9376279069211,571.13403397554,71.4667800064838,377.254128352416,-6.40179342801438,599.717649105533,44.3551561186481,428.877088116671,93.9424586935619,601.290852703793,-29.7902129604774,537.398258798753,24.4439448653103,172.443073059107,12.2966073813642,113.469888461539,63.4749652838773,622.504968952746,302.669010828686,1186.3557748939,-108.346263475241
1565.25969726997,-23.6089909489653,184.825707288523,41.3441801421853,634.355939763251,38.635391100246,1644.67261690794,17.0327994520295,158.897816890912,27.8406961129598,565.802256012812,71.8946345070124,376.382500797284,-6.75039515165304,592.166495883377,44.3952940568042,425.681264335546,87.4548730340009,597.885922118656,-30.8434368812617,533.815098585962,23.5689846492023,160.507133584599,17.9606943490001,112.569823706765,62.4654596292114,617.508300005193,300.615099776135,1177.87256904071,-109.091375451329
1538.83170659627,-20.5608062191537,181.741013587413,41.342203652925,618.196660756135,38.3976029228875,1625.51029195634,20.0335673874568,159.562237406051,27.4334287614672,560.822351108869,72.7235590255551,373.243892267017,-7.53398670637242,580.234975628213,46.822444096985,422.761084045917,91.6138552309024,593.683643915737,-29.7993488623662,524.502687298688,27.176274948702,168.94874525017,17.5494057758425,112.796898830582,61.6195709412809,622.143645492226,301.992141883446,1163.94912509895,-104.667395461047
1550.3444686256,-21.6585974672217,182.49348840806,41.4603885567123,633.572498253898,27.5028911628633,1643.84344712884,12.8254358526562,160.285814656403,27.4308996011262,568.537565572919,72.2391501939691,375.013302129939,-7.09783184918737,587.66939938662,45.785751182044,415.736131213939,95.7134597952768,603.072666449687,-32.4523050292971,532.665016671875,25.1689233498585,159.99749463345,20.0956403233377,113.098986686277,63.3875984767626,624.087701008464,303.715476945262,1175.12095465655,-104.488872945744
1567.84569728536,-22.0353887749652,183.696678282267,41.3366439696761,632.418710579471,30.4608908843127,1658.33946779147,15.2222460454716,164.15192452153,26.6702634310806,578.583833560857,70.4798784613281,379.497854038153,-8.55047700682341,600.124033226903,43.3759275737407,419.103566684149,101.61898759456,604.914402372192,-30.8940559360064,545.39706001063,20.8306302498682,169.993996479404,15.1668138199103,115.928333264819,61.9111628119725,621.859343085757,302.573722109076,1190.5405356111,-115.686895765019
1541.39317439692,-21.7752168479156,181.279466430118,41.6922606786494,615.265655166372,37.3337655790757,1632.57410575739,14.1894652634705,158.388958761726,27.4585008310662,563.02879666055,70.488522831015,372.898653673772,-6.98293833885803,576.689953244867,45.9880499536864,412.033123159763,96.5367860309207,594.591646345722,-29.4164585074015,529.091873796991,24.9705917483435,167.094904249782,14.8030695090727,112.682338313693,62.3518748268757,621.97357296444,302.1034427459,1186.09572988062,-114.824624854649
1551.32493197186,-23.4229664010103,180.472909656416,41.6471424340693,624.406987895493,33.324271599564,1637.44535427187,16.3814162312829,157.149694984052,28.4834601351865,570.779386003744,69.4490073899461,374.247261850629,-7.28002106448788,582.980348870798,46.0486859234965,407.575888066968,98.4289519855401,600.098498241375,-30.7025310532545,535.134820718351,23.2484051915346,168.502715553525,14.5938046812162,112.567054487383,62.7633448610407,624.023808462089,303.53777198864,1178.83112236283,-107.432355583488
1568.0715861906,-24.8152691232309,181.767905596514,42.0728571031453,620.644327330713,43.4270767660136,1656.60122189578,11.1498065373799,160.591883081702,27.2386143419059,577.659012371955,70.9527909718223,375.626843831836,-6.29399291475068,594.623381518548,43.0555053736856,424.241036102672,95.1898762393394,609.729089462273,-32.706703610027,542.660285132977,22.8133349469244,170.88061411229,14.8643070871956,113.015261731128,62.7518042755201,622.699484970395,304.449261641511,1196.98291135985,-116.788967815407
1544.49510080237,-22.8593306717395,180.482567005447,41.2342313278309,633.300856451226,27.7415521362608,1630.19929639731,15.4708404658855,155.973888853307,28.1369134115907,562.697590258321,70.6222032157728,372.388513090858,-7.25507060545024,574.251502789296,43.195183135789,408.782621977542,95.8775234365234,596.014554055688,-30.2143074159545,527.581034946146,23.8060801229638,166.442731693798,15.0735908707656,110.241465671376,63.4292157772223,624.333726297106,303.489602122992,1178.26494051881,-114.924089544164
1544.59826084922,-19.3111613306639,179.552472556375,42.1637275733842,612.110621235026,33.8017274861808,1634.79530232696,14.8085623588848,158.14856368174,27.0642742882152,568.554532688973,70.2672816157132,372.816362797868,-6.55855454281693,575.023545081898,48.3893711964158,404.626470603787,102.525696260096,600.146747287619,-31.9353903475918,533.728373638413,23.5554113771976,166.966312038964,15.6271064536317,112.513146672934,62.5954472758131,626.274267795112,303.988474665042,1184.52017018462,-112.637236590427
1563.03733147086,-22.3238572472866,181.584466674346,41.537322545817,625.881925184366,35.6916042061321,1656.67861130225,9.88068602412269,159.48472167967,29.1444462333674,576.28602082091,71.9071555978084,375.160913939186,-6.98410122690747,586.184991006344,46.9856100528464,416.878009504608,101.163128637403,610.617460870326,-33.3775061784323,545.983735959257,21.753959296844,165.198577117164,14.7195183482062,111.986698020648,63.5807916351339,627.914037020284,305.651209369618,1186.10324833424,-112.386776724538
1556.53321361646,-22.9295010095877,180.776512454988,41.8077956865408,627.169296875534,35.6428792736572,1644.09788070969,12.5876557138272,154.941060699317,29.1491807368677,565.51092511663,71.5441260660313,371.272092782143,-5.26940772471707,574.581565956166,46.1022123456639,406.676351951244,97.5233104231957,600.164576785881,-31.1609123664565,534.240426480722,23.0024159075925,151.192275483963,24.1529551936038,111.071371111724,62.0894003159098,623.443994023186,302.952255523618,1185.72557673811,-113.209293767287
1541.96411467283,-22.6150127100926,179.552896281413,42.1246806379558,610.215041178323,42.8766503395336,1633.82299804363,12.2621347202334,156.841127263477,27.8402164479366,559.369699588382,72.6689851747332,369.841131520537,-5.8312564764597,571.952258023095,45.6370954298432,416.256837042082,89.667744013596,601.817485897668,-32.447103043909,532.185490123578,25.8563368400969,164.430837766809,15.1583572803413,112.287152901504,61.8956585984993,623.493162993795,303.489014253181,1177.20179179242,-112.075832156598
1552.3821162713,-21.6235481237186,180.565746387929,42.1968432283623,624.809597893102,36.7303575167662,1644.00281490457,14.1006540984324,156.847144506308,29.0050047442879,571.80922696456,70.1426434926555,373.544598439775,-7.40378215743367,582.240542588258,46.1446968520603,414.349758650701,98.4772587698966,607.905277919183,-32.8040989187237,545.414627346308,22.3649322110536,164.978155718739,17.7790981971019,113.894541273486,62.8258826307663,623.383548689393,303.485040377679,1190.82855489929,-116.371817095568
1575.57144773713,-25.3377984119194,182.537491462249,42.3412860060946,625.52223271353,37.0515816625784,1670.75400949485,9.59159855471793,159.578988693976,28.5877960321517,582.487740760443,68.848698451793,380.154282114845,-8.73792904421201,596.546630314445,43.7412318356892,429.661944416375,90.9403401488668,611.611276893034,-32.9435017570492,553.066887129236,22.6076903727519,165.757458887545,17.1728124075183,114.855147768151,62.9990172441119,624.699845319602,301.638139436284,1190.54748488738,-109.917268011542
1536.88631419229,-18.9215868078997,179.556003273588,42.0059428700397,619.827725475229,38.8514408237067,1634.50739679995,14.6358836393033,152.474709416532,29.6213704510252,558.654436756954,72.7206895421001,372.793750887669,-8.23185765438342,568.785013809007,47.4839725841351,413.745556844848,98.0218372587679,602.316411647081,-32.5352161286222,539.933648362823,21.9148839878015,160.145037920904,14.9143562116561,111.859826071565,63.3909725340336,622.707910332961,302.535982422452,1187.68811580128,-117.475072551404
1542.54201785676,-18.0843492331722,180.723949201569,42.2174550906841,622.400727181613,35.5075004841343,1644.72946608531,11.3929968102782,155.322823613121,28.6165838221391,566.101631622705,70.7512835754555,374.700920591098,-7.99775903225294,578.126021257317,45.798486067145,426.534127478654,89.6323991869519,605.993759335193,-33.3867372232427,544.07136604519,23.407586392322,166.23096669482,12.1741607628408,114.550378086391,63.2150400656626,625.216370559402,302.40069087297,1185.70840165416,-105.25809336772
1563.74795794655,-23.2144426495848,181.689105151705,42.5075127634183,627.094548848001,40.1211907503498,1661.31651579541,13.4093734907846,157.494416829475,29.7905988879201,574.780780210222,71.5980046214061,377.207392264421,-6.51257738305811,591.151901715194,44.9671009416154,414.228877620305,103.710845523147,613.136008393521,-33.0080126851628,555.101344106349,21.7379195071026,163.441158302926,18.0047357621097,115.238542999323,63.8408920025174,624.562304231857,303.49128703874,1207.77571413662,-111.084979278462
1546.92635668168,-21.0688128721408,181.251603337834,42.021476312805,629.110191752684,36.3055281067317,1645.31366182088,12.6795939979331,154.253349574697,28.946831362778,563.224685394079,71.6809605093487,373.529073274969,-6.54876139624279,575.497171763179,44.9034661514877,421.360854116134,89.3294855580522,602.625751986258,-31.758466631207,540.986980370537,22.4439386782759,168.307847627563,11.8316418518093,112.347662815454,63.0576731825859,621.029424792116,300.838728562479,1197.69519370044,-112.253004345259
1548.17791538598,-23.0828356578173,180.692960487401,42.3536010545627,619.946207158406,38.9469480404799,1642.77114610427,13.9519829556864,155.392344822398,28.7435803800647,563.841324158268,72.6715224044598,374.251423476103,-4.53230175920705,580.819484377623,45.6380561067228,422.643203677195,90.3867038797251,606.518079515708,-33.0085890801116,548.061589795645,19.3772107440178,163.955405046407,15.3222648352843,114.042770155406,62.9642219244672,619.974640504346,301.572418390848,1213.7152576256,-122.467090746807
1561.92923530133,-23.0291230318131,182.533583696232,42.2496535350093,632.422069873522,43.8053811478614,1662.65997434308,10.9706022604979,158.865713913337,28.6102535137039,573.437351856163,72.5731077383155,378.787069499507,-8.06167682431859,591.395714757686,45.3792642241873,423.25731745416,98.8533250913067,610.083816277408,-31.2661968188268,555.284059130258,20.7814102339412,168.331633023557,19.1212622821714,115.687912902736,62.5943750819371,621.567790284957,300.853477251794,1230.61234216819,-121.740849241528
1555.00913019197,-24.2530925876939,182.095464555181,41.772241538221,632.719610780056,40.9545878595894,1647.54322779773,10.8247093062632,156.38260527803,27.3193777718357,560.042380871775,73.5915143773559,376.268813265362,-7.17272577359249,578.446277385143,44.6570970735608,420.038211012259,93.5449987812131,600.146883343675,-30.4333942130941,544.168562720919,21.8219407930109,173.233887037023,10.74188017429,115.442645472077,61.9459094161304,616.633475580896,299.333069249809,1191.85139256435,-109.282787992109
1538.48746699106,-18.5531779774975,182.138400703956,41.827992221015,638.1835843342,37.2157764694875,1639.36229973094,11.4547072744854,154.125501448773,28.4227504743601,556.462168754087,75.3734009578832,376.378552070763,-7.49494689328398,575.924055155289,46.7653056605853,414.911142422544,97.1842715776205,598.891712101232,-29.5299071285749,543.928130528622,21.8266006085885,164.906389079153,16.0865479549866,116.121358279988,61.5395656106741,617.660484693527,300.403557468679,1219.7999379075,-124.57326826082
1550.23802378868,-18.3627213131574,183.163943972688,42.0854535685183,628.464507749929,39.9321393788251,1655.53451333004,9.14413018013338,157.272729728227,28.8036531811932,565.847085456159,75.3003891631893,378.796918752918,-6.03797730584682,586.230789211116,47.6047136790704,417.440430579433,95.7278865343877,606.71095611593,-31.2433074790372,555.62722066005,20.4632511481748,168.95323755013,15.3406924967612,115.118272945816,63.2883097438286,619.811961070843,301.237396984594,1209.47296118333,-105.260198429434
1576.13368106645,-23.3674480731011,184.427233331736,42.2145101828638,644.679985685717,36.0594483670029,1664.42791425479,11.4448583246789,155.600171901787,29.2379314648756,570.714328115294,72.3522426068671,381.332864030176,-8.07035711332746,591.408888198613,46.2710492389078,416.839389665363,98.9567175768235,604.465872449073,-30.9517659071257,554.465564671451,19.9897434788356,166.821582920901,13.6688718896376,115.86718695894,62.4412713704107,618.706542791129,300.322417437928,1207.69895335585,-107.773204472079
1531.59901471351,-18.1391451796392,181.653985033448,42.4589996158705,634.475595280028,37.9519278522304,1639.63973837179,10.5977969003913,153.567080088789,29.7848180874297,551.630203068287,76.9238877829555,375.018386326094,-5.93986410544074,575.923421012346,46.6857901678159,410.276163331521,100.587435338893,598.315366663658,-29.8365175270347,543.723653640543,22.6307916175043,160.008741499872,19.3770577624372,115.494415002938,61.4396496941711,620.813465573051,302.656527770958,1216.92558299564,-120.837105893188
1545.69348934299,-21.3723974907701,183.180453252362,42.4011256176049,636.448645696348,34.2761379603655,1646.16709946788,11.6547706285859,154.609840348755,30.3689581162394,562.761090796149,74.8598215745366,379.208019070554,-7.47569520572454,583.514305948525,48.22940358459,433.416289229313,92.1840126777157,603.190895591563,-29.8361231957014,552.707749568627,22.4906231861583,167.448600782639,17.0611203442924,112.867320696558,65.2128025860064,623.266421141315,303.289209746276,1231.90744804875,-124.287732209566
1565.8046341061,-23.2839466513799,184.957116013456,41.8099921885343,657.185411410812,33.672770100833,1666.98160770521,8.84182183457033,159.173762137259,29.1614501948963,573.729893271981,73.7112612722637,383.919262386735,-8.04468356412928,597.062161444153,47.4148563752965,432.949366535156,99.0675455757978,611.709793901539,-31.4977783818115,563.983629784908,21.1469770836012,175.679282654633,16.5425280597354,115.939869649478,63.3500218426996,623.516695509402,302.635418268085,1229.83817119268,-123.334923602958
1542.4682619027,-20.7500344155404,182.846597579119,42.2419059599459,656.469030166505,30.9553417137533,1641.89685394265,12.9445862302524,155.92894876984,28.9904712596535,554.115358116371,77.2833811857659,377.754248312545,-6.72437459614769,579.983072227967,46.4465163995804,415.727605762865,104.032251616319,601.253804191042,-28.9854796980481,551.703103039019,19.9301765158081,171.173525916937,15.2693825607221,113.371122035662,63.0491305254619,624.230439139051,303.845757293413,1213.74323569962,-122.797267448141
1544.68235588223,-16.925610469839,183.965294225496,41.6706849294408,652.25775423744,33.3275236501036,1651.68941985528,10.0676242869235,154.50668203808,30.3279339618391,563.527346052601,76.371241647029,380.893295947971,-8.31147368679736,587.797208004153,46.8065374197029,424.753158636804,97.5442789688241,605.472722676179,-30.4256087701713,559.63320453364,18.4540701639434,173.182986409415,13.7800259022265,116.162773408912,62.5861013796168,624.026462871577,304.32188393943,1223.42768068838,-120.095106488812
1564.23414329022,-20.4298123706593,185.615497632756,41.5420769507407,650.400903390538,38.1316090604564,1666.24663672433,9.89911776763555,159.755202819885,28.4064970837319,574.888329266851,74.1079773553196,384.589814595078,-7.94767787615122,599.643210092605,47.4098197963504,430.06145434278,97.7971182833976,616.726006650589,-32.5612973708038,567.517125876082,19.4366717086911,174.758217499348,13.0614902098484,118.955292380057,61.9794680421626,624.788720056095,304.485868201299,1232.57790260068,-120.496735930816
1544.9967595062,-18.6732548888815,184.356114766325,41.4145194138853,651.944814484156,29.4492202889549,1649.79233060169,8.38784906942859,155.193792621321,29.2087609818552,562.170721187658,74.797431422683,378.86312715008,-6.67745818887995,581.110384909826,47.7447294963064,420.514631664581,95.2537897552952,605.429937088879,-31.7720848218505,551.291615463583,21.1135275210802,159.051972508322,20.2404463516043,113.962365475631,63.2602688830684,621.126875143234,303.2452610347,1204.04239601638,-109.064463746479
1549.70452464194,-20.0405959343059,184.143379664608,41.8847919861518,653.185839001723,30.6160988082839,1648.06483616725,10.3220218158938,157.427716804761,29.0802661681993,567.306497082843,75.8051576223738,382.263629802726,-8.11013412773868,589.8251719537,46.3418064677957,412.60042851406,106.106348295403,610.966692743774,-33.4547409201655,557.111249616744,19.8298847109825,173.281380098087,12.8942589476028,115.639305981275,62.1081458086297,625.008449890788,303.336449595663,1219.02128585179,-131.890853460255
1568.45510665012,-23.7154676243664,185.611498970438,41.604581639252,657.864557701301,27.5603105186964,1666.43678817146,8.34758244044973,161.266901419378,28.0083456765373,581.090280791937,72.1468345431766,387.398619847288,-9.41763721601412,598.949368187117,46.9041760923888,429.742946648118,100.537111727368,614.111745445507,-31.601793758491,566.012792167075,20.4788783667359,172.343696560434,17.2663180259291,117.752054646849,62.9046011927718,627.565028573818,304.630069866439,1224.15838547492,-119.619166304202
1547.41906707459,-21.4911982788395,184.03628431344,41.257480850531,655.496891794964,31.0606186219404,1639.20327042641,12.543840768969,158.275726034832,27.4325513958411,561.898076681601,75.5404035693683,380.218662847106,-7.90488855621904,583.273420686672,46.4510190553659,422.689923964965,97.4252587987701,603.273509804701,-31.4674548056865,550.245412041648,20.5882337161756,170.113816031843,15.4666900828446,115.327849453195,61.1860860387756,622.950003917206,303.822006419941,1198.37713195781,-114.592029445281
1540.34880085529,-19.2860857172824,183.448486875586,41.6542315570187,660.357307753299,25.0611811275425,1637.60828033109,11.6778951887557,158.580878244139,27.165301016013,566.722687223427,74.5849055604901,380.643189619153,-8.05285520988212,585.710070445499,47.2976451377684,422.239562361688,96.0823963450773,607.179963453755,-31.6865902649906,552.433785368106,20.7407011548292,177.335829972652,7.76932350639858,112.23652674351,63.468656288467,623.830218883716,304.795332200823,1221.66863976294,-120.554136180494
1560.63336964253,-22.5009823243522,184.960458906411,41.6454215311767,653.774626301411,33.3731027673563,1658.21762971212,7.5242194302619,160.591385342177,27.7682840108811,577.163491025785,74.0477857652995,384.098017543809,-7.70171860837724,596.562112550713,47.3527929547014,430.289318533715,92.2699372548597,616.790938442662,-34.1118373704299,560.282080033211,21.3760169108921,169.445606917246,16.6067425180954,116.058527551186,62.7810068307017,627.660809318686,305.418697839334,1239.88562976948,-127.815985555912
1557.19748902806,-24.0598584883631,184.76854747742,41.1867160547188,656.07456925929,31.8026021153036,1642.14353364512,12.7123795728856,157.294968376322,28.9551315109675,568.545630816233,74.1923512012588,380.140282345294,-6.16646435530022,584.080148378671,47.8104842018876,424.428487528577,97.2756879625303,608.119284272241,-33.0220594384553,550.417719324746,20.8850695425136,169.526579147042,13.6399965054563,113.854420662325,61.8974114496878,624.894911371885,303.855885450434,1200.68141054482,-110.257096527033
1546.08160926975,-23.030807749509,183.256181780146,41.4479416365545,651.15343252224,37.5958395665996,1635.16004200759,13.8317763789791,156.975774095638,29.3017051712274,566.750841647501,73.6842403208798,378.880351961612,-6.52494260965336,581.915940980081,48.5147846481195,413.155399147529,101.300185438428,608.370562551081,-33.2910744554038,550.802710372804,18.9427260032475,173.30018359512,11.0839085281205,113.227782108575,62.8194388180786,628.09950351937,304.786990048273,1201.45701211872,-111.248506706573
1559.60796089753,-24.0004564163229,184.776807031857,41.5619000753444,661.794123794179,26.5201713579316,1653.52579314379,8.80151629299264,162.291797980312,26.9443772728855,577.581937558878,72.5911971792421,382.482152459867,-7.74450301078321,594.102234994859,48.0098547657529,429.683235175426,93.3199199712066,615.384214067121,-34.2768662079978,557.221754623419,21.0707665514144,166.650084548405,17.2733866323221,116.251692078446,63.6951404775688,628.918757960402,305.625841387604,1227.93055693191,-126.874538359553
1581.46410074029,-27.6649494734927,185.063917789239,42.241718348676,664.8567293249,28.2472901557177,1659.86557351724,10.314715440951,161.496476218464,27.0482956515594,578.867163582006,71.3455071818079,383.652675789787,-6.91680573574178,594.27030191126,48.0416386823915,427.0738077314,97.5142093649863,611.898432131267,-31.9952563882009,555.196828922365,21.2225810950331,174.367308155444,14.4424878861252,116.595675157585,62.2194563907767,625.248427367666,304.844603155958,1224.9843432002,-118.265769269483
1556.37083691384,-24.411594486594,184.047096799562,41.9484755894426,645.640430252606,36.2799274782853,1648.32055820412,10.67630007524,157.210147603687,29.385777385515,574.088295822087,70.6954844053816,381.327870329332,-7.59664411508612,588.237472718971,48.2518177750752,422.250175490794,101.199986565486,609.825422039637,-32.9970631947422,552.12116471462,21.2853586202788,164.182022800944,19.8709195066277,114.181944101737,63.4704932021932,625.039644614413,304.209216668469,1234.09987990563,-123.213926378658
1571.4335216995,-27.8867623586493,185.586617655667,41.3548737579873,656.674564122499,31.1390894432855,1664.17019395335,5.93005642009279,161.00683845724,28.7022064338423,586.722773796074,69.5563858511763,388.046610128879,-9.97777124774274,598.902862025247,46.8178096439507,429.767230252115,97.8379677461368,620.47714698404,-35.4498658381476,560.975960071835,21.5651677756472,180.432887404334,12.2300613702442,115.933349097437,63.5661400559708,626.486764168615,303.885766655173,1230.46222259219,-114.224142613947
1593.093564678,-31.1749673419772,187.411929890633,41.4651379767955,679.480021614017,25.2294434972805,1675.51963689238,5.94939640931888,162.017476687713,29.0451388343491,590.279078462037,70.438169500527,388.172438062374,-8.68764712475703,603.457986864972,46.3709629052698,428.66564230573,92.8592632188977,618.274615725459,-34.8793630384591,562.607023580937,19.4797534147561,174.639342212237,14.8741267717001,116.300538032073,62.6169738563676,621.046904562829,303.417585582866,1220.28778906197,-111.247830346684
1563.06422645853,-27.232327225383,185.861394263579,40.8470481163584,659.834568058615,32.0618556593029,1651.05291889907,8.80882352315734,160.416719451055,28.2070339731855,578.663641599152,71.9058417630844,385.230237145898,-8.49813720954607,593.330643017861,45.8744747809832,433.490320029515,89.3635394271596,614.601413677891,-34.6925701317062,555.852291433796,19.626524355653,172.671029545287,13.796757964716,115.894199868549,62.1707524597877,623.270565443075,301.894892664675,1220.8816729438,-109.15051790357
1578.51047843281,-30.635825461521,187.078491018031,41.298813335331,668.770340322906,25.5237553209333,1665.53860378962,6.54281974172969,162.137336391915,28.6616053774709,586.665079839004,71.0087575515932,388.924708862024,-9.5027226066176,607.147755593972,44.2112743129197,435.413843958463,95.1250283934008,620.832117683876,-34.1356019579787,562.391752588045,20.0561589863868,173.84418243078,12.0944407391459,119.612702802881,62.0175995796073,624.468682144933,302.711007439239,1243.23882290504,-124.405674297403
