246.126006051374,-14.7422438550052,361.529462479775,43.7295765489002,337.00754081547,-33.0142517385597,1207.86294945673,30.5878031301044,856.001708789678,3.18644630359908,379.031802036913,16.7405589930931,270.824070958027,-26.60152595086,483.129476563252,-29.8327947872027,428.529100147343,45.9266351701491,238.786821867622,-3.574821608588,259.301360198372,4.05446788629007,604.885684543999,-21.3485009175604,1255.1336362515,-2.09309623550404,672.166338904691,-70.179822707423,471.733220496364,-46.8066341414397
241.285277558322,-13.9731792879729,360.938907197038,43.2653698477776,334.264389566838,-31.2791815397235,1175.94300196342,34.3333517928405,845.383516616879,5.64224964285227,374.862666491056,17.1381987158574,269.770352773305,-26.5267139139568,480.525509535383,-28.4935815866692,429.825622848549,45.7523625306542,234.170663051891,-2.70298406027694,255.62529448417,4.82256577028349,611.806592670975,-28.1761220750729,1256.35187844527,-12.6719313266121,665.298032387243,-68.8677784723682,469.99830107735,-46.3014926196977
240.715507167838,-13.837409835332,359.589755369638,43.4595078600083,333.592962388671,-31.7615690364173,1175.03159344275,35.3313299589151,847.910814995638,5.18507327075719,374.401212552156,17.1418718941419,269.817517926153,-25.7205318851767,480.812901020675,-30.3715149828634,430.234003389333,45.0406061990281,234.994346092798,-2.93938418435345,256.081069382728,4.59287167728947,606.48473488358,-22.0029754637229,1252.23546173693,-0.68634207005063,665.840305976376,-69.2205000476368,469.389152808803,-46.0565620931201
244.038175961301,-14.4037047001933,359.631040548301,43.971695463663,336.13853534427,-33.3135437072483,1194.81055983966,32.0447652343496,849.16848452653,5.32258917317302,376.390567956295,17.1779177889813,271.141193830267,-27.1249925551954,483.91557551536,-29.6806257244026,430.657129735434,44.1398017720451,237.481328359298,-3.50474339325125,258.152877045581,4.24848074020764,596.549488067503,-14.1459634516068,1264.2243718036,-4.29286465906508,668.531157607802,-69.9986331447235,470.651332538713,-46.7966167758524
246.157658091167,-14.7528186467589,361.290251358429,43.6532758611234,334.840039765516,-31.8064090891483,1189.20259307027,33.357747943478,855.484377240288,2.96926694916667,377.493454505901,17.0980357825403,271.176979964267,-26.8378348941258,484.453664869743,-29.6124251697339,429.748560859526,45.0495261639891,234.754576774962,-2.6421845451118,256.101597366659,4.84590048554866,606.95783560545,-23.6022844258937,1258.85319138144,-10.5791135624251,664.489647435057,-68.9808659613782,469.717129781969,-46.9667256254189
241.961065528567,-13.9001749663429,358.51112570207,44.3699667730884,334.284169491421,-32.1172827904782,1177.72809943629,35.0675904129501,847.487019888203,5.1375937448391,375.055148717333,17.0951560364219,269.346718335566,-26.789354927324,477.690379030164,-28.6177930859462,431.169256964734,44.1171227825123,234.386311766426,-2.68623638905251,256.336069152711,4.24703765485599,609.896471828096,-26.3798855382678,1237.05145574276,7.39142996134489,662.82073781442,-68.5352136776291,469.966085137485,-46.4429613223804
242.855760141906,-14.1789492642879,358.71149540843,44.3785914534971,333.737785093799,-31.9666708979638,1186.41033681182,33.7794662264996,852.028029361887,2.9069918833548,375.573035049744,17.3258756766194,269.429364051612,-25.3562924281429,481.614038577588,-29.0879277250483,432.327877969768,44.8596760842465,236.372822793305,-2.92075261615948,257.976353536311,3.9356841660045,599.089731988786,-17.4637384491141,1255.83935918658,-5.21674525520547,665.103776917226,-68.8939704052435,469.966165319487,-46.9214819052213
245.79428430808,-14.7162023815581,359.679141997872,44.0557165364641,336.803975562385,-33.6970809075437,1207.08835154434,30.2535644315414,854.682108689818,3.898115274257,379.247935336479,16.7177677556792,272.373402207198,-27.9123396033122,482.347929630292,-27.8145182933054,432.286309983754,44.562106309715,238.767512656973,-3.58388468503054,259.240034955662,4.07476405821783,608.129213165474,-21.8938753339369,1256.33535373071,-2.520158397602,669.712893843051,-70.2238846383691,470.461622175306,-46.4147657003947
240.027730253134,-13.6136862051151,357.77879712792,44.422440829585,333.267917125135,-31.8304163961383,1169.82498422982,34.4690032503923,846.407320138015,6.62728419327128,374.471909239645,16.8847406482015,268.39309874046,-25.7237254977515,479.304116960527,-29.2791918922998,430.4641033186,46.0590203212604,233.047241297458,-2.41375813619468,254.995099028862,4.9210526333071,602.860563153488,-18.9110400866309,1252.79960921078,-0.278727356849162,661.4891403825,-68.3671973753608,467.814303078287,-45.6050863332858
239.529237271453,-13.4735527631194,356.323660241005,44.9891621351995,333.421826757708,-32.4782362370365,1170.50045060337,35.5117971848149,843.986455953077,4.35923555876521,373.221497052956,17.4024550296867,270.653175269313,-27.0532039416986,479.865714734254,-29.1014418493567,432.180317751786,45.2542724996941,234.054900887108,-2.54692399523277,254.970088424791,4.85765419528875,608.00479749409,-26.8192916836759,1251.61657493644,-2.7156815157422,660.129556851484,-67.8445213937025,467.289147747357,-45.7885982367281
242.889101688423,-13.7660086803224,357.743179178173,44.5125198431019,331.07168657917,-30.5553817832163,1189.47184789129,32.570000010071,848.761144284425,4.67948901986106,375.720061964145,17.4199058336205,270.328178650783,-27.1618716500217,478.206996022973,-27.290049132117,432.942583248168,44.571121418118,236.284913515805,-2.9369301010561,257.196766408471,4.45820396656764,606.465536099512,-21.1347360866419,1253.59198904371,-0.322257703144714,663.766480165254,-68.8756434861401,468.639254436301,-46.5927778795762
245.965988386457,-14.6301062596643,358.897750180897,44.0262477454829,333.266043150801,-31.0369973032703,1200.89018976429,31.781548870414,851.434289787155,4.99394167037336,378.035577529108,16.9037798131058,272.060148196577,-28.0748298499723,484.649390017912,-29.9835262017664,428.007098743464,46.8532779903616,234.722729522702,-2.50304666388209,256.297141234305,4.69640054392181,596.839097578555,-16.4458174676118,1266.21916198137,-10.7118333547909,660.050969706038,-67.6085635155342,468.274023351066,-46.1952487759156
238.318823397148,-13.1246799459691,355.270003876643,44.8792094689229,328.76766314358,-30.1259109313344,1165.25762448969,36.1854912220439,838.919610917444,7.63380612053057,372.679195006138,17.5338633035231,269.57219088976,-27.4357252645981,475.737280620227,-26.8667687035197,434.65013937155,44.7689755201108,232.894413987532,-2.4461273690361,254.229839598037,4.94138969684132,592.235665202947,-11.9917743035029,1236.87568159746,-4.78753802560456,657.369121347417,-66.9474124671918,466.537163230876,-46.0449350448432
239.988127110986,-13.6939136699668,355.006249362863,45.0288246984303,327.477656716554,-29.9605629504703,1173.29383144019,34.8850717233926,842.209454914003,4.3672996263357,372.483901323215,18.0182928742415,268.94703077101,-26.4679161219132,476.858657169398,-27.4413671887408,433.074853855127,45.5066001777348,233.958105992333,-2.33817354524072,255.353677046091,4.90897910094675,597.007848447445,-15.0256166678668,1236.37116255008,-2.00131875087667,660.087858238047,-67.7782087459494,466.500330657639,-46.3412946491676
242.934904118495,-13.6972143071264,356.375479307586,44.3595473235142,331.879573268329,-30.8538907351243,1192.35518459063,33.9595612170448,847.297673734564,4.74075088229865,376.885455296499,16.8738331474237,270.796753860386,-27.6005598884345,480.507996417032,-28.6958813203354,432.540102473126,45.4525345425579,236.434410447599,-2.96022870642943,257.813233930124,4.26621490450224,600.307126293079,-23.7097131200193,1249.99197418663,4.45704808494957,664.571923703067,-68.9758357864704,466.984153572951,-46.055305697042
243.30549964199,-14.0502027687918,356.43340430077,44.0229253492862,331.540394783122,-31.9907871482303,1174.76644371704,35.158723719394,841.776311152581,7.19455475146707,375.915713442,17.3599988187049,268.690694740373,-26.004486953841,481.437437798957,-28.3458957467756,428.514267720871,45.8724827299442,233.176691568669,-2.34875555241885,254.559347498106,5.21484991630774,600.203285040639,-18.8439024906063,1247.73300725643,-0.700814874706737,659.056970590579,-67.4126174874639,466.162087809724,-45.6069927647634
239.311782777824,-13.1133701877304,355.313994731567,44.2253996009272,327.595871553278,-30.3321036837774,1169.4738074842,35.8514374652279,839.673124067667,6.29888835587482,372.997761146668,17.405987951571,267.851271589839,-27.1186433874226,476.272614484722,-27.4655253358126,434.057908723121,44.9310268241039,232.932693710097,-2.54152887139168,255.004955441165,4.67144387108237,605.452400748262,-17.2588371848435,1242.22803431782,-5.6412662815641,658.391334132907,-67.4808884570832,464.924764942896,-45.4660894403157
240.53966579196,-13.100892201942,355.081172367611,44.3992184969241,329.242470983679,-30.4334094741394,1181.17182843156,35.0787226232961,838.887762010331,8.33776216227331,374.027774139656,17.7848966031392,268.73037450322,-25.7410232169558,477.644886806655,-27.9502756163742,433.790216413987,43.916366912436,234.928453508237,-2.61089880053366,256.601770438858,4.3302390526327,598.256921948409,-18.7137627686672,1240.70911796913,3.43273133622426,662.129072571743,-68.2781761566414,465.509276115967,-45.5401749290535
244.053453726403,-13.8673325359016,355.5919458128,44.1241855866399,329.644066525661,-29.9256352777658,1201.86899261412,32.1236470587177,843.784800802236,7.46066205471963,377.90540332772,16.9445275044327,267.601486747505,-26.1083964210278,482.079387718236,-28.7508654008325,429.040392928032,46.5177613763964,237.754205997642,-3.21712751561263,258.004141708462,4.39664085350022,601.237653607281,-19.5947370523447,1260.34849394247,-2.37889141643886,666.025883785034,-68.8095510562842,466.742342145363,-46.0350295583352
238.792525365278,-12.7293810746508,353.650082813524,44.7927220329899,327.649181889512,-29.2797926635984,1169.74639123956,35.6173456848731,832.101858573822,11.1735669845454,373.563411625107,17.3492623623176,266.404077236353,-25.4666045144745,475.858315975127,-25.9535140131953,435.608744645518,43.9051044945481,232.952027094095,-2.57964779067298,254.446580532243,5.06977175085101,598.681598925344,-17.6973092926767,1237.47492506294,4.88688544370713,659.618407111895,-67.3527225739968,465.200550624694,-45.7723560268577
239.735990035554,-13.1808250089974,352.526323490624,45.6760493655348,328.590963131661,-30.274452484987,1170.31598009634,36.6635128284803,836.192896086288,8.41230206840009,372.528514694736,17.4252101339732,267.343831678119,-26.0441812255283,476.522528223677,-27.6128863965008,432.453111896027,46.1419370827987,233.532396842336,-2.679404892355,255.14949419836,4.93294158232659,600.368770681644,-16.8994118604193,1220.03422198116,16.2267312105447,660.650890791684,-67.53709876432,464.240877093847,-45.4568372797684
242.60888203358,-13.1925809489446,353.620822878297,45.2564490565058,328.209536102222,-29.6554136663115,1193.44129335749,33.9816359922684,837.761779299319,8.33489975691809,375.533329369396,17.3157011010547,267.315471607374,-26.351857371674,479.049998177442,-27.7473517217233,433.221147775898,44.3055647393105,236.554150683924,-2.85567083051586,257.334621763836,4.57059191978179,599.21093979519,-17.5869947473997,1244.92185525963,7.62675952333967,665.454278018018,-68.9343371545235,465.465862037515,-45.7760342759473
246.734608973324,-14.4424951573451,355.441250826054,45.0799347212976,327.717804022028,-29.1455103891946,1214.18731657544,31.4001218040023,843.943063800397,8.19303954781986,379.52059124692,16.7116426560578,269.660142312998,-26.8414715116718,482.672850307101,-29.0165888566236,431.578577680942,44.2580725538634,237.764470318074,-3.24720408930251,259.227247528956,4.16911287342444,598.280161440684,-18.4676657396613,1263.95526334,-3.37901016326625,665.617514546814,-69.1295018445176,466.334232379908,-46.1642062202454
239.642629518347,-13.1219085517989,353.284763370813,44.8671799158655,326.466108158496,-29.7100648630607,1167.12442450134,36.642513281056,833.733791912841,8.45998765979748,372.091750132716,17.9872265092185,267.082975718219,-26.8654453072401,476.985661261894,-27.7833212111316,432.597371153976,47.4200632970176,233.514780363538,-2.53375886612104,255.167581040195,5.01569774132696,592.940217998711,-16.6619707184309,1219.93360480183,15.6153742835446,662.127010299564,-67.5387248930869,464.136793329962,-45.3015491176525
241.276406157111,-13.3127431030167,352.511545826717,45.7023029343903,325.046661233726,-28.6448785390226,1176.06186334014,35.8667914787405,831.838999408953,10.2081011508737,372.613609210557,17.9414537475063,266.253493958433,-25.2636118113823,475.507743667153,-26.1938833340349,434.472857197453,46.1038226198624,234.609520550943,-2.74197302549989,256.147234638216,4.66562058650124,587.741002527793,-12.1606347155864,1234.35354463056,0.747942236594681,663.306638060423,-68.5372718440504,462.940598582767,-45.1838331811098
244.696445173086,-13.7487758976578,354.913687889712,44.3477436743652,326.89136441787,-30.1091292923635,1197.76093544648,33.6616405877074,842.222066502297,7.47820013181395,376.854111813907,17.1752415856875,268.148299072407,-27.209932558067,480.432723110204,-28.1399832292584,432.56660538664,44.7933437868045,237.143124476732,-2.91411694272407,257.463242766463,4.7871728284548,603.629647422132,-22.9775107748199,1258.3895777993,-3.60438205318427,668.496932275334,-69.0540445552675,463.828812361057,-45.1354487698589
247.694346771465,-14.3614849028468,355.838394415012,44.4626453809288,328.108738016691,-29.6273054677656,1191.77753652413,33.5336792859491,843.419121447241,8.63295432843573,377.792748844051,17.0284497931813,267.537624532038,-26.2833622179149,480.763993913137,-27.0341531333619,431.581802949557,44.5349910701109,234.253159324722,-2.21590280923939,256.107463365836,4.81084221524761,598.805181990968,-19.4595546940068,1252.99606233702,-3.1235817243544,665.5214516431,-68.748337012729,463.774725251768,-45.0572093963735
241.756184224057,-13.1427121305365,354.81667915485,44.5184370753652,326.937775436814,-30.37096685423,1175.61497949266,35.8880227913137,836.420046435543,9.30731178660593,372.826799319364,17.8676731082774,268.440275199343,-27.4717955332632,477.869869920433,-27.4814937750171,434.591822881316,45.5901297058018,233.801132598869,-2.5840579251838,255.16718506324,5.0723369567104,583.940327291957,-12.4605663875293,1244.16024411001,-1.38992874266217,664.604151167759,-68.3421279938856,462.515696162371,-44.6728371527858
242.671705522272,-13.3092307015412,354.085253398758,45.4535025206812,326.569763415809,-29.4686861402787,1184.73747457145,34.942747036624,838.457868884707,7.68833343216886,374.474714726841,17.5925206253611,266.396960186169,-25.952676538952,477.63045336479,-27.855251531735,434.224815519815,45.0089351920848,235.506741566268,-2.67933273811104,256.519469364602,4.83130994916671,590.544845142539,-10.3091337334549,1232.71371784856,8.87685442648432,668.201084821183,-69.5964138645359,462.588594207244,-44.3863139331852
246.38869133895,-14.0895578748527,356.401404117146,44.7469031917352,328.238493954173,-29.7630864933627,1204.90342939774,32.4749217785678,842.133130323053,7.78506241523195,378.5682050016,16.8850066222285,266.100933586957,-25.8020858505342,480.757405058905,-27.4410864702214,433.733693537993,44.7723440255748,238.07768806859,-3.06592561259411,258.993589060965,4.53770798640918,604.695819293292,-23.8360996106862,1239.6320058864,9.13784640056725,671.685111215905,-70.2872865529546,464.773262009004,-45.6736714994788
241.339629142038,-13.3390069122155,354.9440375292,44.8188672948562,324.09331330269,-28.6001293070728,1172.02324577779,35.034715467304,834.763565152836,8.78702146402122,373.539981891812,17.4900043147343,266.865851293381,-27.2316906873627,477.283135302126,-28.9102661882867,436.531299812679,45.6628443108673,234.135920488097,-2.79139851480906,255.705602318772,4.48653225515905,587.514157363018,-12.9451375407569,1231.63757576595,4.91842090424518,666.277114309371,-69.1169105440945,462.453679829741,-44.7633628833472
241.97010214286,-13.5723156464399,355.819047125156,44.2867217493205,323.939184067135,-28.7549726980921,1172.71643813149,36.152787320788,837.620687697142,6.57437269666104,373.007099862506,17.8116171578123,267.115293324272,-26.5268300103368,476.167210387411,-27.9935793821645,433.902157775108,46.8761532533324,234.312911163621,-2.5592363618613,256.054466733635,4.84426939018526,601.040227976483,-23.4614293099114,1248.55741954302,-4.70313991759433,666.542919438908,-69.4413039484674,462.518692601206,-44.5706972370503
244.892097812198,-13.8466027894137,356.042259437154,45.574019650074,325.848533337484,-29.3078133742359,1194.57753322115,33.3280013997328,841.877812100348,6.33629472390068,377.168918847727,16.998388313952,267.962741360195,-27.6649161955562,478.890070347221,-27.4694761747964,431.397373715539,47.4117150479317,236.861172465611,-2.82385601074891,258.220194928087,4.48471269289438,597.165356482688,-22.0174730433699,1256.43623746759,-0.555360400935397,670.804161748059,-70.6777207541735,464.048223215793,-45.3367620108762
248.128254673962,-14.350692977159,356.76737694103,45.6495957233083,328.788643464758,-29.6799727720384,1208.4585046009,31.7677682514881,846.273401488539,7.52125588789098,379.193658033869,17.0508416419435,265.13792500179,-24.137973595482,484.602119054887,-28.7159054591083,431.406353242433,46.0274123869362,235.497489801443,-2.58689811758657,257.363246240156,4.91188583167564,600.867930456103,-17.1371617097417,1265.93563061137,-16.0348556361517,666.635737979341,-69.1089512845276,465.028215106239,-45.7828977882367
239.507971264556,-12.7577788036644,354.75604969083,45.6588965293564,323.027444198018,-28.4573086294142,1164.59507747953,36.653482999231,834.624001871554,8.24929292240378,372.192339328957,17.8365261385853,266.190332161192,-26.0035492029705,475.04696054502,-26.7155518517905,439.212480481118,45.7377857000907,233.020391001784,-2.25847062496258,254.484849894754,5.61636277248491,586.892299283988,-9.15916329395503,1230.50756083981,3.65272186423347,663.004193269983,-68.2247748717638,461.892316384339,-45.0395435700898
240.793096925231,-13.2521216242535,354.756906671014,45.4225459813928,323.738780206286,-28.5584490259684,1170.79203087372,36.6704916534154,833.682527662498,9.48694181628871,372.692250238632,18.0468897858777,263.705255708006,-24.1544763858818,475.516691403529,-26.1399619049309,438.64202366386,45.7835597446359,233.708289947773,-2.21223267523055,255.471436909084,5.39137692535092,584.154707146207,-14.1588812495928,1231.86901481401,7.56435793039328,663.684052525433,-68.2137813952648,461.635861122006,-44.4893758043285
244.067289822864,-13.9598983764697,356.254564827493,45.1292626636844,325.394684296538,-29.1864130694367,1189.32524988352,34.7553217249216,840.524784162336,7.30608581618527,376.110386280823,17.5954580989613,265.956667290532,-26.4524171482798,478.584086410693,-26.8594452018034,434.71962527856,46.6028149099821,236.820437179748,-3.01744450487789,257.393364617073,4.79651507563793,603.618334352359,-21.5626588191534,1248.02221882499,-2.08620922517863,668.475962206471,-69.4208939795644,462.982423942395,-44.9225964282902
243.099854975783,-13.8511753548737,356.08372026347,44.7090503521915,324.814120785254,-28.3792929534975,1165.18629784571,37.1743486598043,843.940482221307,6.18810132029624,374.033954127423,17.6972517470385,266.394867688963,-25.9719767603572,480.652331493701,-29.4201102801832,432.529658075035,47.0585746613929,232.75680299414,-2.1123510655276,255.279422850596,4.99429589691193,597.750588940351,-16.5638105349864,1241.29317436122,-1.94847762885204,661.12137389374,-67.5391438669677,461.506854749627,-44.9587124309805
238.834987342471,-13.0151234589551,354.180105818505,45.4827497128436,323.873440770073,-28.9718798030556,1156.28827217142,38.8135027588213,830.269967301588,10.7976496769969,370.547320250352,18.1415720496172,262.275623982999,-23.6796173902245,474.631000093284,-26.91248272352,440.765978025274,45.9452418065512,231.904841107566,-1.97335950639264,254.706593174563,4.85848847543821,585.3707836368,-14.3216335475353,1226.36093431676,5.95922388002307,660.314017676398,-67.6970845783513,459.954455381145,-44.133369095339
240.016534616061,-13.1979900002328,353.726655483262,46.1997517241729,322.366942934798,-27.9213618683905,1166.9861314556,37.3284284399814,836.310086001523,9.91303462500811,372.727337989834,17.9405581163168,261.419200384136,-23.7854609418562,474.073195759916,-26.05967390712,437.64249006286,48.8735583314687,233.051191275829,-1.80347586281051,255.786770713805,4.84541983783934,585.931511339557,-18.1433657689537,1222.62753398265,8.60197400700288,663.478768630213,-68.766022873801,459.298268726328,-44.0643211565906
243.065048698114,-13.6626089639246,355.149158350489,45.4954275217503,323.282102785412,-27.8684654291193,1184.13350027602,35.4955892321831,837.864369127094,8.5952558900107,376.467999358441,17.168878092947,264.479402486537,-25.0221009805925,478.901866551152,-27.3871361804061,437.021427949623,45.2123390431306,236.124655489999,-2.53197598509306,257.388999568298,4.79871271392873,588.80388532853,-13.1540924114521,1235.68349660609,-0.0873706590366272,666.708295216613,-69.3126543947167,460.789205348241,-44.1477766677935
238.331354397848,-13.0440297914883,353.35744326984,46.0631147535046,321.554934719435,-28.3097406912,1155.05393467668,38.4908020734201,832.04941410894,8.41691170122241,370.848109242803,18.2693614517631,264.162956159003,-25.0526995392077,474.848965424938,-27.5934006061975,441.616639690242,46.0782106466448,231.838805113928,-1.89070665214064,254.036289797016,5.49820476231146,578.872579455282,-13.586898635691,1235.89785638515,-2.01745241375565,661.016517981768,-68.0611458201184,458.053654394775,-43.9317363707476
237.945074390878,-12.7427690429159,352.923880934635,46.4093484065614,323.402092268532,-29.1048037235285,1155.30292931958,38.528707006978,834.031659339962,7.09063945126913,369.917866686492,18.5961039161102,263.846062422105,-25.8925159507276,473.915443961916,-27.3294642056553,438.80184978296,48.7709432427064,232.303113170016,-2.04736996022438,253.917600771639,5.65600752760553,581.154949354404,-15.7530992487103,1232.17069669523,-1.05640507339164,659.857163766691,-67.5369563069797,457.900649128264,-43.8907497392613
240.808341120152,-13.1127637564801,354.369180025825,45.7392539709698,323.618951680087,-28.8421475248044,1173.83492537055,37.4319857695296,839.023481976096,6.39402942259756,372.661023664881,18.4129572798342,263.590379977741,-25.1568140458576,476.440910632133,-26.6820888189635,439.309096786541,46.8737154431578,234.534725045513,-2.47439656281517,256.498902037919,4.80125164864433,582.293324967239,-17.6793969766414,1221.55217715744,4.99863605132043,663.370652522909,-68.4324397268081,458.248463404918,-43.6660947531066
244.521154287106,-13.9434287507854,355.803200036227,45.584186458868,324.705488315834,-29.0126962452163,1187.44121568283,35.0302646784594,840.801211905904,8.7071023061019,375.870051179241,17.4983418735458,264.474104835535,-25.2903176134768,479.845304423771,-27.8728694567975,434.285974036602,47.4232325357668,232.86205523887,-2.14142368842308,255.147217006476,5.38917494661027,579.216653476384,-9.63436282575209,1224.54143632725,7.37317071715805,660.278933450585,-67.227526211059,458.28779173717,-43.4568007047162
236.580664609937,-12.4594990321708,352.685775188077,46.0526640353854,321.367874868499,-28.8558179271076,1150.305210818,39.6606456429998,822.589430282752,13.5737659304114,368.912978870109,18.1413663687377,264.303830645166,-26.0637040184466,471.878704085732,-26.2204571226496,442.837563516141,47.787232530654,230.368216248535,-1.40976790867113,253.192551866719,5.36703751016857,579.851931254867,-15.3190606947897,1220.41965118134,3.36108127805515,657.845752410614,-66.8673150499875,454.897541540307,-43.0979467629002
238.533532049277,-12.9731405960096,352.558835902862,47.0009572081492,320.518006677367,-27.6003226970133,1156.89237854733,39.7393363252616,826.974439418807,10.6667015104685,369.462916595084,18.5755210755822,263.331913974072,-24.9021834689052,471.459513666317,-26.0058962043588,442.401447815293,46.844396296583,231.720449866569,-1.8801951212008,254.102624713836,5.46127644346066,576.205546523964,-14.9051574829969,1216.06356481884,8.64430504598959,660.271435068508,-67.3059374683463,455.507099393976,-43.3491072191736
242.088406385558,-13.5845451195882,354.173214435115,45.6036413850253,322.904379781546,-28.2427732799877,1177.2163849542,37.2931753358917,833.40310968756,10.932051701059,373.237240055621,18.4544815126937,262.705353775739,-23.7009126306387,476.935617003846,-27.6090860180256,437.592289504945,47.4711262479205,234.159764670167,-2.1891124418603,255.856414186494,5.49457226267923,565.680029134033,-1.98357606158775,1235.83079879256,-0.433454766878331,663.415778274262,-68.0659377366797,456.51851416315,-43.3030339784225
238.670162651073,-13.0165598318115,352.326305795574,46.9786987623751,320.934230289294,-27.9541644181381,1148.75159045115,40.248405481838,826.788279349174,10.3092585214917,369.36764637908,18.5336744240468,263.505031974133,-24.8488460552207,474.273992108342,-26.8610444700236,439.523038917667,46.1694741606306,229.836314714215,-1.58339316930378,252.72427904946,5.7430029354377,573.150858061538,-11.0438346916586,1220.32597601325,1.38949528812255,657.544377443696,-66.5067956460683,454.204842926584,-43.2288955415644
236.786400599925,-12.3620268708143,351.573148862947,46.820532038981,321.750256428513,-28.4184096305801,1145.76905872556,41.6419304287545,823.844542708438,11.4226316529157,367.082438734105,18.6506221775052,261.371956803158,-24.3722180329554,468.32901182764,-25.0595804147147,442.977693343446,47.6229311377048,229.15722497919,-1.18722811145683,252.489433610072,5.62256367620269,572.944963213755,-12.5805354318074,1202.08124253385,10.9463626233016,656.424093864936,-66.4466133295826,453.228091502989,-43.0820150623463
239.2827952768,-12.9347565518319,352.40671172609,46.6220207355415,321.582450179069,-28.580933835047,1164.06083885867,39.8292800179697,825.026024986885,12.3178870719778,370.180756693454,18.1144444092949,263.900865155978,-25.0429102411324,469.981828038583,-24.4422118944591,442.190128213731,48.3842758037828,232.04683881722,-1.61236158804695,254.307958904724,5.50992329156327,573.735914035259,-14.9052143501374,1218.83505907864,9.75230707053287,660.067482390477,-67.1394570925988,453.471254316182,-42.4493304927375
243.071550540529,-13.4953540840304,353.09244150365,46.2332317256753,321.45490111158,-27.9245926718666,1187.02863245737,35.9877812249503,832.324173087694,10.7609153787368,372.943693557309,18.3203756550147,262.874190316627,-24.1686895333101,473.028994815567,-24.8933985145134,433.605718086588,49.139377777221,234.932768597151,-2.04278262831446,256.372438608946,5.48686545130938,574.927690859268,-9.01552939535705,1236.10401047777,-1.46696537416449,665.103074223067,-68.602149965049,455.610503495445,-43.0369639895473
238.078119094551,-13.0512977374615,351.575776077818,46.1170529936077,319.867219571569,-26.5001243369304,1152.5759550605,40.8027124587956,822.235316619263,15.0415497520693,367.277787634433,19.0719327334612,260.506965351316,-23.4181974199995,468.85775355163,-25.3901440763456,441.558919858432,48.0683957272555,230.12806016046,-1.37000169122027,252.538721748217,6.0703811366784,578.672864474224,-13.8362187609048,1198.60114557849,15.4293751563569,659.012432609503,-67.5031453947348,452.053120408594,-41.8689562729817
238.24640890458,-13.0029307341311,351.324780956658,47.0379474437019,320.704191428416,-27.4936082791687,1159.60011475964,39.32644564323,824.463245039938,11.9332661434947,367.340638259166,19.1334546212279,261.81882364883,-24.1424622278979,469.023490592826,-25.3798498454041,441.092842354473,47.3689783241496,231.509934392885,-1.9643660671855,252.862902577638,5.97626579198457,567.370353450457,-10.9075010341065,1204.7793063861,6.99649079121344,658.633971555825,-66.7078297029007,453.346973955428,-42.6526820868205
241.917952451612,-13.2043971292955,352.764791648682,46.6879844501962,324.994395344808,-28.2527575250818,1180.76518171217,37.4341379355721,823.474370371768,15.299882556889,370.90856430105,18.816638931885,261.9367044922,-24.3713055111324,472.549954653689,-25.9203245799123,435.87096142176,49.548803313708,233.924662339171,-1.85011418469619,255.470483303115,5.3791846017316,572.375170997122,-10.1006656704789,1221.72448425101,9.23766148734184,663.390374503729,-68.0192916669051,454.157071708413,-42.5653263632209
245.265500726442,-13.8711786927056,354.629727769049,46.1412192737933,325.846214349654,-28.302466071613,1185.35833805511,36.6255679132961,832.232849677393,12.0213030499076,372.705019536219,18.3776633388962,262.482464881272,-23.7738117498403,474.688922552073,-26.3810937257653,435.690531872663,46.8307542236132,231.524125565414,-1.61266597827608,253.687968952678,6.04390987528718,575.4641329435,-9.00154757776077,1214.96631318743,2.16063787876269,659.89281896028,-67.3329598839698,456.092828607147,-43.7244223427479
239.195341980562,-13.1244968755501,351.974248548216,46.5336800718589,323.94902972305,-28.5619518751787,1161.35091636124,39.7538922028873,824.897309084788,10.1443992114909,367.879733599962,18.9716744225936,262.751728092021,-24.1084695071601,469.516434063781,-25.3139483350043,439.456644689327,50.2286797504291,231.126475858487,-1.79239498454568,253.050482839194,6.0335414543824,575.79928340208,-13.2236442571406,1202.60830485626,9.37035952767637,659.082030945609,-67.2809063450651,453.412909023322,-42.4592934144948
239.944733216426,-12.8809660663645,353.194745861165,46.3034176002379,325.499109364123,-28.4276629350296,1173.64183786094,37.5838909340878,823.635307364864,14.846791322288,369.5947984438,18.7245762129849,264.025308301259,-25.263680015333,469.673560042267,-25.6877572713837,437.800873341281,51.0147260059567,233.108118135124,-2.07244204979391,254.059584411093,5.91346907738181,578.05790040905,-14.4823077993478,1202.54325388856,9.50649348262114,660.906781711487,-67.3644261599017,454.90035419831,-42.9085441567032
244.441705833032,-13.9483087268847,354.746617044813,46.2650728475697,326.920631735383,-28.744305214094,1195.88112548206,35.3687589614565,828.503671885579,12.6889020990904,374.406260037909,17.929937970115,264.439181992507,-25.4399669163307,474.785870203126,-26.6398094160227,436.431559578166,47.5054700372696,236.052931335677,-2.47309560501661,256.880037560325,5.41503283390472,586.783792309723,-13.5026823584158,1215.09955933363,14.6961150877197,665.623680865667,-68.6864529842151,457.710290871313,-43.7795239858877
242.855040552665,-13.7102893273334,355.208824743323,45.6338982339737,330.091109011496,-31.9488050338418,1168.35174422434,38.5448422657439,831.470390283855,10.7797735447699,370.979956673112,18.7971993093015,265.334400494548,-25.0223932526947,473.353865867345,-25.8820795196136,435.353653967708,48.1964543105109,231.76097980481,-1.74151936273357,253.90415234011,5.94636351921194,579.974866530854,-16.8124005527739,1212.89045837778,13.0766471284768,660.135834181309,-67.1541762329022,456.038573338216,-42.9127201779532
240.010511649617,-13.2990767536104,353.584226807678,45.684516796884,326.31250779568,-29.5348195000972,1165.46369987879,37.9487414472064,825.968710664707,12.8329443703741,368.421038030373,18.7658943373539,265.07055593588,-26.1295195480241,468.119403215018,-24.5604894390706,440.742814783416,48.0705714119018,231.444197849428,-1.66500515663654,253.251839272794,5.98945367773188,577.916339119834,-14.4770945615273,1207.12426427572,15.9290891029819,658.033005586024,-66.7854633546186,455.845821670668,-43.2650232107897
241.678873139777,-13.6287488230423,354.029574411566,45.7982067340375,327.387085950855,-29.5330441204694,1181.62959620135,36.5057912994254,825.075698088489,15.5639305521819,370.645368124629,18.950548943737,263.07935951255,-23.9023817558231,471.408731274411,-24.996669066419,441.28431363571,46.8945939766757,234.834951286807,-2.3181358082925,255.27876351342,5.72190286650935,585.156565518529,-14.7395678688618,1225.76307337413,5.65251616025048,662.281405844948,-67.5622250665229,457.456205357451,-43.423221425536
245.111893160657,-14.0928794870832,355.341567520336,45.2124829898334,331.487256452283,-31.0499834251467,1204.12188491939,33.5644005689144,826.321478226136,14.8493980217403,375.231417226783,18.3267742118552,266.072697360903,-25.3782359267967,475.63421407507,-26.7138402192006,435.711643851841,48.1325809899867,237.664812215371,-2.79789776638325,257.637767233583,5.39317889737147,589.394901411848,-18.1986222987073,1243.48335376885,-1.09732540251551,666.439042600777,-68.6431350662778,458.053298463749,-42.91756448226
241.790645362807,-13.3575406526787,355.426937749283,45.2123866917782,329.257135402767,-30.2648563112581,1171.83373255287,37.460014599984,829.869934199099,11.7203085339236,372.090238540744,18.4676245636544,265.43733682178,-25.6036628121378,473.486097296544,-25.8411015423515,436.171974653407,48.693954238324,232.965968267271,-1.91775509679228,253.723871527284,6.03114209939606,589.739938628995,-16.5415523612515,1223.75988527182,1.24344014107056,660.307204962028,-67.2419405299791,458.262299317157,-43.1248249638555
240.425412862395,-13.3419625514086,353.92758200537,45.943989527531,327.335327804263,-28.7637962702676,1172.5561207002,36.2040054944753,828.866238824495,13.4511490816408,369.986944126669,19.0226308983634,265.467739423389,-24.8606934449239,467.527266144754,-23.5573188176174,439.014956644462,49.1502023214695,233.009945154698,-2.08847723980942,254.658547574711,5.57446395322553,582.8983936792,-15.2360332115466,1223.30056514186,5.25512127641926,659.768284600957,-67.2514011903795,458.195325496883,-43.4879186441512
242.76405303081,-13.8584015185056,354.629982521588,45.7889782081767,327.982537292017,-28.4366421106993,1189.16193604957,35.3288758995234,830.749828019667,11.8943672918807,372.587379895373,19.0943292859442,266.251673379046,-25.4242554200422,473.613256040124,-25.1688942071795,439.44078136121,48.1312297393023,235.886031703008,-2.54544147722035,256.421818495063,5.77418564091513,585.205934995256,-14.4762359301973,1231.65009052979,1.45088405211174,664.231956544986,-68.4128241597549,459.988388557187,-43.831504980483
246.17563877774,-14.2220797153133,357.127591018855,44.7674889969362,329.713034202086,-29.0905115321617,1210.30239155304,31.9665601043512,834.335156626052,11.4798653296629,376.499641326323,18.1609118250378,267.939228965422,-25.8098461345281,482.181987604931,-28.5912608567559,438.123776526136,46.8505331555062,239.14407849445,-3.42023114091258,258.511022507285,5.30068139824679,592.090048040952,-14.4599533889136,1246.65378088986,-1.54101903179185,669.21637025458,-69.1208231442779,462.38216846922,-44.7046161958714
241.044029987964,-13.5436569875441,354.579975652988,45.7396024566378,328.795653970848,-29.0090255025436,1177.56955933582,36.2295853968697,833.245242692992,9.57251305592571,372.363282414072,18.5699860791079,264.375296720256,-24.7838271648916,474.711073563655,-26.236860588977,440.48869117776,47.6118224459627,233.783984696443,-2.09788900583091,255.143244722724,5.7966556928819,582.470135268082,-10.032957736613,1226.17163431429,10.1182822780761,662.977880677607,-68.1090453900709,461.238229765653,-44.1193704498938
241.747876854249,-13.8449561624464,354.688624062937,45.4934979353075,330.063544941914,-30.1588617939173,1182.72834652557,34.5963712419214,830.266054808869,13.0881352057477,372.544527866292,18.5639730135622,264.999127712914,-25.3752582577648,474.270702506736,-26.3957468861496,438.07775073418,49.2784037267908,235.093776077342,-2.33977671186108,255.622773276765,5.77756251089585,590.248500783133,-13.8059471113658,1222.13666904786,14.3458051946316,663.598312049495,-67.8969640464341,461.765410107919,-44.2596683110885
244.960852987182,-14.3857097673519,356.84500765676,44.8183966805958,331.646714501351,-29.956306038811,1204.12242776297,32.6133120844215,837.46508275126,11.8771222472094,376.281109873224,17.935077212631,266.700355822437,-25.2222599057462,477.012996611568,-26.8481687446511,439.903622760891,47.6460135781935,237.927106833022,-3.00085691539471,258.430205761791,5.04354172709337,591.028952876482,-15.240214716961,1252.01384113888,-4.11345571760897,667.759343153168,-69.0402190392846,463.638168004771,-44.187322631777
247.117944583738,-14.6162237831272,358.257359154603,44.1771010281048,330.862905563613,-29.4202288791428,1196.86113946302,33.3162917007637,838.035144548144,11.0558368314265,376.714841955036,17.7814134979336,266.712691847479,-25.2396134281829,478.487767719199,-26.0120335308371,436.882143611844,46.377093186873,234.877839960707,-2.59495254481887,255.573597103951,5.87340147106824,585.835427569135,-8.60891850903739,1244.58570425766,-0.779968930505397,662.948826615022,-67.8925752406001,463.565344972727,-44.3007982315561
240.552094279937,-13.7865281726994,354.564236426943,45.9085935346054,327.635074660082,-29.5136688816223,1175.47577079071,35.3924276565935,832.771957641724,9.52200334771689,371.882238384839,18.7283577906518,267.220535838744,-26.4136672554331,473.375202160285,-24.9300235268798,442.70034480022,48.1246203702506,233.555076535453,-2.1970156807814,254.49753060579,6.1018663029767,598.244965513388,-19.0594339523618,1219.73488297498,14.8445443783543,660.548705693567,-67.4448000936464,463.079611761023,-44.6110787044257
240.657550593649,-13.4737750988711,355.890278841915,44.9167777193905,328.226682890727,-28.081044590574,1181.53694753996,34.7674707941683,837.127195984266,10.9048062274881,372.890364922478,18.6645838896796,266.898855334781,-24.9173305187054,471.99447441184,-24.3787900963815,441.672245571603,48.9777555808424,235.330489334057,-2.60715533767691,256.014559093458,5.47566046580781,586.833366199865,-12.6776380530825,1232.18624972841,2.63716801194897,663.824757920412,-68.3589283177351,462.95432201166,-44.2021478063565
244.107732716238,-14.1002177414941,357.063480214733,44.8870268317534,330.672246701757,-29.5960856159426,1200.01568658093,32.6923442140476,837.065721899397,10.7740749011046,376.705819295023,18.2473713435128,268.241552700704,-25.708433701636,478.459803779383,-26.2642382446061,437.937359217511,49.0882130549059,237.858281044203,-3.08739821219365,257.138118857806,5.88990294760636,593.634911323803,-15.8294826502209,1243.4056536868,5.52628708338967,666.453994556188,-68.3988540091361,465.009793755148,-44.5828576553765
237.25683345391,-13.0803336120327,354.964194266521,44.9365607386864,327.521717102041,-29.7771720466218,1161.09126299735,37.0951102078823,828.954856604674,11.6859011786202,369.629401818668,19.0278464694386,266.159133655826,-25.4218430527207,469.893159794488,-24.4861911933005,445.289537359321,48.2587213104034,232.009816796824,-1.9794092202469,253.770033180009,5.84720708468828,588.973586049476,-12.2655997918713,1222.77299306967,8.00305765581808,658.892546931796,-67.2075905815534,461.772186169059,-43.7268047090255
236.905782159182,-12.8645667491179,354.019190975198,45.5693579178669,327.087227181337,-27.8256065609055,1163.46626498762,38.0829599803776,826.337388101185,13.5921894541309,370.017122429217,19.0315581327109,262.927755642685,-24.3795793559085,470.574443877264,-24.6685416336385,444.411603179432,49.121180792134,232.866941259145,-2.03335861285153,253.998972180934,5.9726104478795,585.516571579358,-12.8724213407419,1227.17386246436,10.741854103567,658.458942028926,-67.0827652919934,461.176978913274,-43.6246100503179
240.155438955817,-13.2478823107203,355.942426926096,44.8907278492448,328.68504902404,-30.4961037259379,1183.50625888485,35.3267701292717,827.89885608931,14.0936560511314,373.818899981125,19.14387336266,266.002913237998,-24.0763215001731,475.085428871782,-25.9151631302882,440.940622468237,48.0941329904891,235.047121925151,-2.1700459345958,255.260470760644,6.12807142625892,596.13912323751,-15.5081583099231,1247.37999753294,-6.91061263873992,662.360470832127,-68.2389157845656,462.603135615795,-43.9608539481411
238.231801710817,-13.2062731396383,355.312624181392,45.3632832518791,326.320517967774,-28.0408507706949,1160.8368857799,38.6129726673403,830.056072715553,12.2198791745909,371.366346498438,18.6845229618831,265.145664730524,-24.0308217680691,472.699498334536,-25.7404074823536,440.673683973112,49.8013236304933,231.748508581384,-1.90831933528969,253.290012802741,6.28210622419663,573.985070616409,-5.88221765349009,1216.61532223143,13.7637802020824,657.174003500382,-66.6543515905928,461.615243961506,-44.1090970188201
235.65444437104,-12.2251214083325,353.559660892829,46.2429170441932,329.178611376275,-30.3789682483706,1159.52268248517,38.8045780901395,825.825838379726,13.5720958572459,368.736234848702,19.612312420928,263.406097333042,-23.7975229922694,468.64054225801,-24.1229525886681,443.755761019576,50.8550753099833,231.161188597408,-1.49529954945638,252.521883283722,6.56214336740437,586.959709992267,-10.4724017934482,1207.73737997227,17.0764163076872,655.599662349973,-65.859049895659,460.726715162839,-43.9235368906285
237.703251029654,-12.6298085535928,355.414421005105,45.2830771681501,327.670061107997,-29.7964814612331,1174.74362326952,37.4326560497344,830.853090871535,11.1231638685639,371.168827074728,19.160344723653,265.471936472157,-25.6930379960533,473.271097733921,-25.2730096083096,441.731985514634,50.5158600748805,233.819938750129,-2.14363395749606,254.370534146731,6.29173973840894,596.833094149945,-23.4939941841744,1230.99197879428,5.64452817992446,659.825495587028,-67.5561836933326,462.038821775483,-44.1652821540062
241.241641091262,-13.0975991158079,356.313098936465,45.3339352299883,328.998908254411,-28.888117213077,1180.95288686105,36.9647544984635,831.502270772282,13.1872648227839,372.263545886946,19.3731008543565,265.729492087782,-24.375289348791,474.02782587119,-25.2615753792685,438.879089393031,47.4551397977743,231.482323185403,-1.58655704900094,252.375610745259,6.59630179391881,586.899873957939,-13.4989999506886,1227.82444270404,5.95991178801276,655.776632599969,-66.5854236997884,461.74109414728,-44.2181860014351
234.678834370931,-12.0302510856696,353.508631891747,46.3870978912153,323.968319844494,-27.2961216151384,1157.12915599829,39.4793766465199,823.459732557586,13.9540225421189,367.308909794136,20.0416872922818,265.001547140092,-25.2981041955457,467.369698247206,-23.1675601052935,445.72669405771,47.8894745288396,229.935631876369,-1.02537003340943,252.030440299935,6.30830152435551,591.32242795328,-12.9615311083625,1222.27546225207,3.99943428856233,653.092450304888,-65.1491722160802,460.046735363705,-43.8949182819632
236.694291052727,-12.5516755754227,353.861737822659,46.5663706558922,325.038921524252,-28.730203621385,1163.73314093181,39.4079938358395,823.488035179775,13.0049403570862,368.585247350127,19.6351402190804,264.148579304989,-24.6933489584634,467.335159694957,-22.1958919123405,443.270372283229,49.5459857849866,231.622127043592,-1.49279898540191,252.747655871657,6.61333486134079,583.172709633115,-8.28765103588004,1218.08647944408,11.246757269158,655.13027744471,-65.9335911655482,460.341874074115,-43.8503257937327
239.566163746206,-12.5235568987526,355.156496697337,45.575746897309,326.319492047065,-27.5911468818541,1182.49956950066,37.9454398628603,827.563093878573,15.4875343250989,372.757760060571,19.0294273472171,266.322368274845,-25.7378311010194,472.240503291245,-23.4462583748995,438.732561269729,49.2620059148857,234.034215782283,-1.64989471554767,254.5205195197,6.48458980865709,582.712671197595,-9.270981798039,1234.58524589482,4.50218309672038,659.194765071985,-67.1649096780987,460.993083611594,-43.8418514021861
233.83323920033,-11.6965585146442,352.81991786238,46.2598516803078,323.079190354601,-28.0868810755898,1144.5422741748,42.456256308574,818.70048034309,15.8702744972235,364.819948743246,20.0436739728767,263.423892021722,-25.3333831700995,465.001928631992,-23.7600737809044,445.429396303625,49.1886892335658,227.978431698852,-0.561671623630053,250.164364449727,7.02429710527892,579.993675572954,-11.9109708878751,1210.7907775305,4.47844075456146,652.575388063123,-65.938644668623,458.573300877616,-42.9561603714949
233.856758688302,-11.6617605363911,352.286959579385,46.7800279440395,323.01598206968,-27.9141572391303,1149.63111864075,41.5019919573618,819.402149585202,14.3890292701566,364.993516940695,20.3411811024003,261.535126549316,-23.2630062788956,464.795818203108,-22.7473820107653,443.853934419055,49.7347396839918,228.86609132039,-0.579736193706944,250.284485266148,7.27711505905346,579.381941807159,-5.94329754507339,1196.04762811162,16.4026394344643,651.500911611041,-64.7703271372265,457.912861651131,-43.4478512757953
237.856523343329,-12.3513200200141,353.239186190094,46.4884315416748,325.439163124193,-28.7645463749302,1168.22260074073,40.0646067388235,822.516667161309,16.2426554056036,368.452094556068,20.0513577145058,262.770165629662,-22.988672884804,468.845858624825,-23.9106645476013,438.581412129929,49.5257443918229,231.812169082799,-1.32551071319483,253.326258866841,6.30732286713745,581.101917687989,-12.1647162348198,1224.01366270436,4.70521111882493,656.882651863034,-66.6603963852476,457.775683217981,-43.1407922622983
236.993026624258,-12.1110118207242,353.350358664969,46.5907195625073,323.436570157567,-27.4913731714125,1146.94595036312,42.9972739916171,819.728326060829,16.2725068090079,366.576430104739,20.1285126319469,262.15079995607,-23.9106049286985,464.956088944758,-21.5945389704514,437.313089872289,49.1478808214803,227.802440158247,-0.530752187690413,249.886315689439,7.2968028826685,580.503553032806,-10.1109907018069,1193.62871815995,17.9807135047357,650.724841563739,-64.5275465477916,457.249562771446,-43.2542558964005
233.918148566135,-11.5608459463956,352.013853001802,46.5149033105941,320.676397740568,-26.9981082197403,1143.05948262295,43.2601906002584,815.596179643522,17.5410230033379,363.247650876296,20.6832833530081,261.56698881382,-23.778983276985,462.224475831337,-21.8045822253868,443.219294874799,48.0901647606311,227.577679221839,-0.584141797602448,249.70597433419,7.40734751536619,580.89502579884,-13.1159422674533,1213.32602885598,0.426695323153857,651.959555015114,-65.3718084666747,455.088332356479,-42.5246556256056
236.447126683345,-11.9715135038759,351.920223934422,46.7125579012177,322.444981061778,-27.9867259595283,1158.92225878478,42.2060014747399,820.233589145881,16.452038712272,365.926782009602,20.5191724607487,263.493229534895,-24.7606059646412,466.868053718148,-23.8973260888229,437.508231702002,49.4329671349818,230.048944589151,-0.642024435505524,251.571398367623,6.74817893139325,574.80375697963,-7.69865139887271,1212.27403421086,9.21031533208125,656.870216475638,-66.5265098135077,456.406785085542,-43.0447949268169
240.67187553679,-12.8588663960449,354.258659821861,46.212348869297,322.09661983737,-26.5493352439063,1178.39116961137,40.4776951909315,825.16455572042,17.0014519939055,369.832406293891,19.9099952985627,263.083246521979,-24.4649835304946,468.661417202859,-23.1157895688067,430.70228929873,51.0312364933541,233.289771414536,-1.47354823311447,253.921344775144,6.20938724124435,578.950016082061,-11.7181612857692,1224.72381654634,5.77476461538419,660.547152130952,-66.9746781178373,456.695707632767,-42.2046545359367
235.307108492982,-11.8372366372815,352.235872115186,47.0247405619506,321.066163205066,-27.3768575400939,1148.15750381287,43.2560609472569,816.924932002151,17.5431535010522,363.366341657615,20.8855172604232,262.190394530258,-24.2463806749153,460.816847333201,-21.0759198754607,434.534705506334,49.7579486973294,227.592168404819,-0.283335452966427,250.199536430676,6.90628621351078,571.758549144402,-6.19283534853565,1196.85390490948,11.0370341530876,654.780974615438,-65.6093069369974,456.005853170709,-42.8709162907323
236.071313824065,-11.8606334059867,351.942869235542,47.0772454338248,322.206945351964,-27.7114298410799,1152.70720212928,43.2070028504154,824.761624648483,13.5896818431211,363.898698413874,21.093137783304,260.837598900225,-23.8687071776515,461.830538234232,-21.5766699571999,436.383943500991,48.2099400916689,229.133390096628,-0.440882063236622,251.009733790641,6.76970048084615,576.675192052537,-10.9597467299824,1196.37278924871,13.2785560538878,656.220961231076,-65.3811325795371,456.459301956996,-42.7905820263576
239.646732896641,-12.525181376045,355.038830810611,46.0444182028551,323.182524043857,-26.3579194075037,1174.66973792974,39.7935105736264,826.417362540834,16.7472404986715,367.940762875608,20.3428502818454,262.976633646888,-24.3523580687824,467.406353721091,-23.337264936331,429.298317943951,50.9933168072174,231.784629915456,-1.17844828237198,252.656992788273,6.72987662505821,582.76802433483,-11.4720677979405,1217.19822074024,11.3602242479907,661.020762874584,-66.6183559177399,457.832937414608,-42.9685373685737
237.637443681069,-12.1595696132997,354.652574720561,46.2980443953405,323.651538097206,-27.2624235641566,1151.22673815377,42.6654196518564,823.926503919459,14.8541979428532,364.866596426948,20.5708911530833,262.89528574726,-24.2141323931544,463.712297383239,-22.2384406819209,429.263747785903,50.2262135041246,228.23330194684,-0.522482472330255,250.798723177719,6.75276541621281,570.53508375835,-5.67004072810973,1199.41736551083,12.5020126151437,656.762523273788,-65.8467882999974,457.329761638204,-43.4130126091177
236.713389915297,-12.242657910024,354.016491842673,46.26627781947,321.325735559169,-25.9730267695411,1152.28478327409,42.483486789336,820.398050682165,16.9111624127665,362.984500086504,20.909804067226,262.459063088078,-24.2710037977507,459.671327929287,-21.4499402646522,432.653840428934,49.162454658767,228.294771144002,-0.330392605068185,249.654319019783,7.33765839485161,569.178943888183,-6.49408933772321,1195.27744297289,11.9266559796885,657.219484063825,-66.3932605672925,457.141563389356,-42.7514530662153
238.909869067189,-12.2888955241548,354.384730729733,46.508484422109,322.015951573896,-26.5903072895614,1170.8304587926,40.0124330684103,823.627604379426,16.7375588844304,365.980323329581,20.7555106953664,262.333377373719,-23.8574417664867,462.731293358152,-22.184309916457,429.080926454677,50.1032460571505,231.485815991128,-0.969887782622139,252.303806902752,6.86471384176877,580.851475826142,-12.4932133337826,1210.08921041617,8.88106774962955,661.303236638913,-67.3624849453581,458.93218797034,-42.7772672193492
242.672286149151,-12.8897056233133,356.896389815666,45.9299114316096,326.15781977902,-28.0114644154675,1190.68759599945,37.8442591951171,830.330376206865,14.463843737851,370.95896850014,19.9483468717852,264.539494973438,-24.381207057089,466.032482904406,-21.1893797977231,426.589366696431,48.2580856666874,232.929509841996,-1.37703891141331,253.982114792077,6.61620070046325,581.248709200179,-8.96482182023332,1201.26353211154,19.6109179040923,659.841872986761,-66.7830860588716,460.306961884335,-43.4084144986138
