149.960207554403,4.99315556842107,711.651208056028,64.7228829446397,534.767984890375,15.6947925155203,306.361008217415,-3.81500914827348,446.78114973209,50.6398317285945,688.642634900396,87.3640245164674,1136.45397936258,130.834077390148,202.972333449215,12.2283070795295,511.978239967806,130.823133756244,395.562970946536,2.64336871371538,1284.60202067955,98.2507985209061,84.9540153719593,6.68287637078187,45.0418260098907,-1.27174361229151,303.061242754448,-56.229527158152,403.891277162286,37.8311122670671
152.571477274735,4.86932915335993,741.482439136424,52.4617190162648,565.316776084466,5.00377468663033,311.470120374598,-4.38284915740199,460.85372835547,49.3203352040554,699.208806462696,88.0698674159053,1163.95224242455,130.651740649061,211.338613253673,10.4188230173362,524.676787133801,132.005965367805,400.143656309542,4.04911830220037,1322.03657265637,90.375929044984,86.1505579248049,6.46306758352178,42.7677620597093,2.09208861797122,291.082519221396,-50.6716927501436,410.198658118203,38.044783659222
148.378230621887,5.13719322621705,694.415159685764,50.4346290931431,544.053002844334,5.61049270814254,303.216044331845,-3.3180501483451,443.820896264,45.8098198609105,676.086428844966,90.0222104217716,1112.94636897068,139.144655445756,201.053229963472,10.7325780082519,496.003401576334,136.7829491208,390.150423768459,4.88471780778942,1270.18345417696,91.3590905077619,79.5612053532545,6.58706252972001,39.4023520549199,-1.6529785495394,282.6943861332,-44.2818844575032,395.816505775156,40.521842116079
149.361632441341,5.21940459717639,700.506105184626,55.8163902425972,550.367976083229,4.54231388102676,304.390217761885,-3.31899987232294,437.627383783508,46.9410308360178,680.297260035818,90.3254661394521,1123.03040447512,139.925679837981,202.551425525018,10.5903716630217,513.752344156852,127.529069804185,394.123475418879,3.20588437419906,1280.52778321842,88.1198543641294,89.2683844443586,3.32037963752446,45.5198445167549,-5.69380242198364,293.000339557447,-49.6666966496292,399.484200814581,40.0254771192262
152.188518574599,4.87874561779731,715.884188425817,56.0410384243076,550.134968149367,11.5540320947916,310.46757602458,-3.9441207235574,471.858352647252,41.661063738632,694.690952583687,89.6135250798843,1157.72736059868,132.330651450968,208.545217011038,10.3584204344789,523.723059575475,130.56710724326,397.21024260026,4.49877801311443,1322.62791155026,85.8897054186535,89.8309674615297,4.91503153500702,40.769819437078,3.08815786163906,300.054061015621,-53.5130006704508,408.373044850867,38.6118810629936
147.770459302769,5.23682951149057,692.410948825591,56.7279619080283,535.299849686394,17.5698123304863,301.043606745233,-2.86909432898019,447.654163193696,45.194691316668,672.089677245063,89.3728282065875,1101.46012236778,138.544610771187,197.151098844364,12.2545243421562,503.2597735602,128.073519920533,385.540924809581,5.57409673800197,1258.1775676498,84.5377864186886,79.9867773189949,6.79951858318921,38.1287524822798,2.48829348442362,288.613634459028,-50.2476852729419,392.165675561652,40.0873633011877
147.915404358913,5.43975879200106,688.16625203683,64.8014381398268,529.432418997555,14.7115311187744,302.596817469327,-2.80098231465566,445.509770097267,46.2240761222721,677.63911657518,88.6461895163552,1112.00336683211,131.934631518581,198.37608766396,12.926687039428,507.868457945769,128.419901915595,388.522552045084,4.48880210158556,1273.37920361858,84.3936425921726,86.2326233035189,1.46299717659571,34.4425874545157,6.65491796402887,287.199985312924,-50.9636587581008,395.187755011582,39.6774868154987
151.098371243099,4.89853484210533,714.449903317066,54.771928620472,558.507407479299,3.61490955603464,308.930721018367,-3.71593425078218,456.536383299635,42.6984048651506,689.356435139794,88.8565580811738,1133.18635326303,130.911761476173,205.080496166949,11.5234569329481,503.094846760542,136.191152420543,394.583652580737,4.57361203213069,1299.36923217584,96.3857081355691,85.4389359602254,3.53323959350429,43.7431148183165,-2.00967130431081,291.93612637913,-50.9069066153031,405.913555035065,38.8021885735088
150.107000158557,4.93119101391689,711.025851793587,54.9659517547875,550.816865759601,8.46895368667594,302.932064478848,-3.20496586005554,436.137412143241,50.1150466388188,675.02591277034,86.749581752722,1116.77866895362,132.471495816213,197.560765956312,11.9042059083919,491.740079461933,134.189053670527,384.561890979848,5.74487224159947,1240.58537879349,99.8248087448468,84.0768280773883,5.25273298685152,33.4339177621341,4.54346210777656,290.147051491148,-52.0390234970187,389.804462082109,38.9479493645078
148.04405586922,5.31276413442801,695.391072726849,55.164062684901,530.020122509531,11.7882582644493,302.011988531708,-3.19852090742407,442.282690540287,45.3577004626643,670.065294057887,90.9783472814481,1102.62874674577,135.845930747864,197.028341640182,12.0205705650528,491.865854204898,129.603031785812,386.504301688558,5.9288157269184,1254.09391848972,100.256427189605,77.6747017796062,6.09236569261301,41.7579995407437,1.32322002093602,277.538404280371,-41.0067183526402,388.675465673168,40.173627455909
150.270447294554,5.13199627484599,700.626651878655,58.4485333087329,544.122011085987,13.6935428549044,307.561586813377,-3.60578978795317,442.936369610446,58.601953453744,684.023931683732,89.7752402816503,1118.90225976874,143.37814928285,202.568362302659,11.5218744039405,510.292021046304,134.19265821725,393.957020206013,3.63289470013488,1287.99099161513,99.4473979497787,83.6420839543165,7.38081970086276,42.1145886788077,1.67359290428145,300.328416192112,-51.788353321476,401.568102916722,38.4414159353963
153.844180666122,4.5342351119961,717.677848201507,65.9875122831956,557.950459949923,8.33641387978196,311.417486988176,-4.06640292394242,445.731610656689,58.0836031481787,692.605859195622,89.7133179362044,1151.16543356934,134.887326572856,209.096738529157,10.7693667570541,520.219904815784,122.672231198046,391.802800499386,5.00141924296077,1279.74456432197,95.3564319060621,80.2606023282629,6.97202161683209,44.4203713367958,-2.43702757199862,302.242628917326,-56.2265311994139,392.859816721489,39.660063593315
148.880324852088,4.96790107963483,687.986441040797,63.3442448657215,535.821082293537,12.1456722001975,303.822280017992,-3.29767662338986,428.982880133362,62.3315648873666,674.530756518422,90.0585552166833,1126.44387041962,128.416604393553,200.125861896572,11.1061958867219,503.963858448289,136.527547988869,388.923999773543,4.54762492606742,1265.7220500287,94.4741897857797,91.2703175855118,4.43529054754359,30.0446706941527,6.42043718442203,293.22921987501,-52.4405914547812,391.69483048792,38.8324548558879
150.237892632017,5.03694077726028,700.314675893942,70.2549447391706,547.778837623745,9.98291861077069,307.075047653841,-3.31371844915741,431.698172325938,55.0966622841692,684.184335116135,89.1374882297934,1125.9774392258,131.53592212696,203.494842810329,12.5211372850722,506.717829340518,129.435956480461,393.191488612806,4.7431052037926,1294.96823696935,90.6168484550605,78.4962869338565,11.7422504564452,37.3443614227235,4.18811208777034,302.859421039161,-54.2952046882147,400.207630894323,39.480246391768
153.521845169739,4.80902582447242,733.195265882767,50.4340037222434,553.309794020302,11.9901884810101,313.63528242557,-4.51345288118691,460.206847152663,49.8207170231173,695.126469565027,91.4934235170164,1158.62176830755,129.922530306419,209.312952284997,11.6929551212922,530.230308801764,126.550014065218,396.711210770685,3.8810757664431,1308.91273079939,98.5409381753543,86.508757776933,5.97823209182798,38.1860536226746,0.654277763252151,287.918148970826,-49.0870427085159,398.222706131641,39.2351043718505
149.211699218004,5.02410923567642,699.665587612492,56.0164506985155,536.593481179072,15.0731540561369,304.586872111486,-3.27269623158388,441.813550452843,51.0906901061579,679.79163372915,89.3192863948563,1137.0912748542,118.367560872567,199.939799430017,11.820319941895,499.908730026521,139.33736431868,391.418098076163,3.39171628710279,1276.29937784917,92.0703502010132,83.1297146930192,7.56409645382118,40.9884836984223,-3.85829849933771,294.383958926382,-56.4713494264831,393.435072455417,41.1530013610206
150.86945862197,5.12808299781508,717.954862051155,51.1819291916469,548.903998337989,12.4528382889504,308.367324045496,-4.13673744631508,448.754955275307,50.2935087717142,683.03126352234,91.5051486099805,1140.20143279275,128.247027991602,202.748399976421,12.2011924411835,509.375547127258,132.548231674898,394.074827456991,5.1074661811089,1303.32789068555,92.4845316880692,91.0702190199681,2.11811892497613,50.2528598478343,-8.45047609386984,283.536723615157,-42.1039789091833,400.523623374527,40.1052627573135
154.699047425506,4.60916158912496,736.545717292067,53.2569571929889,561.138634096848,8.80044828802551,316.071532846392,-5.32667445566072,472.316282056876,40.4742410587574,707.919811319612,87.4015437449248,1161.40722529491,137.39761295942,210.364716917599,11.9067052459978,526.071304133906,130.795539164735,402.129216665663,4.23871565983515,1333.09307090721,86.327766233208,82.0640426027847,11.6987595922452,42.5895662018485,-1.42553205963641,300.624178420693,-52.5347862388754,409.265582755574,40.3636600549966
149.153007734382,4.79963100630823,719.903914604321,44.1389558956407,554.396621165898,2.76287898042876,304.007783757146,-3.37885856719822,434.861831550965,54.1071531690571,677.826915007392,89.243438684169,1131.53711390782,121.854560331366,197.891999959915,11.9569099926896,510.03508109641,135.272018876681,390.36164732362,4.49575642829837,1276.64385061972,89.4324470609256,82.1444280511791,8.41687692578512,34.162491654719,5.17901431767085,276.293295237868,-45.5156200792057,401.029724740993,38.6730253729851
150.677852288823,4.76547906023941,707.913451306664,65.6358811807899,543.859046254918,12.5604027976387,306.955304320932,-3.93655115405887,444.598054194656,52.030312327213,685.181548243412,90.4878653049744,1122.40060065511,146.611867704937,203.811811218268,10.7221862281059,513.608721714274,136.220714450152,395.008981112063,3.68441752873519,1289.23718659565,96.121045779497,82.3031459108812,6.99883061993774,40.4887177689742,-3.84222397479399,297.795285956196,-54.2381153756421,403.933519089009,39.3516081853198
154.642114428066,4.38842782941694,739.031435231757,55.3609095047789,555.505281398147,17.2829750987826,313.883025245897,-4.55067492001606,459.698548728874,48.3551371977854,703.540268185158,88.6910037880648,1159.2570526464,137.281013708907,212.427154051808,10.9310125230445,527.411542146613,130.573052960077,403.759892665407,2.86472199311801,1332.07679093944,85.3371414811411,90.0555141439732,8.92192358246079,56.2445647356004,-3.89478481283202,298.206691694397,-53.9364056588573,414.222551108049,38.5676230154334
149.736459569612,4.53306805905026,718.304815038726,53.1000210454486,541.957776451253,15.855266586666,303.788456272007,-3.13359031876162,438.914897571892,49.9307117359661,678.917172721064,90.0484708670345,1131.35849755327,132.122117337237,199.283530176429,11.6891220340108,516.615440934013,126.756175793254,390.420792523196,4.99387929226794,1272.15259191166,91.5104705495066,84.3391102694698,9.18180870583719,40.6409552239809,0.00533513884255126,307.307906788099,-57.8963965470619,399.439652868583,39.4188804176112
149.800644481359,4.99908245226005,717.833988347057,53.6196922542036,553.926651615441,11.5929363012393,305.121981279867,-3.51018623636566,452.651967862592,45.6932987791939,685.180338502028,88.9460008276236,1155.82421315376,116.522990371445,202.705494180601,11.5436830967008,514.239705287311,133.246602072529,394.074987857553,4.07975902139761,1302.79450121523,81.1518151999815,91.6801932331142,0.471907278480652,35.5792799868922,2.06534290940778,293.67356347969,-51.3367523551205,405.442005793212,38.2001848969849
153.254038602137,4.65613182053282,741.069868825604,54.3483445175446,565.094206782899,6.22004054688381,312.719160135307,-4.57465470213804,459.317305796583,48.0535908649997,705.185706006088,88.2920647693496,1165.72167449331,136.459878338099,211.662144060192,10.954047603634,529.340156771403,131.302189539825,402.153754021808,2.95369186752801,1334.46348222013,93.5619462477124,93.5984029413771,4.87120821675487,45.0154241193719,-1.76709763614374,293.041556976116,-54.341469420218,414.87231762677,38.7562708865578
153.886780273341,4.32461209905389,733.784464577414,56.2188780473391,564.428817707715,8.45233015085381,309.108384095493,-4.45676192842249,468.51607610336,36.0481267659047,692.986041888437,87.7082906924196,1156.87462817625,129.834837771694,204.467297650072,11.5334789111788,521.585835808333,126.661316284765,393.676364252914,3.42573013330469,1283.71838104864,88.9702636252362,82.6477512418854,11.4425343797052,42.0052253838191,-0.328145932699946,297.049339204019,-53.301256496589,401.832058857659,39.185824628823
150.715562204289,4.85069926317167,724.797904401931,51.0099900336878,560.790063851328,5.99036312355151,306.783206433892,-3.85967610800166,452.004957779393,48.1857773484513,689.70867200572,88.8175080054221,1151.4961245293,139.391875738299,203.903781516402,11.8894603937311,503.561038299796,140.247095338594,394.882726656352,4.34998606184403,1297.09428420933,88.4740177098187,84.5984763354176,7.18296225474435,40.3418701047886,0.894534160335269,279.847977406516,-44.9188821437313,405.415327999397,39.4552841948318
152.917215758512,4.42866204265012,734.796960202859,52.5178224898164,560.540146796115,12.3319768680061,311.41274541104,-4.92397053610677,467.863888381602,45.5490941183076,704.055328214271,88.7931309727033,1172.55754993858,129.134085794732,211.387365910229,10.95789589089,534.422648909529,128.04254976798,402.139097907467,2.64760332883271,1340.71082320464,82.9548915223567,92.0325371362499,4.49762339095841,34.4805492490778,7.9045918747345,292.088070756237,-43.8469584649794,415.897329395495,36.8906229231465
156.880004816846,3.93323388799143,750.774198913502,57.4189634444498,570.863309453156,6.3618247011319,315.172561758708,-5.24955054001538,466.769314070892,42.9843927732382,711.686825659945,86.9341277459172,1190.44190024694,133.103782572185,215.873126950844,9.58804723762629,534.410914045654,128.867360241322,401.174952666337,2.08931624264596,1314.10272295943,90.1242060267946,81.5711029853153,10.2934940199939,47.8018715366548,-4.48484264927173,299.96230125049,-58.2650220224795,404.883802662573,38.3023128470435
151.302488779835,4.50203955274188,731.670877031159,55.2369686962937,555.338552658115,15.7056568473124,308.290245546412,-4.61242493823849,457.999751497869,44.3748702933808,699.037654626455,86.5651550629891,1166.13286947974,130.146390638949,205.782785810457,11.8195049154055,524.37082442056,126.318800320538,399.608526738656,1.8952545509171,1315.05573348734,88.0041139845205,91.7677099959015,4.70931954945143,49.0419453650834,-2.89466334700077,291.885069394639,-50.6043290907029,407.578535407438,38.9251703053282
153.283658577059,4.29560324037398,735.299290669607,55.2922208950372,559.697148547166,10.1826976663067,311.803002947711,-4.80705164638922,481.98375462641,30.4195228522046,709.333948706288,86.5739557244879,1162.23690988769,142.012667918967,211.224078316089,11.1046533779008,544.592876457495,121.848207956511,404.479733167575,1.68674405573633,1337.35674077752,88.6450700409369,91.4696097541729,2.98264652338927,46.3459480464397,0.0441872123239123,284.573743796072,-44.3496555822624,415.035987422505,39.0138039632244
157.27743258403,3.85018854821244,751.121565317183,63.537965964019,571.855540231092,8.97851409451347,318.660733666937,-5.59305599604114,483.7491574114,44.2031244328341,726.264825388831,85.9662478336157,1208.35368678965,128.571470122704,220.653918699258,10.2485334682859,523.043044088217,141.691446553738,407.873777113672,2.23474127553273,1382.40088538071,80.2186054615971,92.9985619569009,3.79936031340261,43.5713257901584,2.50293509390575,293.295286382606,-46.3253603543534,415.402665062356,37.0617359921497
150.621623238255,4.49697197560823,720.80376391882,55.5921630533259,551.785052677265,11.5785628711005,307.446025045442,-4.59697043614664,452.341690418082,48.1075353826728,693.526013254459,89.3594888821887,1156.4932430713,134.241663717941,207.00928473022,11.1159463818609,542.632424703174,120.130006120067,398.23740539815,3.40528665458464,1317.14070959987,87.3149848743691,94.7299377663326,0.608436742304077,46.9985086544929,-4.15349146412692,300.422963841172,-56.6834572087092,409.190616473357,38.6869982922249
152.614876391248,4.14063589262435,743.855594483298,48.3492416868965,563.051047002111,7.30410467851821,309.862288407557,-4.6408322044068,468.074692177852,50.5581178192364,705.583509713386,86.0052951298962,1168.33033777086,131.191973665963,210.043093534736,11.6258077901842,518.005542538634,136.246195788216,403.287421772852,2.28554440749978,1330.07389238628,89.317258146892,85.3269499292949,7.14774795498743,34.1815377695748,6.28706687037019,289.387139191778,-47.2547756818534,413.530526634582,39.0389094491418
155.891621116009,3.77887448169728,763.497699693072,45.84844214398,575.506243273502,5.29658380130337,316.366390639419,-5.56434256041398,473.651501019612,53.7730913968016,721.133775736652,87.2759206199838,1197.12191519882,131.170566605279,219.608611747031,10.2237986842007,542.855215383953,129.836071429361,411.641753670063,1.59788425849845,1365.55408944671,90.4201362982277,91.9346574515382,5.03814264502544,34.5176636298174,5.28216811466566,304.823779351592,-58.8420299273609,424.757514044088,36.354681748976
149.688431301931,4.51048478749549,723.979138009137,57.5600018027006,561.945548549545,5.23234767927088,304.332079906137,-3.70582167880893,455.807960270424,48.1940965447103,689.03414585036,88.9119443928504,1152.24785775782,134.400150456838,204.375010646035,11.2758893658797,518.156329312341,136.782616653267,395.521259665453,3.53920090415309,1293.48755838305,89.1437402118162,95.7030252941919,1.12207158702058,40.4999621190185,0.667342350465362,287.390908214303,-44.4888130755944,406.908812748109,36.3451908731738
150.259496428168,4.59124720055583,729.40676440418,60.3383602105355,562.553976105619,9.03540977272325,306.458872330151,-4.27218920954131,464.607451662824,42.8484963415406,697.193170840564,88.644996481732,1160.9015464263,132.061099816616,206.590587448008,11.0239401656088,525.57144735978,131.543359778473,399.515108303405,2.51251632109914,1320.39562278129,84.9763774534586,89.54349063489,4.76992409006542,38.5231831307045,4.30032220704484,293.82124299507,-49.1294368310366,408.780499728841,40.8144059085379
153.712418962231,4.05370328490238,743.509274964098,53.745144828864,574.250506972559,-1.00261913801142,313.48883823375,-5.19897249995943,478.328054485683,47.2970238628546,713.73625652779,87.7197925724541,1190.54465731538,124.303048593473,215.891941898924,11.2892724625583,530.026382538389,135.101103410959,405.770776130677,1.80461170485067,1362.58797069554,85.2629031122978,86.3431795320599,11.4546595789017,52.6705816990153,-8.31961700651433,293.537268028975,-48.5772102825274,421.025975279835,35.9252542446025
150.022170800063,4.2909793279404,703.528880396342,62.6490261542327,560.407177998511,8.21967688880722,304.926879833734,-4.03332785635927,455.649672440507,48.923375744241,694.384743981307,86.5316972835824,1159.84554628705,135.138923249933,205.266714439017,10.6069355949045,525.092362100973,129.175773802596,394.552047290183,2.6553609168614,1278.96721557782,106.949929702725,85.7642341971309,4.88125932760757,44.1467454204026,2.42746483524035,292.473407049993,-57.7180122742147,404.424454815506,37.880679485483
149.95492478311,4.43669767621886,742.77409945237,46.9288528497431,552.441461985194,10.5975861585922,305.514284858089,-3.98794977957793,453.822577653037,44.2832842890865,697.313265028278,87.0195122503984,1153.99856195819,136.683256325448,204.451150351419,12.6940901005691,517.802112770087,137.351791022446,397.740649038237,2.92209468509693,1306.58000619576,93.3257606693057,87.7432640078819,4.39270914098224,42.2142407884879,-1.35071617457915,296.238339494008,-52.1596948176267,409.211941379715,37.4803800284702
152.252113831796,4.35067840698494,743.631236428369,48.3880400600506,563.647173383309,8.34633667503562,311.307301778297,-4.45881403349669,473.755153502628,46.7517005288338,711.172128450194,87.7294512353763,1172.71138885832,132.894385325699,214.405293223244,10.5753115666069,527.555494020687,138.583928959021,404.144113413746,2.85696608309501,1357.35797124317,84.1369742024947,85.3609294038816,10.7241059641673,48.492282138361,-2.46876537174439,294.153043359989,-48.6393157731075,418.056231792289,37.3393684146464
151.755165987944,4.49009349475186,755.690962997244,45.4936540514489,570.205165889082,4.01585101758269,307.3982528475,-4.49239410964258,465.805932246101,40.0162400399356,700.306461944605,84.4940706894254,1177.91719046806,121.17537641062,207.480498363574,10.608798457622,527.441543935626,124.808810179149,396.013264265681,3.8163899901384,1294.96430095805,90.79708449272,89.0616324192118,2.43006560301173,40.2418217773267,1.86513177535605,281.713991948796,-42.3348238752113,404.59776456143,37.5799589901999
150.446199558262,4.3291630182407,740.67414935573,45.6120136512375,563.590406620616,2.7068727626215,306.063479741551,-3.7982797240564,448.805632125516,55.3032162790982,698.790919702303,87.1815158757677,1163.6141623512,130.108467318119,208.312608535591,9.82288184364122,523.483899638653,130.678725253512,397.93417545958,1.97756475641057,1314.97157537218,89.8764597744435,86.7210076463986,4.77905970244763,37.3760046962982,5.88317741911168,302.047873851283,-57.6759988673808,404.029385041357,38.9826381610817
152.202168180865,4.4919211785313,734.329611361904,58.7834527333449,570.51103898987,2.26632365018099,311.893435827376,-4.70650362908531,470.631398663336,45.0810772782068,709.437811769132,87.0670061462894,1186.11080748434,130.073160121241,214.911880514696,9.87948385561861,533.997842697985,129.699571164021,403.430179558668,3.58917711492429,1348.91094608083,87.4135962397698,91.177012939325,4.20110957997195,39.2418262557567,2.35371955797342,303.489725569432,-56.3426295771889,416.038562739295,37.1024486096342
155.3148386385,3.96473760550654,758.186728263633,48.9334516256727,574.336950125395,6.83395486547448,311.749441401734,-4.4928082508729,471.091119626633,42.5440160288355,710.382033343035,85.1747728429413,1190.72789776523,136.064362986664,214.18774606021,9.81250487866042,526.917192398928,131.900182750738,399.682988894835,1.92961691889736,1324.23314826797,79.6700555264138,85.3907014599687,9.8194337057474,40.1662907036072,0.535932211650362,297.31713305047,-51.8417766903518,403.500025366419,39.1083947333822
149.690167826374,4.79159520493893,718.157305288025,56.2185898329244,553.83935968408,14.0476459982317,306.188869741541,-4.20662169432998,457.464041028027,48.9159573869867,697.926562961985,86.7434091882822,1165.19491387334,124.630449578723,206.965363499129,10.4218932198133,538.034781126106,118.355547783611,394.996156500642,3.44137938201533,1309.27436933634,80.0042879832967,82.7611429410408,7.67761159841535,44.5979144569824,5.08372252048741,290.383602228245,-46.3966577648491,404.199488500386,39.5296906628532
151.278651138631,4.48239581152574,725.820498838413,54.5014772317795,555.195144890764,6.7946811267659,309.920538169097,-4.52001735108622,460.691755713062,49.2982734990586,702.714088364636,89.8623324505643,1178.66112106626,126.004052130264,212.157198303527,10.0567217171371,530.743286001953,127.023951773028,402.63462132922,1.26813483300499,1347.87601147186,79.8744443399123,87.3308510526232,6.8212341235872,44.3750861997556,0.365237224564683,290.628554172367,-49.0015036075366,415.464633855351,36.2489015751751
154.751242607488,4.28532512002334,747.816125123407,63.4463856071754,575.328499693313,1.84604590273551,315.961885601054,-4.85737311985948,471.881658710681,54.9328704356802,720.309653969272,86.6970976367402,1206.33832819101,134.632993399337,219.443499801907,10.6026216881714,548.932991948534,123.5497646081,405.339431485883,2.14804929382431,1360.00344793368,83.6609993300848,83.8796403887039,9.2575594864479,40.1577089698653,1.04804368319553,288.190494565692,-46.0501349501381,408.223827486909,36.075782161292
148.466982446172,4.90977093589492,721.081533153071,51.2459739692906,546.97304675326,14.9288160881805,305.24366204969,-3.66265328174644,452.894693121783,46.3521886277046,691.243788196041,87.3310747389002,1141.12757453842,134.978072463755,204.423584216104,11.3405577542844,526.620438352199,122.175537744533,392.706720200616,4.57382681685685,1304.34740182582,85.6636646137622,89.7280813020878,1.73526704663023,42.2328241424728,-6.360043349281,279.532922174114,-44.1168448293548,403.427289306898,37.5857402070107
149.673096055066,4.84870293982202,722.649908722187,53.8866331822622,547.814603797229,11.9706093120145,307.242211290791,-3.5060435412294,456.736920802113,49.9314422967736,696.733229357411,87.983100658944,1148.31357832983,135.678868057037,206.509070865106,11.9585302330268,528.745742275234,130.714509022823,396.32579623877,4.40177032372827,1313.67325696659,89.3372326686415,92.3865351274435,5.68448519009826,41.6927803392086,5.3625121878432,291.244288682199,-53.1303705187271,410.814872190774,35.915737044311
152.623555113779,4.94797627246842,751.996775861124,47.6457229893828,564.633876112768,7.9549436854758,314.7863869148,-5.09753761749116,464.629552822337,55.3389102449152,712.589455181887,86.7707388747909,1184.54537453959,133.820016418342,217.623494094062,9.33003324746501,544.285863018564,128.54880160964,405.004057727685,2.75230450643083,1365.33971101479,87.6904390403351,83.9863846857523,9.97653053532278,41.8126089624308,-0.780720055336363,295.46893532426,-53.1758212532203,415.477181829988,38.67531709926
147.906776261813,5.21484360995553,704.303238857138,59.8105865967066,545.817210307824,7.74767233210455,304.017929135434,-3.24316007243878,450.842546643636,45.8572066477428,688.35828448828,87.8146426735017,1148.57482619091,125.240418248826,204.97694941034,10.1957662752326,525.101260155148,126.868798903106,388.766197589585,6.57764296522434,1281.24639446407,102.069589118311,78.5606590079326,9.46251990920906,38.6731295575468,1.96984106917214,276.774981322026,-48.6586548236202,400.460569611725,37.5755083566643
149.21938391011,4.87106320442282,706.234886653881,61.9957342564822,553.582206703932,10.402044642393,306.483406830612,-3.94416519509895,454.633072645288,45.3613752008426,694.616836616207,85.3852874369082,1151.64454829482,130.954332714507,205.039477076642,11.4798333904757,527.150871538967,125.782086328164,394.782074952794,3.59315264596564,1309.76236614001,89.3057376792197,82.181045319534,7.81924973117813,49.2607495237106,-2.49954744161511,282.503692762322,-47.2906127231702,401.872928566534,38.8577972622086
152.417995968809,4.60014046282422,736.779080225722,49.5059993035032,555.947698477419,8.4241111342904,312.829996408553,-4.2175659696517,470.162075737514,49.1030327105878,705.111761698758,87.2062991389137,1168.96163323907,135.023082795097,211.762966546508,11.1330186470735,529.438752522243,132.349084263509,401.417266236783,2.95517388213876,1338.01646866272,94.3284329110338,97.9477868744308,0.825842111736558,44.1378137010088,-1.65901360530561,300.916063800284,-56.9301286253714,413.570078318159,36.8417311671936
150.066603631835,4.7357370808808,743.566238839248,38.3434468664944,551.365733093227,5.78756511026071,305.468965650511,-3.28375296859232,451.817948743074,46.1698031697035,688.157727726702,87.3580133751711,1158.64924720464,125.80083300716,204.609213671938,10.5974075196479,529.192062009767,123.934210180392,390.483318545111,3.88958543661458,1300.29705545709,90.8225647608778,83.058101553052,9.32019520466955,39.2414437961348,3.12591191070731,292.73724277212,-54.0913071766332,399.232323698019,39.1878749475657
149.888840399144,4.84075892536305,705.912327503836,63.5132049017276,548.158298945694,11.8119299928191,307.044132192731,-3.98591606177569,457.307220114956,48.0416808190302,693.087476014034,86.1491225093108,1161.40037474044,124.422767266056,204.719089474808,10.9993477610331,541.378681888802,116.736985504952,393.056123593092,4.50441158156173,1310.26970090877,87.954307094085,83.8457904420486,5.68471911610107,45.3369094214806,-2.10267732553894,283.298580628013,-42.8991745387174,404.690454482098,37.3940814724277
152.726071578331,4.60549783153766,735.555385599821,44.0585864450933,560.468137302594,4.1229070548793,312.774801653766,-3.83255252998354,450.854466255969,57.3661372150319,703.647805952858,88.5956514579257,1170.55571026095,133.435927045993,213.720824237828,10.2741286863799,543.205292981218,123.843432432474,399.121571841446,3.91325840505365,1352.75942791377,77.2262127567472,90.0507369500545,2.32409149951615,43.4633896640698,3.75621236454568,288.483506907261,-48.9979157354391,412.434137048273,37.6975606545279
154.798256665048,4.10082520802315,738.212277461008,52.9406285044575,563.423145058391,10.4845130362402,311.499510239476,-4.12766589326307,458.632976627845,39.0403150844581,695.235002657139,87.4278918504378,1163.45875157199,129.893396529202,206.655908061553,11.288133618887,519.955906907267,135.4473404459,392.826976125001,4.98441215205923,1306.59744960474,78.8196761915664,81.9879749659662,11.5972382066802,45.3654847432447,-2.48512403219691,292.531378291698,-55.0593576813311,398.093312292694,39.3037245376486
150.16749354508,4.85417692992978,708.648202395476,59.4648453099415,560.707624170179,5.8200029187518,307.303085104191,-3.62647525511541,454.301048777888,46.5880454801168,690.617777845559,87.3850161530885,1163.56615297028,120.215963195645,204.778602047199,11.0476182628479,526.443452456919,127.920057824411,391.674217575883,4.16535358739562,1294.03780505033,90.8086673258031,83.7458091602951,10.6534973895275,43.2314951601989,-1.10906515507286,280.771957992703,-43.9384621117188,399.917882069242,38.3956346571625
151.734255000063,4.75318112445967,709.859286317487,67.1079421948694,546.681842162662,12.5998377640643,312.305950378517,-4.48443605557231,471.488504324017,41.0505103867629,700.681220370808,86.782372031395,1149.07880229979,132.586272588746,211.749517131762,9.30534136963736,523.392417444414,135.875901359761,398.757731545934,4.40901763023164,1328.8821558832,84.5208255398009,88.4986481241674,5.62857000137675,44.0091956076142,0.33588285833139,301.437009995242,-52.210722539264,408.705288186144,37.7944431509605
155.486381675317,4.43482552528904,741.736270382589,54.2259934200133,566.170736734986,6.26304772793294,319.167962668096,-5.32790982377059,470.442021070763,49.0452845435589,718.307627716422,88.149595482395,1175.99935926845,138.086833337385,218.918702502126,9.93179966714585,541.504584333508,132.614014064625,403.978438345989,3.25374713682462,1377.54967042552,78.3829855884951,96.0885681172935,6.07499663482824,42.3726282043662,3.08503236664228,289.139784695279,-49.7212519011719,412.35179932873,37.8844044007126
149.113921592495,4.96182065827671,713.760875215557,51.4942659292682,546.615422388261,9.29570713079206,306.872918301585,-3.77213644420097,458.221893524738,36.9780492866728,687.006438009225,87.4635340805158,1130.19913200056,138.239416906757,202.956498496573,10.7562566827052,531.478471485324,125.456014571632,392.529793581281,4.27301929761687,1287.96570036214,89.2566810012739,82.5459078216617,4.76398386938676,44.795423798417,0.39311494509014,279.821882811195,-38.4847755280516,397.683525238475,38.280619074762
150.111774376671,5.06067985912289,718.417532311142,53.9442688145182,560.046454795131,3.70086892573321,308.956416033636,-3.75869064466917,464.371891067538,41.8930794227636,689.42831676723,89.910582362661,1142.92276242873,130.057681245324,204.992459410612,11.6877061275102,527.03909252463,130.571905679828,394.849135335335,3.6740143969619,1314.59971790399,87.6524498241639,87.7738913999211,2.79130296866344,46.7397933386389,-1.96292913464431,294.755322245255,-50.7082134622771,402.724361912025,39.6911402511645
153.647942570831,4.67157198973655,725.905967753607,58.6773660374637,556.135962495262,9.65262280207122,315.84192350237,-4.33300169069869,467.889581075787,49.127524679888,708.704578565053,86.4236504663965,1174.7552551946,126.860555418709,213.977847066502,10.2030666883798,543.036556779247,122.886336655184,402.066459448126,3.50455864482646,1352.40547355389,83.6854209853694,88.3783464716918,5.38386902942406,41.7563622245631,1.11776778026037,300.94397440943,-56.1269637829192,413.536382026624,37.4872285836634
149.538727357933,4.7844925425246,711.423136865913,54.7795191730595,548.692997625046,9.91973796786222,306.899173418815,-3.30982312697083,451.880235645625,46.4875488273847,685.287000847433,86.4352481312897,1138.40617890496,131.064672167941,201.628814469125,11.5793174170476,519.988082345499,128.491138483322,389.346876084158,3.88219331822157,1275.75215461589,95.5733744427409,90.6701458425826,2.78353008460747,48.2231066105324,-5.5933161944101,292.947967380663,-50.8596652107046,398.416804895098,38.4433809986909
150.005360113013,4.85011850540811,702.647091734516,59.6797037180669,544.277112612163,10.4139925744225,307.798783387231,-3.40489708236451,449.700934814575,46.6549786647462,687.627851798281,88.4067412671086,1141.71599494642,124.778831656449,204.770986975336,9.45041069743683,525.548175594532,125.459414506503,393.699161356088,3.95224099385505,1294.64751599931,89.5744092402817,90.1365135366819,0.450075920756265,37.1995492048664,3.65005021630596,297.231290129663,-56.1484253855943,402.343120170717,38.7089289849098
152.390182038106,4.79581606040978,733.273145251405,48.4832099552253,554.258783453719,9.20366693484763,314.271650852316,-4.42496541765781,461.314320631339,43.4899091052602,702.23194740207,86.3062135259814,1171.39244103594,125.7797190738,213.198098444468,10.1566738644477,535.081766924379,130.29518194038,401.342844359452,2.43029219729673,1345.48507794515,85.143834978325,86.7520933750917,7.4855023161861,39.3318908948063,0.151461433163606,283.091494373721,-41.3440853283341,411.012211301425,38.6399348917075
155.348184447152,4.28353133195848,731.157887362135,62.2607909148298,568.947052949944,4.30889280843126,315.156453251285,-4.63277473078456,464.114712414111,39.0725474965516,705.992940167399,83.9791537389455,1196.67667823514,119.280830159502,211.340704781731,10.1305747383329,516.894890475352,132.740026743165,392.386776161003,4.87129896421988,1302.25098500482,87.7664464851582,88.472700835299,6.80700796476092,48.208463854537,-2.0839220897217,291.778976921848,-47.2609697767776,400.415965546702,37.082927206
150.664342020792,4.69575658210543,710.736139910175,58.1289501991026,552.331753860271,7.65920330926089,308.925642543646,-3.71826922051705,444.969674507848,50.433627140678,691.78809303156,85.5491447558588,1144.89227583691,131.712433096109,205.142361133597,10.7594919684514,522.112721359123,131.288199177716,393.997634010978,3.07998209831938,1296.35133112698,88.5871577030798,83.6770515131751,8.5721213030515,40.9029007527357,2.35317598377469,296.428837287754,-53.0121940678282,402.542759090458,37.0108971214177
151.521367937197,4.92033800882254,723.083611657084,51.5842878437029,548.205213890824,16.7193956984867,313.380178158283,-4.29219071294734,460.319949440686,50.3668501886996,699.720085649632,85.8808002565155,1143.66028725202,144.772890782994,209.57590320384,10.4027851200196,538.153515314215,122.615428211205,398.910301728339,2.84783034900678,1322.35319488936,91.3720716510298,89.0636555687624,5.85337226516343,39.4206158353117,1.08436617670415,294.466036848984,-54.773147198757,407.286826245506,39.6405523605061
155.39381962033,4.25035934120291,732.792781331767,59.9939811447303,561.294769176012,5.12004611694951,319.199078700134,-4.92090135832598,467.292686805959,53.0062973129702,714.827508291595,86.6225973282386,1193.37129001555,127.017413815009,219.167292365617,8.70942828703483,529.056172248894,132.644723374483,401.387390134431,2.68584809853955,1371.48117709669,74.4747264406244,88.7787049554789,7.92054302326753,42.798160228886,-1.45980850270129,294.258028565995,-53.7595744198535,404.67698319395,37.4221688050371
149.354153217673,5.19657717579613,709.529274083161,58.1615159355396,547.469784283326,9.39334280339489,308.309515356125,-3.42772915662664,466.052973413034,38.4298473526995,687.984287449076,87.8810829427154,1136.17490814578,135.313542895735,202.050441009644,12.4257085732594,526.271675517573,129.777769666049,391.125865310222,4.87105229738589,1281.11771983176,97.8690271728552,84.4399345430482,8.7218764389768,42.5022676281369,1.84663937658363,279.114660747949,-46.0496068004353,399.32812498785,38.3446082244446
151.228258433428,4.70185009190779,715.827615751887,49.8971635898701,548.109427400149,14.0766707367709,311.397000073619,-3.71333886596287,461.396411565487,45.7912123982571,694.148669655355,87.098561270658,1147.41326326085,128.254578960024,207.879637191907,10.8687130218303,523.828882742891,128.182928678678,397.125414493557,3.91034907881708,1329.18084641574,88.0188374757345,83.8294019070808,6.72367510705645,40.170947668494,1.36387071550513,290.121690439155,-49.685347674734,405.556164220328,38.6682316236633
154.374985395526,4.34345425695982,737.437111977194,51.0120222625283,566.174108269012,4.07574378157011,318.398386238438,-5.18984172278726,478.239345028493,39.9661224525922,708.919759805886,87.5571949954391,1203.4750046603,113.725941650159,216.928202561218,9.20295299347642,533.835381644326,127.051089248402,406.441436092092,1.5789466220697,1381.60304813245,74.6404484708861,81.4017428756275,8.1111718851032,48.0704359774174,-1.04671227761329,292.149665391063,-49.6437653724278,416.93950303807,36.9368487262785
149.539529018431,4.61099934093845,696.167349322549,51.6745619457506,547.173767716116,8.57479780813614,307.578234226085,-3.69305385647969,450.673017262635,45.0209132772303,684.501020580831,86.4601633124218,1145.11983660793,120.402169174649,203.146546758206,10.2591282354353,523.216067539215,126.982847667952,390.699684781584,3.65035267116084,1280.73189168911,95.3760441144721,87.3777254575231,3.36266837620162,39.831238097652,4.79174047273454,281.012103295525,-43.8948328405115,396.651140758079,39.0641456600798
150.090675921997,4.73945638045588,710.364482940639,49.5471799772513,553.939285923441,1.83467934868802,308.478746239854,-3.52310051545415,448.667309089053,45.7095165749448,689.393330851582,85.3669219730966,1146.26324279537,131.029481708859,204.543978609237,10.6994745798887,518.611129260983,132.474350333285,392.193371905185,4.3923119091491,1294.26038427337,86.1208725232586,78.364741518696,7.17926672383086,38.813366525648,4.70442577986141,283.985088019169,-52.8766250686782,399.266516391645,37.9364832147169
152.821513399807,4.53396713449005,716.867547549749,52.5909147529772,542.71725136049,11.7288131469267,315.841171604058,-4.8549408686276,459.803775355898,44.3328296647255,703.091690147263,86.4371080252302,1166.98401519606,129.025720193564,212.952758847356,9.59668640297223,535.063556277121,129.35391461098,400.596882933624,3.72038507694266,1349.19917936402,81.091236683695,92.6838771281339,1.02771233658883,40.7437221701625,2.25281437721378,303.652492231617,-54.815908973191,411.050944042107,37.0456759597106
154.95503587634,4.08793376163674,734.394893046149,47.1593577658798,560.113494025584,8.94726528835902,313.238227969673,-4.15580611637682,455.29157950831,41.9915261953683,696.535040371882,85.3786177747088,1158.8337262254,133.837407998155,206.764888524346,11.1189467414165,520.97050963452,133.260890907101,392.5643483259,4.01913418662309,1306.87543842113,77.6252611511904,83.7512407096097,11.2192866927298,36.6260859568486,6.07999002485715,296.274509263416,-47.7146046482606,397.812957690661,38.7461018560153
150.429291184434,4.67532635963018,704.867874301559,55.2424282295652,537.795394073025,12.1037440366858,308.344118055368,-3.66490144645317,458.823035517915,41.6387061151412,686.106879409717,85.9282357835083,1141.46945305014,123.059585807808,204.247621370789,10.6888111242463,517.700521463247,135.209904961518,391.465680289664,4.45621321780147,1292.14846782932,85.5170295974787,89.6900225079638,4.08193042652434,51.1992949303631,-10.0007626239122,295.226656402392,-54.4415867593715,399.357908257731,38.722728700976
152.083027180501,4.46711656306611,719.217314600495,48.1397449279019,550.00960244262,11.0783365898754,313.277553850228,-4.64983298784224,458.91480873972,50.1672318075258,695.637227062296,86.6506118337253,1148.65238653915,132.880536502822,207.655011477634,10.3545935041493,525.308736248145,131.234294324266,397.330770049455,4.00555979192761,1327.271119927,84.9363635316564,94.1715242978951,-1.23115505244301,37.2409376150452,2.95454918157759,283.95627006874,-44.7182941214535,410.147378557572,34.7507306186624
155.448701584723,4.14092434179962,740.038670953197,45.2834517109391,563.233258452303,5.26262474472803,319.799116340503,-5.65708389793312,464.841268640155,53.2757840131212,710.48592336675,87.083538228041,1186.96331402982,126.609374807112,214.053036280914,11.2734918103826,541.686786116295,131.531180562652,403.599557098959,2.0800944268667,1370.0850743276,71.2443672022623,88.7672812384985,3.9490404596921,40.1369089796629,4.47369405348182,290.324015800238,-49.1418950053862,404.532259073303,37.6140390329599
150.708953731326,4.45416856788851,714.550239111216,45.4849962898259,547.529644051874,4.00959229925638,309.988778158835,-4.33725813035456,452.004731673036,45.0904160271968,685.97878078497,88.098213533704,1135.70945129349,129.31801089679,204.499663567968,10.3972992759996,519.168420239891,128.965972677542,396.204856533784,2.16165842323722,1302.85391552692,83.1247431479805,79.3131078882254,8.62867473689556,35.0930582044405,4.75080496250566,278.325038161543,-43.2182074413365,399.443661143008,38.5896243056122
152.068316356463,4.33891575501502,710.963610658124,53.2910367348539,553.2500243643,6.86272213959747,312.771845288313,-4.5345713044625,450.182925891837,52.5446457989678,695.60975722629,86.4640026175706,1135.6278553795,140.332614112921,205.716261843779,11.6014289548727,518.541036244737,134.420349730321,398.102511522158,2.48294298131073,1325.75170269789,83.3114487403589,93.0916988679369,1.5541985301418,40.5146670586335,2.95157504446525,292.987208891138,-56.4799419680257,405.351621796093,38.6797644422344
155.720633640022,4.04369767267309,742.560316229025,42.3224315266347,546.248187614001,15.2412764452214,319.706041774303,-5.52131655780658,468.625655083434,45.6806681774635,709.096908586739,88.5330723020206,1174.81091169227,127.736315312239,216.70980408416,8.9586874765999,540.452464066862,122.578331248587,403.599372310263,3.27786024615181,1382.70312010529,68.999113719765,89.4488300219424,4.65022334203986,40.1365979346787,3.30261272426714,298.302046889951,-51.9064663197604,415.303427708737,38.0623453841163
150.664390797061,4.35563926295775,705.651417521316,52.4246929804939,542.946067186235,8.98747035668347,308.387625902851,-3.83026865976031,451.170208580079,43.1749067543984,684.78711869032,87.6970438823323,1140.94809399064,123.943672997486,202.740251604789,10.0204624661864,525.182677169538,124.52654844995,393.764854382146,3.28820901054135,1297.21063946163,84.1659937648355,90.2702776118718,3.70557994129839,38.8381623050876,1.65927213726092,296.245376059248,-52.417374951857,399.697390438669,38.2589474389827
152.209651076008,4.11184030846555,709.879284867692,54.8480317272979,546.599800468174,8.21470132647133,311.2851711357,-4.8147358156293,454.810631056955,49.7791060342521,691.659699496351,85.8224910100121,1139.15382857266,127.279080302961,203.819176698851,10.7493551245893,525.29225202889,127.566236467393,396.38571169329,3.21227036039032,1309.37722098771,75.1394823257737,86.6113580800493,1.65460798605138,43.3730631033733,-0.175586475123244,288.026560468713,-52.6911272600816,401.619157582455,39.4049242503191
155.031363562038,3.99791177766949,720.306159044618,61.1011652022634,547.259377180008,15.3606851502764,317.718141132638,-5.14576999753784,456.727765445627,52.3337767428773,708.894707690891,84.66447708428,1164.79894611805,130.488316713835,213.723148306258,9.02964615325328,541.868012458581,125.00001749613,403.029307282118,2.62623526898662,1355.63884549392,83.5139325532641,82.3242570473129,10.876173697139,50.1076022979214,-1.82755332862375,307.850793142863,-55.6408411728283,413.321887138634,38.3699326822499
152.374982572104,4.2876110671522,713.239714930715,54.7426850536482,562.729195322196,4.59953451432493,309.405032244364,-3.92845861633661,454.471949319743,39.243559717815,691.54017875206,81.1444652029061,1140.52795454142,127.648916118645,202.795697876111,9.2409221453743,508.488143326984,136.054935447475,390.939111880231,4.6473954517948,1272.88679478418,90.6924780523021,77.999522894954,11.7217968249742,38.4337819965846,-0.604171959162915,291.21853432353,-51.7237884200008,396.43661522599,38.0239666719177
151.439049314827,4.36877787957984,703.428517249012,58.9868256157789,547.212235087105,12.1104731066722,308.938007599197,-3.70992268187498,454.142578829186,39.1236492341533,687.744622020491,86.9898208684689,1128.93812466153,129.32893250873,202.486149383905,10.2336113260715,515.780261689857,129.416531824262,392.574094961446,3.32996953773503,1281.86131228065,95.852835905232,88.3410460269242,3.91707591912471,36.1374272354192,3.43422021744941,293.22487448445,-51.3048073852001,397.551744007666,39.1978935097207
153.979792221785,4.18076942551713,705.402498051489,57.815225636568,554.51359060808,8.03541985466513,315.274022340596,-4.79534943061239,456.463703958914,45.8193635209513,701.191141542254,85.2237394310339,1158.60659791875,128.912344274588,207.864257438101,10.5423335861359,533.716983323258,126.284889487302,402.103182360656,1.27654466183886,1331.12714741726,88.9845379941135,86.2785276633204,4.8202625495374,47.6494291004748,-2.3441507034563,276.611086428809,-38.0209073672744,407.729076091505,37.058944100579
157.721930387044,3.56818962676495,740.317174975597,50.5727379512625,578.336594966139,2.4702962927949,317.994246516681,-5.4260610815536,465.838836270037,40.0043246066332,705.273213787214,85.4584035686803,1163.53879248295,126.479039409214,211.545330569444,9.64631720631697,545.977312952174,122.372750216256,394.996135414823,3.33888998369538,1323.94959812456,77.6134788858592,83.1616852994149,8.97940667948431,42.0396514627326,-0.0451483802067594,292.867209639472,-50.4702966401581,398.987223181052,37.8545667887096
152.129959646713,4.07665051588772,711.306180476068,51.6827166916498,550.916786870504,8.37158610202099,310.548070588021,-4.55912515431983,458.88712966667,40.6192316930172,688.766196850633,85.8674859473589,1134.59161038842,127.516259006953,204.061395825822,10.6683425305179,510.505077064861,139.042764088571,394.150468180591,3.22967950145117,1276.70280632405,94.498091272417,88.3927513391524,7.38437129333642,34.8691109049003,5.07554851497714,280.281261805253,-46.8098814080135,399.297770320998,37.5964904703102
153.274060884653,4.28754226891958,723.656837558719,45.1699611674057,554.54110129754,4.92400946084932,313.443950934638,-4.65371761975442,462.54481023326,42.8953948051361,696.242735288098,87.257166030184,1150.05570761309,130.909664899557,206.663607464415,10.4737214777229,522.39344820438,130.236700794264,399.465911972619,1.8685086506883,1320.12510271401,82.3929117784585,81.4074604812401,10.4465776542263,43.2187814151238,0.766452535475797,294.430359845114,-49.5420091517761,406.765977092476,37.0181719538517
156.807336931998,3.51746888487648,732.385399818467,54.0878822960573,559.416371902839,11.2322067820656,320.759013773595,-5.67851319438828,476.869390213988,43.0062312887336,713.420301029239,85.3905087807316,1177.41357989388,126.202527123394,215.279588693042,9.39533945759131,537.138612814564,126.150203575334,404.322383786736,2.57261577229736,1364.28964310303,75.1510190130213,90.5887932070283,4.92444898343715,42.3460616237804,2.82820296096492,295.264741016185,-55.4719810129959,406.455449432652,35.9309412317073
151.981194667706,4.15660027080045,704.922768257942,56.0502730679271,547.292270688018,5.8233593298678,311.121409999286,-4.33908894674863,444.076052070166,51.5211612771992,691.734064453151,85.0023299508131,1135.64060698682,127.76428128388,202.40650311748,11.2870118992379,517.268236134755,132.580949687316,393.068255449938,4.25266424979582,1293.31539144725,88.7802647736479,89.5845465981137,4.28292535568311,46.7967549932686,-0.7039342519449,288.854380353289,-52.8427650117613,401.143644159695,37.8956823503649
153.693009302807,4.07801993631777,717.600290509159,58.1154865980654,542.857727533012,15.1825051928983,313.875990763117,-4.74033492667964,477.124357906038,36.8169174337497,698.753777301743,84.0008462299565,1137.48292462807,143.851731859744,205.52377292029,10.4839922352858,533.405853465885,125.180332706328,399.105725789518,2.80902260839657,1331.52246116073,74.906718849404,84.283275244669,8.3563136294708,44.3375113692985,-1.72312590487986,288.645388579659,-53.7691315033445,400.615024699481,42.036927155222
157.073003035563,3.73919266793178,735.775237970709,46.6406085260346,557.948471416421,8.54029986770567,320.558243022657,-5.50607735784115,477.821577438301,41.2301436873263,715.957399218383,82.4961172002122,1182.96318578702,120.410834283469,214.470395226521,9.57300041713871,536.064664850592,129.589410024364,405.573510119314,2.62420572112463,1369.6708474303,71.5541247762388,92.0428394290538,4.75292935554605,43.577273525114,-1.22899951129387,297.144546013768,-54.7100933404244,414.664611663022,38.1448313763456
151.827865791816,4.14580230429216,693.780311593654,56.1500312822032,545.443217638395,11.2475802823197,309.362843362936,-4.50674195452837,450.415960116651,42.7579341228814,688.866671079387,83.4085389621933,1137.14994223345,128.050002813487,200.870389649115,10.6403432151656,516.717421379669,130.23923096841,392.874540971143,4.30412163617491,1293.40395861422,82.4759740533955,89.4305278514549,5.89220752280713,34.2592005151713,1.32151679156885,296.936340685528,-60.6136203914378,399.048358080039,37.7679427662545
152.515702611323,4.167140999039,708.371592000692,55.319966743873,544.086104044472,15.8819614388817,310.993539988195,-4.36689627471745,458.960824169446,42.8352229155652,692.227029241578,84.3220761474055,1130.09492105053,134.692076835513,203.582903890474,9.88821345119354,538.952158916404,123.185758840464,396.175773718683,2.91199493674933,1292.22397304298,88.7873081815253,85.3131787492535,10.5879804028545,44.126303083443,-0.702252094858048,279.677693351352,-41.6415213249091,402.047673840701,38.3390271335806
