1418.79211158513,7.77694902591691,177.990742296263,41.6116775597112,625.95382793014,37.4876188985979,1603.01298450511,17.0673179204625,153.936227158306,28.6688274818879,556.728648982805,75.1028820675037,366.637728210854,-6.43521037057285,598.824543501622,47.9850162755114,407.472605118278,99.763635310288,582.623727475668,-26.304277661617,540.721447256261,24.3136957325323,158.893254856924,19.8334432278285,107.420665542968,61.5480656700701,621.688719577768,304.586528620182,1142.20342160596,-97.4097717644387
1429.63631485511,8.40186585798091,176.381727357229,42.8403197485743,617.249829207814,43.9396690464878,1612.34334115964,17.2770865470816,152.415480213998,29.8925508901249,568.788169166265,72.9523403051981,366.479282377223,-4.25425926750894,605.171862782537,47.0894932214524,410.712833477037,101.30649483838,590.710347297132,-28.0140907715506,546.860271927708,24.3105813455451,163.840504393301,15.3093432878165,109.751420652207,61.9253956645331,626.31363932746,308.11739009882,1145.5840298424,-104.130195497663
1452.31669091684,4.90153209583882,177.594434878047,42.5457881814867,629.530531374911,37.1851869472145,1628.22988904093,12.8307705133884,155.056557468209,27.7455702462118,563.795165375023,74.8112582235944,368.164303530449,-5.30380239977235,603.88859690606,46.1823431488002,416.598539822792,96.2989077553728,585.883266124902,-26.2839491262855,543.633928190273,23.533827233889,164.328878700068,14.7839556924281,109.069645679432,61.0367388577372,624.212045221452,306.180447720198,1136.53535967897,-105.247135200784
1408.37798972707,9.78844557405199,173.487149957942,42.9966502379932,613.59388642708,37.6179521354582,1593.87892415724,18.784130021234,149.817476674922,29.4572657524247,552.766916789042,75.0808953801412,362.900512411761,-4.88865008328832,594.48699465101,47.0235632351507,405.188856541819,99.9401368719957,583.12158295279,-27.1432768067003,538.430788085766,23.6457761163344,157.054430864394,18.5922760174824,107.831383854122,61.6624093010809,626.030591117903,307.105721209393,1124.15106793468,-99.8536437154606
1420.81620377745,8.69557205721114,173.949689927794,42.9631747681641,613.644438827816,37.2200927479418,1604.79554851122,15.6577712454942,151.827672989275,30.0380715994505,564.655710284198,73.7439016732896,362.954492020161,-4.547334850682,603.00781207837,46.3877090444438,404.06765045382,99.6285153731791,588.910982215977,-27.3520737374496,540.698166728086,25.3591447066127,158.954412033659,17.7323496581397,107.697690789774,63.198632236556,628.685427144889,307.334286235891,1115.29203599957,-88.8334015395188
1445.68969633818,4.52105689443985,175.315054844709,42.2565636568678,625.730641917974,33.8362968750697,1624.91877171941,10.978194920989,154.2269603638,30.2468490235845,575.917477023238,71.2911259697308,368.332542061662,-4.72562852999044,612.553327962893,44.6195448627401,407.404519265193,105.435699917351,591.283916746157,-28.0961069904501,547.160175003748,23.0771271570244,153.880081877549,18.0745696521507,109.617455188984,60.2652622827831,624.792142739886,305.968478973848,1126.54810272024,-98.3160003838775
1407.79914437315,9.99333040237432,171.667518546913,43.1333449874947,606.435513190595,42.0508873835238,1593.92657189045,17.1182932111151,151.853715733104,29.1561159658135,556.295750609837,73.6755117118307,359.180606317808,-2.57603178794195,593.073587880582,48.672327960189,406.607513588363,99.2639128744267,582.728192520952,-27.1982665628225,534.589576003744,26.5344565134345,148.173839348664,20.9547555447865,107.915555337687,61.0018751098273,624.517765541605,306.353708816511,1119.77886893868,-98.4173116764854
1423.85911262922,5.42415166123258,171.574573304485,43.5916688970702,608.126449101657,43.1289602598662,1601.6896580062,15.1473442102633,153.68808373154,28.4956539781514,564.861489236269,72.6814327164413,365.964164753188,-6.57985940447805,605.253365927893,45.1298857436818,398.208876715021,109.513989143596,591.296863523103,-29.2765858274874,540.996171684288,24.7323277797944,160.692426767203,14.6568622161393,108.648840008778,60.7678692495704,627.270140859123,307.179004313471,1140.41179965589,-107.178514815581
1445.9387704022,2.80020619878771,173.743340089547,42.7898985400313,606.361615549698,45.6535534233812,1623.2344084756,10.0842617747806,156.24443887442,28.9601840595073,582.180590246538,67.8642950099594,368.073628255226,-5.26114521163178,615.618824146893,44.5183678668383,412.00739431619,103.521452773344,599.514368988544,-29.7623293724021,552.600733721654,24.2047888200953,159.124876336572,19.4401375859465,109.53173425838,62.0797174898121,629.607996781323,308.334066158246,1122.63263614356,-95.7827277750677
1424.37386303599,3.7660630761812,171.610064186116,43.2831152002251,612.327288264836,45.4844728333947,1594.45642779813,17.3266898479177,150.073779925251,29.7085625082135,554.606655316066,72.0353651277382,360.309659576075,-3.78313972983747,594.641210819461,45.9842345676414,404.599065174547,103.085960071755,586.083648427721,-29.3783066992089,530.97826568925,27.1262284197461,157.993767061135,18.5708283567279,107.747273688626,60.2616605089344,625.909437949338,305.88651437015,1116.07692948998,-92.1576475726864
1417.3225620194,3.6498564848829,171.034814443768,43.4755418260769,613.602590807395,36.8720473090559,1592.46895421154,14.9125964746713,151.659992463927,28.297642946197,558.068012565275,73.1333972066339,361.802975288294,-3.46794361706643,596.767636887814,46.2524463939681,397.754185516402,103.105134789339,587.588553596482,-29.4635116322896,533.110907671659,26.8274949030462,161.850974579572,19.1235015560184,109.707575608398,60.3704643960583,627.428400059085,306.440761448971,1128.80584783066,-101.791544025903
1435.77190385136,1.96006013682669,172.701623156857,43.4116563367457,632.786433848717,31.6891740420089,1609.18027018992,15.1083110251449,154.394227099661,29.3500641792237,571.447443837532,71.0958347541233,368.925568682265,-7.07546330522326,609.088359147572,44.9097400853333,412.28600232768,93.9830458169673,596.044137483646,-30.6026180648455,545.817684749279,23.6420134032068,159.057531927464,20.052461707649,108.502776156382,61.8295031940688,628.822964948029,308.558935069951,1146.35931330878,-95.9162955412709
1459.94797048821,-3.55988685469329,174.166033161297,43.2901102909559,635.02686548989,32.4323969474084,1612.30423241139,14.9835110513331,152.210691821189,29.2324057930738,565.521485187766,70.3492486532736,366.925801339986,-5.07282063404651,603.03078543167,44.8387617833961,407.970969423195,98.8558131457711,590.827718508268,-30.2567216941586,539.765134902456,24.0434721179832,161.619279114316,17.2396500449997,107.458802241989,62.0640612387035,625.90147639428,306.997038078328,1139.19006076704,-100.412184463657
1420.06881107655,-1.15647446247808,171.358976967762,43.353321467317,623.100934590446,38.9081334049861,1591.51145020261,14.695420556919,151.449432506055,28.1035048293058,556.528219161822,70.928744909999,363.030824107182,-5.00283696647967,590.581901206916,47.8466058834474,393.286938203377,107.577728158929,587.619258603433,-29.676183749341,531.412764136704,26.6391495344047,162.368359243532,17.2016973737085,108.124354069466,61.5228505341254,629.69857224695,307.955473334639,1135.9614359642,-106.752250437905
1437.47523439581,-2.40022116102597,172.744119058114,43.2443591982153,623.153921792173,38.7317294521494,1603.37790413727,16.3949950178281,152.210368127146,29.3202516415774,567.058272716968,69.3797241491581,366.250336403213,-4.46568103816159,604.507788395834,45.4186969989618,398.367615222708,108.191693281214,594.86435356581,-30.089741168192,541.507840163772,24.7447352983481,158.861557533592,16.7582076260216,110.738558054126,61.806720433707,631.886512403231,309.405440225381,1136.88437416687,-90.2243998165775
1462.15678362951,-6.57118885200329,174.89830817107,43.1006963214384,635.880979606699,34.3497013349607,1629.11603307789,11.7833538905089,157.650314603832,27.8305729298345,578.347907372176,70.6006593195761,372.320567618181,-5.52212773582828,617.306464188597,44.1330846812312,409.141828260963,112.652307984531,607.285115743043,-33.0557749352485,551.902718536461,23.2845693627677,168.059929491916,15.7905538638372,111.699380020787,62.9243296054059,631.405491034976,308.885956781149,1154.34199972995,-98.8759246634691
1438.81677893648,-5.98007812903855,173.042541515268,43.1946755194834,623.418958241093,42.7535742246786,1601.50556268077,15.7374465020284,152.125989877723,28.416109239861,557.754607988554,71.0986548485104,367.50628882461,-5.58399748512402,593.721776935386,45.2523704103942,414.415359455426,102.357533112421,593.152369099755,-32.2376416229131,534.497646130375,26.815942681557,163.154745808354,16.1063387613989,108.85611494279,61.958703689038,630.407146902208,307.906429751372,1154.38013828503,-111.364098735459
1437.1075618508,-2.93593672169763,173.589499496238,43.3064542234706,622.831669963395,40.6259739017774,1601.40020075593,18.6901584469366,152.655531047267,28.2760126126331,563.733864523646,72.5617527426512,369.400014558683,-6.50708685812526,602.000579057815,46.0361330532819,409.630263763999,101.826503352752,596.474662298497,-31.1288909841913,544.58826740756,23.9132280109894,167.208509694396,15.8942747370813,109.856804453855,62.3010879123065,629.388761180288,307.831196723568,1139.55359529877,-91.5470633092331
1464.51907584163,-10.2171357514681,174.607012300208,43.928662921667,640.116448100483,26.7889998285961,1624.1860558904,12.6245442160949,156.602689847873,28.6176774506958,578.334905360144,70.2303856302534,373.654408117419,-6.14616288279447,618.220690430517,41.464019540509,415.839602914389,103.141149040966,605.05672816216,-32.266550472455,553.375128574943,21.5267221269079,168.916438531894,15.255249514027,111.531489767806,62.1936208687728,631.940358559366,308.982906466255,1166.13950338242,-106.095565412644
1448.97995413324,-8.16548184275946,174.68685210692,43.3764128346228,630.445731853243,35.2686105840431,1605.59684172358,15.3210827636492,153.383481018633,28.5612774636981,561.660888065588,70.9413863732847,371.517736763792,-7.31129717269465,598.540516698113,43.5658210496062,395.100132710644,109.190238245637,593.477485014623,-31.1014394825769,544.651552377082,22.5964824174689,157.659345164362,19.8650057406261,109.301726711502,62.1750589088169,628.201015211064,307.110736765316,1142.03460711358,-96.6839586303932
1440.74991382111,-6.44930254710158,174.209744760925,43.4170250099698,625.261359130934,38.4139773264751,1601.34911085699,14.5439620320253,152.534869084554,28.7343953624641,566.874732109872,69.5894846511686,368.496211253163,-4.61320682490832,597.455481152667,46.7063466905116,399.658484650245,104.640004620149,594.067153877652,-30.7773536618322,546.867942973772,22.0562905895774,167.470891747675,13.1675186808299,108.828960431988,62.411528866369,628.618545464043,307.797299341584,1157.44930467196,-106.733877140973
1460.70534938681,-7.24715313366042,175.484507750022,43.7748787794116,632.77574230971,41.7866893145658,1624.78945994521,11.3416219171685,156.072715729177,27.9520322716738,578.488717165074,69.5731629540173,373.166443550903,-5.39594657856341,612.86023042427,44.6173304765578,410.765972462124,102.704239236603,602.169928316152,-31.0457551999065,556.059956144705,22.6050959259672,172.124973918893,13.506722008436,111.68030771286,62.1748375365818,631.125761030126,309.41837025079,1175.32291704152,-108.147009228082
1491.15746943175,-15.5973456459325,178.134733148355,43.2413107416627,653.444535731012,32.5832948420616,1640.60734761918,10.1738212590269,156.367135578855,29.4188704240221,580.879455713917,70.9223339524401,377.238445766906,-6.22694907264441,622.914928809286,40.5315813277319,424.969619931093,92.7988742864121,603.93773624538,-33.03551234554,554.2974354871,23.0882387086318,173.57947084946,9.91535565686759,111.530482240907,61.0717045682938,627.191800600335,306.495741273155,1168.84414913422,-106.035114812772
1444.24993826976,-8.73115718792619,175.651792236121,43.1944996905638,634.919137407975,34.448510595364,1597.58465538349,18.0733445803289,154.245544795606,27.3900713147538,560.947624123048,72.3975877576034,368.647652079239,-5.97658605323335,597.341980898523,45.5929587439224,411.551898144185,98.7336354962697,592.57408489107,-29.3192608677731,542.778870773408,25.6767973304154,166.789660678654,14.2370185753633,109.674438681746,61.528669882248,627.744391796089,307.563199318642,1162.69105996449,-109.309143592125
1453.10974768618,-7.71122892691571,177.025486599468,42.6641020113762,642.832660838909,30.8636716749834,1613.45800980703,12.9362905773166,153.395031714113,29.325807328519,572.596613387096,69.4464102946829,371.576809056425,-5.36369166883238,606.409016865298,45.2991128337436,412.441321752077,101.349312808248,599.240608484294,-30.1011271078882,552.174819066608,22.4400514627711,166.17833751861,14.5405216287115,112.021574960258,62.053723132663,629.753872761892,307.702442037545,1161.0258506947,-103.348411114907
1484.3632270611,-15.4801522194976,178.196667199516,43.5531460496459,650.906183864898,36.6045609445677,1634.32498944319,12.3573735196582,156.323224037268,30.3183906866079,582.284217516137,70.9031688561033,376.801695102243,-5.4788308416675,618.997864392337,43.4255945491771,417.957508996494,101.734617664796,608.406756203841,-31.4558760631384,560.286562169047,22.8940757665275,169.710042174256,16.2652190944792,113.059809528688,61.979319403282,631.927447352011,308.625640564038,1166.55419771631,-107.77932940296
1471.62507070811,-14.5870779991846,178.356889707387,43.1628348507563,647.110749733865,38.7030050887625,1620.67916171548,13.7570229247797,151.703653760058,30.3732266154533,566.662779387498,70.5814987131545,375.740527292901,-7.25060720208192,599.317578772727,46.695729604412,419.336113146854,96.5283995106524,598.416590201346,-30.2582862666484,553.696669734661,20.1684621866065,156.781022801667,17.0554109250484,110.899068962211,61.4072776867628,629.361328425316,307.629042914716,1166.65129278299,-105.778468991051
1459.62960243824,-13.1935637568679,177.640842365522,42.7405236948271,645.303686185109,32.1719981450267,1609.73561474353,14.5305373992368,153.671654952444,28.8583573127899,565.126154833668,70.9588412395228,371.881649136914,-6.30086804402408,601.397409903662,46.4097251495166,405.648915374252,102.938117852886,600.945596861431,-32.165065528331,551.060809648885,22.8331493289192,163.122297338836,17.8914947462953,109.57992475986,63.0101873653495,630.755470632755,308.973283130769,1170.50153867858,-102.034645000478
1479.97429217528,-15.5258404545711,178.833832340657,43.2099828317567,644.968915644855,39.7565607285914,1626.46778680157,15.9661114714859,154.825454821543,30.0389805194543,578.738878762612,71.2208870184112,376.602562447708,-6.47388778335907,618.603185686797,43.0852326760309,427.532309645097,96.0249247884761,606.047815912088,-30.8229100056597,561.536619679335,20.6529317762559,170.035749583777,17.184172920734,111.373116934852,63.2773261009426,630.70800776609,309.327510461463,1171.26134545124,-105.045412733615
1508.34534352647,-21.6693751298612,181.547986242963,42.2823037871512,643.655512630599,38.635237163188,1645.45174189924,14.1494859890676,156.979203521617,29.6666236616671,584.947850253085,68.4335679434687,383.32044150057,-8.54266605092893,622.73907374526,43.4239706531498,420.070057579165,101.957997576395,606.489259610535,-31.5073282476999,562.722289553946,20.9708980546712,170.778430564075,11.4107225263686,112.479869413958,61.9002321896628,629.0903086044,307.450948533225,1183.43194013102,-112.34322824162
1468.39833990898,-14.3023071801654,179.049137825532,42.5132675351979,648.043485996938,32.7668905092767,1622.17216969746,13.2269358335071,157.13332168294,27.833225036806,569.601739342035,71.1624182730137,375.714433376457,-6.92939054057324,607.847314140665,44.2053463228013,417.742270092322,99.2407081371989,601.36563670146,-30.0622618116834,557.230936511541,21.2132000122461,169.925219964058,11.4870855140338,111.655844277269,61.4101528068161,629.447665797511,306.93733849938,1180.15313007058,-111.869431708033
1483.98547465547,-16.2678958422844,180.39888441238,42.3414604755123,649.201095788949,36.214401951126,1633.42088181122,11.6646841476498,156.431486130017,30.799854309357,582.451482826149,68.9346997851072,379.530655592928,-8.17083906473558,617.939294023029,42.3573359045756,426.445378672125,95.0200967221756,609.996754634406,-32.3349302104491,568.396075532141,17.6762652065349,165.645725100919,20.4264954297376,113.371720792045,62.4221171207694,631.823670022509,307.935530862204,1174.49096257963,-107.713178952881
1510.96279249934,-20.6084679566996,182.474227437515,42.1115165805162,657.836635135432,34.3033127462503,1659.41801501082,8.93571622508625,161.563271479678,27.9132765691883,591.235269773695,68.9456318735161,387.133364655599,-10.639503723138,633.983310837826,39.2628663793029,427.64174779722,99.0999108091607,619.188044097538,-34.2449552385057,579.25402216635,17.1890245823255,174.490446515863,13.016837631207,113.813295501573,62.8918155300432,628.852271029468,308.008332783956,1179.70314121362,-108.251679884489
1469.82818782692,-14.3649884108925,180.176867659997,42.1727596512123,641.47915138853,41.0219360515079,1620.13551635872,14.8090885341909,155.292263386797,28.7488160979194,564.971334811854,72.1988602601921,377.61182008052,-8.20496584151437,606.119605911372,45.2616872252436,428.261480523523,96.1285235962887,604.219729233399,-32.0756249733297,561.71518073283,20.4903010600639,174.161814493881,13.282705469389,113.546857602833,60.2414390502577,629.101419063881,308.169685317536,1176.37288456367,-105.58144484693
1477.93558894656,-16.349065339521,180.361141261986,42.186212376234,661.458900187376,29.5414110890845,1629.95869215738,10.9380745349641,155.860274033683,29.3533325585857,578.144645718885,69.7185226773647,380.081690584771,-9.05381168640518,616.126551174774,44.0232979579092,418.474039254769,103.648051065116,605.909893115038,-31.6814998669799,567.054847768328,19.0501726969782,165.480489796149,18.9117335324578,112.955250332951,61.1143004835782,629.586153766227,307.964946125686,1186.46649551024,-106.433226046616
1502.45550229366,-20.9130882404307,181.913858436512,42.1405099989802,659.510013802219,29.5514882380052,1647.90392145324,12.9602357229494,158.182153863317,29.7686118359634,587.943869312056,68.6744865330567,382.501626868603,-9.02644244588132,626.793846173064,43.1854705443843,435.805940944994,88.4692849313026,613.6539494576,-32.5608339056368,579.605227906669,14.9002448403209,171.460193305448,10.6752087638346,114.418165392787,62.2381420654105,632.675365166343,308.035325028483,1189.06370018049,-116.092746099561
1483.99570696626,-19.2448601382973,180.788940894983,42.3730380806109,655.850021785289,28.9509749839423,1626.20329301399,15.2352762071346,156.913562846631,28.153585282534,569.797395968326,70.4230395551659,374.491843214726,-5.52878841819716,610.861028228501,42.3799473099219,419.744611494461,95.2645773111943,599.853538580155,-30.0440250782245,564.973542506737,17.4082038213436,160.624808037675,18.3755153506134,110.59286991369,61.2083594390712,626.930932936458,306.793990645156,1185.70472779049,-120.439268673346
1465.1195964479,-13.431912884534,180.648555360508,41.6770328972405,638.765008980634,42.8302182151736,1618.05516758383,16.192467983089,154.234791098291,29.5137515519376,572.430671426152,70.1721604093067,378.194581968061,-7.913916279146,610.68906255708,44.1016542121047,425.467642549183,93.8382398498339,599.466015902592,-29.1092691969844,561.952671182958,20.0848703767883,167.324457381959,17.2262137770039,111.419519596095,62.7948413491893,629.017159528418,307.15896044127,1186.33332055926,-113.940878545602
1486.46295096613,-16.9022210843587,181.238005282053,41.813512845433,659.419568781641,27.9321139240334,1634.36671404173,13.2309987791962,159.476809177011,27.3935863569958,584.965069830659,68.6965067878808,380.389350109678,-7.38042561830934,623.693413209023,42.5431492454702,425.834593384789,102.60493364299,607.0149028851,-31.0502353072539,572.558254833914,17.5196087768898,172.630319650901,13.9818700890108,113.744753631941,61.2556451829365,632.909546999612,309.059912745799,1174.55670720181,-102.899077211244
1514.42156675937,-22.3033597367838,182.969920575535,42.1067275082926,663.16921224966,32.7409472198555,1647.13390126601,11.5388668873257,159.614115508334,28.5012598827307,580.18059977685,71.6554723295087,382.756875390453,-8.50247938520264,620.579848759833,43.7465320091328,427.360039559117,100.580269647962,604.051303417654,-30.704345145188,571.302822023727,16.8316164077088,170.694829818395,10.2834449921866,112.575471812022,61.5649608806279,630.965636746316,308.216635897651,1179.8333366572,-103.471378188772
1468.02098009291,-13.8776032730276,180.092684901629,41.8612236602431,641.8143583518,36.4341113771187,1628.32717332173,11.1053698461622,156.250546412796,28.8427215413853,568.112827646572,71.4457637822317,377.306313170647,-7.32798362200867,607.106044427653,47.1544140448793,419.424400296021,100.336577359778,596.973244435975,-28.8430641683366,558.391884065622,21.1197170025615,173.404161861957,14.9334591964644,112.193128422981,61.2154018857868,629.183305521329,307.475082610721,1183.77669589689,-110.214175344728
1482.50529511173,-15.6851734696812,180.529645892027,42.1401297915998,658.614597260415,27.7828583024043,1631.67824373076,17.167525773235,158.303378883116,28.5801883486307,573.738193491802,72.2984397386352,378.692102010695,-7.58890628066848,617.809230156394,44.9189676243821,421.465166474106,101.860925181104,605.62636374838,-31.2658442698348,570.592819932414,16.5489596887962,162.87798621717,18.8584425643804,112.821214356893,61.8093134571044,631.308024609197,307.884069236659,1189.93998998223,-113.031924144957
1505.15286692436,-19.3277747614345,182.5763630899,41.5518216341774,655.914914045805,36.6367808665059,1654.444894604,12.3283252646369,162.474636274419,28.4240974999628,584.561898609278,71.2357775016257,381.516291812117,-7.53964784808476,628.920025755549,42.3778812677962,423.161182471928,105.337218330089,608.628831367997,-31.1035327946544,572.766851398285,18.0433146624847,175.722637058526,15.7670046185392,113.019217958859,61.8609681870888,627.962610525431,306.493495859312,1174.64640291525,-103.09478034463
1471.16575219182,-14.6170520467279,179.577612108543,42.1959878750484,658.779218858338,30.2877237757838,1626.84477752811,13.7893811025613,156.362364487669,28.8413187184073,566.908239654644,72.8598157664438,374.580422366601,-5.98815891668993,607.746625956708,46.671739041871,421.031422881007,97.2705645416204,598.182351643906,-28.6051895806749,561.24759025713,18.2579460238424,160.76642319028,21.6229057008657,111.887471493991,61.4645118127745,627.565378017319,308.120417472823,1183.81416518772,-118.528617798985
1480.60632869816,-15.526415674916,179.966589015174,42.3203634975759,663.763974311085,26.484327561843,1630.17251859835,14.9822476747041,156.557799870448,29.4924384937941,569.193652116725,73.7048263684901,378.772898873715,-7.23866894504629,615.870085727247,44.1552872264996,419.805771773006,100.172845544648,602.989116503398,-30.3337233609037,564.502945785217,19.4330645664238,160.918904078651,20.4291817251358,113.219784303581,61.14537983121,628.227380095859,307.795585809951,1169.98419169372,-105.813421630801
1499.79461902321,-16.8407079133806,181.271444312698,42.4116758059505,660.511226717915,35.1299135031357,1651.77569449188,12.1286382081952,160.23476695375,29.0506131340846,582.768633651318,70.4953498540536,382.516162178141,-7.75269069194765,625.795940818985,44.4583416276575,417.799946641349,105.223943754916,611.551167860423,-33.1667085615186,576.535226894009,14.9600605796579,167.59811404366,19.8354698227362,113.058056781727,61.4468484836116,626.433841067616,306.884753078266,1185.51453843505,-114.280690608287
1458.84529018267,-11.0602258743832,178.177320838653,42.5728742187064,642.304047014412,35.7172029598377,1614.34485125184,16.3419847265403,155.907187370165,28.3999657123408,551.855044361777,74.9229884817283,370.248336143965,-3.8492930720861,597.971239485439,45.9427690367616,408.769368692748,100.523042257228,593.20016187612,-29.0092869069411,557.859381755834,19.1446151745237,159.721468603381,21.0735945369139,110.340653828355,61.0272676607773,625.220937100986,305.554167304971,1144.89857287431,-90.8106497819919
1459.92776046035,-10.2850604143236,179.123680722597,42.2381152153254,641.392353272253,35.3145409027569,1616.49178803126,16.8388336166424,157.088913132966,28.1953309547189,561.065078155073,73.9434790475159,373.246008492357,-6.51545520492713,601.454765969067,48.6066165456749,412.795679508579,102.389238969659,594.873730298429,-28.4800583484021,559.306694020306,20.4772557238275,165.369084914066,16.831897858084,110.719873390055,61.2486274338397,626.526349573598,307.0280965779,1169.08919204244,-120.956039935642
1483.39442194116,-15.862483798573,179.309332569542,42.714888472778,645.538914066322,36.9138923590546,1633.1041007156,16.1118506995746,160.568215974621,27.7290913572253,569.665169777319,72.3498986573018,379.148032434474,-7.80247765169785,612.031136681452,47.219089937069,414.913512601767,101.79825216459,598.479781334369,-29.0778886450858,563.569170632422,20.6198520657508,160.299895072522,17.4778267103326,110.620111092741,61.1100821755925,624.650466264851,305.239825230189,1149.80528814175,-95.336397854599
1437.51018512963,-7.7920207050753,175.973653893688,42.686359324232,640.448337188978,34.6315617545013,1594.45495207416,18.5044226262004,151.814625050114,28.9943895822358,541.564807951591,75.0241045802138,369.052191138334,-5.75337333752636,587.550790444079,47.1778214286457,416.688477815446,96.7453800101886,581.649092084746,-25.5571322114939,543.04932537756,23.0125983744881,160.289949413761,18.5026492379838,108.059542442086,61.4464161619896,624.408972811701,305.923734616254,1135.8991245161,-93.1382132592206
1437.24133887642,-3.31817450025603,175.311154728156,43.4646064455104,635.102493666612,33.733144464926,1602.57766670497,18.8586602625039,152.873064926678,29.0379815703304,549.371445783437,76.0632563381476,367.527350196029,-4.83817424225564,590.001779374143,50.0491464752523,403.853141336196,100.161422345033,583.512042066449,-24.7831249109501,545.345357472129,24.8875027453733,159.833258594739,14.816102707776,108.455780557424,61.1383065691167,627.479589448031,306.807693610501,1139.44790613591,-95.3696525647925
1462.68219483589,-11.171725827568,176.864878890312,43.0483335175187,645.398503434742,30.2830319242368,1617.3507371989,18.6115340443763,154.764924127912,30.4712370141018,559.19149490347,74.0143976864818,372.545071522334,-6.64395615173721,603.026009214822,48.1204266928294,410.813650123832,103.743244323972,588.676480704979,-26.2228569669309,552.088910050528,22.681963465194,164.137394848066,16.2071852402416,109.799680665022,62.2197593331292,626.642675136616,305.657961163257,1129.9781420715,-92.3343414334117
1418.75551802334,-1.55129778698856,173.987471044546,43.5559051588656,637.15707376485,28.1294556081011,1582.3406980022,23.0597381943344,150.301016417957,30.1673745130252,539.897092543828,74.882177076366,364.374274342094,-4.74586137093455,580.340653956156,49.1446242665739,411.448173460529,94.8283702854701,577.162395608444,-25.5427062289193,530.789805508856,27.159341254737,157.634514225371,17.3269808918154,106.347028637271,62.1946244077999,625.544689111402,305.942305081422,1132.26284925629,-102.625560682471
1428.93275066566,-3.87525442916131,173.808588012826,44.0402540143842,629.204332345836,37.2017123715964,1592.23587595472,19.988742425473,152.666385329933,29.2715682391851,544.696094875412,74.7769167861057,364.473690434659,-3.91552231528291,584.990403794603,49.6148974370906,400.334994065312,104.128332809366,580.227854359587,-25.4137870666394,539.389601817974,24.8408965940328,160.185291719993,15.0595396877563,106.670323957625,62.0450334227441,627.06563705159,306.335656236653,1131.76213362306,-99.4256502974676
1450.19569579638,-4.85432795044067,175.090085861322,43.6642928118072,632.888566083191,33.4418980509413,1607.51800435479,20.1937098360528,152.111357427785,31.3236423577567,554.116840878811,75.4778534910096,364.760941759637,-2.83887826838317,594.176605546331,50.3372171646781,416.922796755579,96.7266042536455,579.692914604703,-24.2856015984077,544.177300092149,25.1395905897947,163.580223712094,14.0375809309748,106.595646524247,62.0081514941806,624.120109082936,306.434338115925,1150.16402708743,-113.438586948963
1415.27131527877,0.203463221915522,172.22935456835,43.9719326967543,623.830792897111,34.1538756913636,1585.97032151319,18.0896280062979,151.108516645782,28.2504439463936,540.386247626338,74.3130200254311,362.491068261368,-4.34804012731095,575.377370434576,51.0971749156013,398.160732636641,103.141821031615,573.245000650924,-24.8656087900308,532.254608831311,26.068418301392,155.497013466626,15.5013521672556,104.599120593287,62.2112463584646,621.895592892551,305.432076387635,1118.26938624743,-85.8751329147882
1428.44272976011,-1.79508633784548,172.959745648288,44.2940805068245,609.981155703245,47.333565190085,1596.38213975685,21.3424050495885,150.073302330503,30.8091541925889,546.167314739738,76.2020481707079,363.23995036804,-4.53948968590941,582.905119109011,50.4256282983153,405.76094244144,98.7339397414792,578.013927449013,-24.1786856211213,538.351419273222,24.8540831091118,154.674614762315,18.8538479910554,107.180648232431,60.1571440378124,624.542983433302,306.562026549192,1127.31974721486,-98.1529862833072
1451.39297367511,-3.84732234672209,174.343512919629,44.1631727039822,627.058154511335,39.2659435359769,1604.2546415666,20.6691531621088,153.184756707666,29.8902726255682,546.623321911136,75.1340236920585,366.347788726579,-6.02581134596646,583.840316698252,50.1514042085929,399.294134630117,104.496595016658,576.509133897833,-25.3430688599388,538.046861736349,25.2676103304645,160.321009229369,18.9749652099796,105.605074666917,60.8073358179359,620.992978070708,304.3989832206,1109.95523713772,-86.6588485578016
1407.56790234455,-0.117917989284847,171.02345898616,44.3520353954565,611.736321066429,39.9221653406537,1573.76958338215,24.5740739322672,149.473266014267,29.2898774744876,533.097154675262,77.0166588394376,358.206559057921,-3.74293852533803,564.936435779364,52.5688264573944,379.333342367507,113.857369807906,567.378846733495,-22.7631020803873,531.431871934584,26.2252133969874,150.726537777796,19.5265762644007,104.496554123796,61.0277040609052,623.419006968368,305.312849547133,1113.65036885813,-91.1143021672656
1420.98809496018,-0.288418299951949,172.559119386916,44.1068963470985,607.856729558313,39.5354762843044,1588.11210005989,21.1608106411558,149.353798854221,31.5351426938075,543.727816459613,75.3973839470874,361.416998000657,-3.86487671269275,579.884381728579,49.4341262548797,407.175093336347,96.8216298889989,572.326366259532,-22.3544372226782,539.18846387805,25.0109794057221,154.094760886288,19.8843205711555,106.125763467418,59.7612849380242,626.386626642821,307.07824653837,1108.61567471697,-86.1421559698312
1443.55659662176,-2.59322017176196,173.710681458341,44.4528170881218,613.646615256183,46.4761503586281,1605.7254930911,22.0376382792937,152.103518135131,30.2793683111492,552.489875514235,74.014179604884,363.876119019214,-3.50787606806749,583.53214100234,50.8792546105054,405.797233280399,96.7662519157364,574.709711737636,-23.7135191241782,539.382940826572,25.902069875684,155.493063362564,16.1377946222701,105.99208535306,60.8765165673857,624.015891566474,306.44429924327,1130.18704945502,-100.240649604542
1399.416253306,4.15388190160937,170.908524130407,44.7035547921181,603.571215485412,46.2404562668496,1569.64267537803,24.3923892979185,146.499977779044,30.3860097941446,532.081012826443,75.1427927103449,357.453985980071,-3.75084270042529,563.592514311641,50.9269913815643,391.674168522597,107.228900656695,564.406668770797,-21.1103646554285,530.295629914913,26.318989501259,159.306142913187,15.7344653657352,102.701860116057,61.5805489300551,625.425527521338,306.36825284004,1105.67381948308,-91.5307268696568
1415.20166445147,0.973828914546844,172.483492155623,44.2499198047887,617.8728042783,38.7795290958402,1581.22993606855,22.156981937051,150.171457175088,28.7706915551253,540.204171039493,73.9123979299141,358.421673300665,-2.80075418419997,573.047561913348,50.3605877991385,397.290452847164,105.812224851533,570.574697301614,-22.6634146159408,541.215509007058,24.0889794501783,161.120869402859,15.0429151104114,104.847934398091,62.0948034298502,628.516869442519,307.185537755465,1112.84281187305,-92.4681111204131
1435.15334189862,-0.625272904868275,174.292791759638,44.4188442671604,626.259492147298,44.6074475872607,1604.95312441309,19.2498753441581,152.133775835782,30.4983737789933,556.642335536239,73.2036410754797,365.592042446026,-3.96243487405193,590.639901181728,46.2967385429209,405.643450061262,103.059376352595,578.304076256079,-24.1671456405042,548.489454336104,23.3847750439305,155.789473367064,20.3615173269197,105.774623494157,62.0797539697813,627.800044690771,307.322667875557,1123.74247477382,-103.215335138026
1402.94112456524,4.25500959832527,171.585920464599,44.7878967073809,609.900354578968,44.3791835102587,1571.85696850621,23.341603741964,145.001545086349,31.1911726545241,534.424242722539,74.1383961035193,356.98871753746,-3.2601958799203,566.523904874933,48.0168586831918,397.989861069462,103.670303726506,568.378896386192,-21.9809343026527,533.869084397545,26.4165957098532,153.894842683316,19.2947520544388,105.193949823894,61.2653472686452,626.624246363624,307.180671810854,1111.88856739718,-89.878572308956
1413.41475241759,3.47100809599068,172.174961284816,45.1657004882755,611.735648142766,43.7828684259738,1582.24649593703,21.1060157154593,149.237232726706,30.6159063324416,544.247847449218,72.6889960855807,362.214549052526,-4.21223836450079,575.172509112673,48.0404094084913,395.384663886748,104.562443044669,572.477305940603,-21.8011828111071,541.761024401256,23.7580110115802,150.577880885918,22.2879327469181,108.414206711179,60.9519372042297,629.178928964338,307.411591115974,1130.72121598768,-98.0047192812744
1439.66936600098,-4.14786876827935,174.83525668634,44.5649843830847,628.786246607937,41.4045142176831,1600.55442286585,20.9761812638203,151.572808537763,30.3200020763269,555.502422720937,72.9277043540334,365.634983602064,-4.31343934376518,590.255260847302,45.7543001256101,398.05046640731,110.116081219519,583.66128337757,-25.6857729926326,552.825277889181,21.9484770136121,156.978840174157,18.8250103099966,107.545400549838,61.6061542430611,626.508402505484,307.922804258412,1129.68317949585,-91.6945582259616
1401.45003131623,2.72048700185453,172.381579366394,44.6364805909491,631.175396536669,34.3159832867427,1568.45401625843,25.0131615593316,148.250360507047,30.0172822670163,532.671753986111,75.5360507034373,360.25647488365,-4.11155971204372,567.425703960049,46.8366681947934,399.196590866419,102.751272809278,569.08893283146,-21.7105503686759,539.311614383291,24.1572421618065,156.265198863668,17.8719566132948,105.107365455471,62.262428208352,625.942093202848,305.795756602673,1131.80167150423,-102.156702682896
1411.15269602874,4.30397682428519,173.324044775718,44.6288141328357,627.787308115396,36.2830043447034,1579.06879212826,21.9614418518555,148.555482320252,30.9656056077443,546.925443467672,72.7125948663231,360.179814387124,-2.35250242630719,579.359523351837,45.1473630208775,403.017901003537,99.7645707092981,575.726306241011,-23.5372286871346,545.476259582182,23.2331585618916,164.906032495103,15.7812776458879,107.912482759039,60.971008297668,628.027854270348,307.046713077317,1143.52159491253,-100.624573733528
1438.62435682073,-1.32340951449091,175.180850168053,44.4475560421358,633.630566224253,39.8707316158898,1600.9919825491,21.1336030375809,152.973067572537,29.7572403308684,559.062146273489,71.7221939667444,367.038317953324,-3.63207674509663,593.470191557091,44.4187818657528,418.707099919672,95.5556313634779,585.683426864991,-25.559196997475,556.803592363604,23.0604116277754,166.000174196433,14.4048097602229,108.910426289141,61.8515357359346,627.845300258707,307.441782429815,1144.60816660707,-98.5197857337495
1406.50482526506,0.780294116599378,173.428496140291,44.0391004769745,619.440032211836,45.9997476597854,1568.1706613546,22.0578811690957,146.613714929604,30.4609547122544,532.562972516164,74.8760370103604,362.473191685185,-3.85804370310049,567.424128550017,46.0911944804856,403.958041783268,101.667027335862,568.020061490991,-23.2279210623554,538.372501002607,23.9862115329376,157.336213173896,16.5392437219916,106.52808852618,61.2738498204615,626.196642280259,307.432530789791,1118.14898739672,-85.5745428453838
1405.70317192499,4.1047272424157,173.595848383968,44.4262589908283,619.548355265687,46.1355122293236,1571.24730294815,23.5049744396239,148.538057962057,29.9423502400242,540.459053107288,72.4254190317868,363.419035414154,-3.56562215091539,574.91925174871,46.8874357253572,399.660024922085,104.488901439976,574.729286348374,-23.9739628881471,544.35551034135,23.4562460333294,161.34446280872,15.4195613880897,105.349821775961,62.5059492227987,626.756742862765,307.00258956001,1131.98004078109,-89.0871020098634
1427.39441771431,2.45162132741096,175.478104609101,44.2220164803098,642.374874058858,32.9766729739247,1595.12562737888,20.9455140736434,150.384777236713,31.8582727982095,549.863083797633,74.9288788229238,369.583426942352,-4.94333254729811,590.26094936663,45.5743256914381,409.045764146697,105.526602100062,580.385858078739,-23.2678148082375,555.759178481728,21.3738160743751,155.543961902961,19.7625769804679,108.890538728677,62.3528581999572,631.723822562255,307.907177185846,1179.65729329853,-116.013578189546
1424.52069617069,-0.285029231893532,174.987909972211,44.0484268869762,625.884679220402,44.5906117891083,1580.56455737574,23.6169422356548,148.448366709642,30.4868493121278,539.026966835413,73.8090963117298,364.360451090354,-4.28285446870124,573.181741013428,46.7705375303452,398.987506058169,112.458842453986,574.440866296585,-23.6651678941012,545.22637409115,22.3192818724582,161.925939218834,18.6643141862071,106.886878000033,62.3275891371016,626.501062014662,306.444524748885,1156.52121051295,-105.893570726325
1404.51011409965,2.98694557715972,173.883674697078,44.1322884448811,619.937103995706,43.1085326664633,1570.23538767036,24.0964923375253,144.963740798379,31.8580792390384,532.734457568258,75.4173954993514,364.145330737048,-4.35562851169242,571.461452719108,47.1486390165313,406.903417907941,104.181169062987,571.111133981868,-22.8047439725799,546.137051297935,22.8199063879923,160.101913360244,16.5545822270824,107.227311415034,62.0800254170051,626.992820230916,306.406313522244,1176.17058744486,-112.963834956073
1421.27436266765,3.19653872160087,174.347208394884,44.2191567679454,627.45310807546,45.6700051079546,1586.46768356212,22.4910906418777,149.55754519064,30.6122181259313,544.050747434906,76.1911558501198,365.981527636029,-2.65970606232435,588.83257060192,44.4101167257667,414.211895777329,101.954362455487,580.022505804329,-23.9364608037513,555.233112382866,20.0474072688275,164.964111172312,19.1137801912587,108.141062924028,62.4905868506962,627.978267986823,306.935058559851,1170.95409219292,-105.670996571389
1448.98244026645,-0.0238278483631399,176.359468780037,44.230254382412,635.337049028273,42.4557637179063,1599.31520118572,23.4131366440972,150.905584473879,29.4240488052635,549.744462349157,75.9512137101957,370.373420585979,-4.49172831935287,590.985111619754,44.9385113285129,415.354212805411,100.608912313972,578.606931046277,-23.7851692952298,552.853760770889,21.804434388111,162.085557137474,18.7095002327855,107.450840373164,61.9889401454571,624.262580494813,305.943586886443,1178.49536044247,-119.699704583368
1411.45769215889,4.23726804434045,173.89195550053,44.0848547418864,618.368360363318,43.7459810241202,1572.6939786309,24.7847871515327,148.926264683854,29.2396061557548,539.311938117286,74.786823891005,365.278037122921,-3.38557590802148,579.275412248702,44.575395670511,404.562383631715,104.504839356276,574.438761845906,-22.9803652209611,544.870239486758,24.2288737478498,164.858677160838,19.3778807736902,109.224563891029,60.6741488100645,624.875374293227,305.319812849487,1164.10190014584,-105.577844075599
1430.77327707832,0.645252415018972,174.799392902387,44.2712528828982,635.19962301336,38.2930607048267,1591.14042627838,22.1034531674547,148.509275778743,31.9583911832176,550.047468803848,75.0559370103005,369.905229550629,-4.76398523454463,588.612465206187,46.3136124388439,411.871112316321,100.150391264684,580.210848439934,-23.8253907556198,553.693184399123,22.2337807215969,162.272237994956,19.4781806614097,110.175507199867,61.5431395147327,625.702199135054,306.915277829375,1173.95017085507,-101.756045153001
1456.72236560403,-2.18502079282659,176.367260946764,44.0275494686057,635.952091074335,41.1365960378754,1609.24724007671,22.1206433424985,152.965612889267,30.5724792352113,560.888896561831,76.2366252218445,375.605487015441,-5.90126686971258,599.336865970551,46.1369612193855,411.360732095939,108.485676041073,592.848529179275,-25.5765928822911,566.58010564307,19.0038699202375,174.184867032828,15.4713733939053,110.554948369449,63.0189815303353,627.482784044557,305.79657153331,1175.32446869666,-101.162853898397
1423.37450022457,2.41575714435304,174.750532248012,43.9359743231862,643.719094818011,39.045146760265,1580.96672011084,23.8230053993608,146.687907741423,32.3775785857264,536.905727748108,76.578893385511,367.236261768099,-4.18902336460955,573.365595400828,48.512813461532,401.480716176701,105.090480168923,574.219265685858,-21.1551140463276,543.684563343624,23.7554503746155,161.238384211333,19.2875551324467,106.186513931643,62.4744314357861,624.558316415442,305.638582921423,1167.99820894982,-106.900077402169
1424.80905417319,1.9642237723041,174.486016594405,44.2318601808056,637.328424278614,37.4166318346019,1581.95171088063,20.826966413718,148.360839645012,31.3474060751062,542.779302945792,77.563165550775,368.705857604424,-3.5680672304766,579.488459642022,49.1459495504407,414.021228733989,98.5505865691018,580.675729330243,-24.1969540688875,548.625749683536,22.8713672182639,168.055138204112,15.6000164476963,108.000862281819,62.5509505502105,625.036658559259,306.159947238007,1178.34333774351,-108.745652942523
1447.75084976925,-0.705478891247445,176.12975582817,44.3198904248749,653.05767461511,27.3146805084779,1599.01950547615,22.2832430575684,154.161085936292,30.5225361589694,554.430068086776,79.2324084961236,372.622868450619,-4.88366927063895,591.34742272578,49.4625398176428,422.699243883024,99.3153249696914,588.685026254268,-24.8079654357367,557.885049408065,22.2660138159374,171.431684308129,14.2938767587551,110.778426577371,62.6545364422437,628.233224573099,307.162704767608,1167.30613570425,-104.46549739757
1482.05575075364,-7.61667582422861,178.599066808834,43.7297344777107,659.165096830953,34.2115833406855,1621.67947754952,16.5967854926611,154.557094154755,30.8908954234204,558.36780613924,75.946239311711,378.988759545627,-7.22900536459796,596.19086316308,46.9588986948409,410.979684252046,101.27225816558,588.535046076976,-25.9885942864812,555.724332345202,23.1507263375167,160.767502549437,24.1671815607346,111.046122396081,60.8188555577598,624.721193236343,305.577689251363,1191.90637268407,-115.158399036753
1429.24754343928,1.1546096947726,175.94095514358,43.560553975804,645.41100143658,35.7882875103602,1583.1996654502,21.2236053129929,150.769193342652,29.3432732538349,539.645666368075,77.9333274198275,369.810644346029,-5.05383663095807,577.470960074628,49.1321716392302,411.515973194834,104.889105759569,582.061762553426,-25.0910300585874,545.95382006661,23.230729052201,162.027425705055,15.0025188185157,108.086751464384,61.8439324946621,628.1254374676,306.348895126994,1175.88551481231,-109.562985556599
1446.60691652653,-1.07512474743201,177.073575818053,43.7966219739444,656.516095836637,28.55624912168,1594.8851007033,22.9702276715449,150.493302870087,31.8150586930293,550.875209194904,77.6216548214994,371.804651144149,-4.37405042015283,589.92086537211,48.0798271756959,412.005072281687,107.464294726277,591.896934484254,-26.8892500720277,555.464809671136,22.5767948222985,172.522634871335,13.2007969981558,109.543968144582,63.2681211397824,629.712597296523,306.852315728499,1169.31904022213,-99.8201855887594
1471.34206826208,-5.86258568199295,178.466382100682,44.2215927688668,664.469560126578,28.1404894997918,1620.00073056538,21.3044582101551,154.74211913261,29.9197399891063,561.182019507196,77.4143171632792,378.181154277854,-5.56129711504246,600.113810401209,48.908895748125,424.1639108315,100.563980449245,602.287670151757,-28.1995382533546,565.914891036336,21.9170631220692,169.047064145012,17.3575060479844,112.426154286253,61.9589948490403,634.230602096902,308.150650777364,1184.98160487566,-106.915597782578
1453.98318930723,-3.96886080104755,178.18710650201,43.6847920620503,659.708366575712,27.5651967183828,1606.47167604888,19.4227095003294,151.321611016644,30.4147552550886,544.198206749526,79.398272593385,371.910206178103,-4.50755954671474,579.097703769032,50.6562534733724,416.34254751441,103.744288549976,587.838879536626,-25.4037567877267,552.709570739142,23.3175350793531,163.609940442495,17.4902214556088,112.555580503863,60.8811912148613,630.166804056466,307.223907613643,1189.8029068198,-113.333347324618
1451.40281748396,-4.63601437831552,178.248131399833,43.5730083732226,644.973778960204,38.8288828997331,1603.87023249518,21.4891553638302,150.548922498081,30.7560404785942,545.721060053387,78.1094830442556,376.129616241469,-7.08803891641874,586.062164659594,49.9744622655685,413.876227810459,108.148258482513,593.398870740797,-27.0080763657832,557.602594122577,21.9484587380338,167.155469699965,14.1622891119313,111.60411703145,62.4482675940598,631.49774595445,307.563201495938,1187.0538640391,-101.266917595842
1473.82889310145,-7.34381364367277,180.517774770796,43.2603333461979,664.058332615814,33.8343781819158,1620.7939235088,21.2856677010333,156.181570724837,29.3515703235485,558.644199318299,78.3374043982256,378.235600127607,-6.32675497109936,596.765071224445,51.0843309370115,417.780057659495,107.97395355839,602.879451868918,-28.5177626324815,565.404277615125,20.8265920323977,168.369772864813,14.6607027270153,112.669158155219,63.1466843073164,632.952039958911,308.636721132361,1190.47227556432,-109.235453868152
1492.90872660372,-12.3087726759605,181.59494847068,43.0725791019851,658.387453920185,36.4267148993735,1627.60035237515,19.3199379059498,152.351843930809,31.4126029993387,554.314991563225,76.3565606931928,378.460645117861,-5.59180352349228,590.834591392484,50.1873155917691,413.193765203935,107.640977808844,598.96588819436,-30.1362789775378,561.619795395355,20.1641740506027,162.730485023897,16.4146988517975,112.646376754359,62.5457513615636,630.119013867624,305.517064943871,1192.10393779046,-110.15702098971
1467.43031732699,-7.07079624759203,180.712441837744,43.168350803359,653.834161035714,37.8820506348443,1612.78578099592,21.4620593667202,152.583928695939,30.5128945649147,553.181749949522,76.2550118523994,377.452270091208,-6.37912448733959,592.142978040049,48.6112373379724,409.123492528942,109.320045757785,595.96629255193,-27.0279796944771,559.751954869013,22.6734879373118,165.782101327588,15.8646438323194,110.138859146425,63.2762283031132,630.366210976755,306.02347248389,1204.53838018163,-117.478687083264
1484.69120608321,-10.0810357317095,181.632537018512,42.8254862227327,665.931072908329,34.4545543434009,1635.36894799321,15.9453964991664,156.988006915955,30.2699241243604,565.219670925306,76.6463738184239,379.149984038141,-7.25834631933246,603.070907592637,49.1596404947075,416.991330894631,107.584104266193,604.743387115143,-28.7201918673013,566.723870287887,21.8821825817671,175.319161226416,10.6347362324758,112.508346457326,63.5484062592898,629.96861766588,307.212331866094,1217.49312236365,-124.418104541744
1508.28972099106,-13.7761399751768,183.286224199382,43.1442443412594,663.932100624627,35.7030497076017,1646.48119961372,15.7956826270549,156.265254035267,30.8021589333635,565.426726411595,76.610586628225,383.880877669386,-8.03552135755035,606.761287391403,46.0057269470049,418.888826468449,112.20823655154,604.742423258617,-31.7056144865122,565.945939324935,20.512727935977,175.577801076066,13.6838946050397,111.133160969575,62.1017461797556,628.253694411409,305.720099002228,1191.73144120602,-103.006778175335
1462.86663588345,-9.40565740963344,181.336538063925,42.631369509366,662.518174903447,33.4067718640065,1617.89006631889,17.0046534561677,153.259906840826,30.1471454632013,555.908229052197,76.4894681711114,377.749798951921,-7.13100270162916,592.256274429824,49.2907591318377,421.154579336308,104.253546496798,596.343430455101,-28.0541536604046,560.864660077504,19.9721877298741,169.248456485912,17.4093617977542,110.985521418158,61.4895975694497,626.477080310533,304.682102876557,1184.14769588027,-102.958162826519
1475.39525405675,-10.0732412275559,182.00442843416,43.0794833326685,662.946321817475,35.1443673388285,1629.15506763564,14.8074236308556,155.97880065393,29.5017768579745,566.563949280186,77.0262277040547,380.641704081518,-6.25609546438485,603.273905655468,46.8551838803847,427.043385096216,101.89804737277,605.073579134769,-30.1675215973702,560.855015214157,23.4404278349751,164.521869810421,21.2695047521558,112.867156767812,62.8327528739008,627.826785756257,306.240831592047,1197.12025036641,-107.437064675645
1496.389077248,-12.670677388572,183.650681024508,42.8201019152361,672.067017402988,29.1310892573151,1650.07359401748,13.4243873397658,159.218464154491,29.2740885489079,579.126339094911,73.6676723198062,385.164789378865,-7.90329998144289,608.539289246835,48.4192914807179,435.941539541277,94.8763815906422,606.532418429925,-30.484254397254,569.839892875534,21.3857836083813,168.928834760299,16.6193247374611,112.481339389043,62.1689948503423,623.566118365119,305.666147794692,1191.78910191857,-113.117631297417
1454.48997080801,-7.77878409292194,180.98341563319,42.3407664497638,667.278354265316,30.9312160897822,1605.59719955272,21.9057848624311,151.981970987464,30.7059846531732,552.751301163134,77.1685481823897,377.188987161072,-6.05209338558365,587.979990039114,50.6266154468276,418.8768437527,104.556242685516,591.95349128289,-26.4262289053381,553.602471021348,22.951075467693,162.082154895192,20.1516336262632,111.583815072131,61.4735001599564,625.442138967905,305.176798743572,1197.3317181236,-109.740991154658
