145.888234173933,3.47728165580214,673.609740552441,52.3320345385992,521.846622138744,11.52335737596,308.568900702012,-6.97848926045736,427.849090515262,47.205852105971,699.181131561571,79.3384992068994,1084.83139745249,123.515911074734,206.871125999711,8.6450910271921,540.936286464203,116.704244829152,391.766008083862,2.61366985910259,1333.62264323973,74.6236347104038,79.9642969009761,5.6366697152621,38.7413631193254,4.58018746703147,274.637848370885,-49.5602212962975,388.83748088501,33.8252384559271
147.314017918502,2.94173725170913,676.796260215922,54.0303966621838,531.489428093419,6.6787771456622,306.647105292085,-6.82692126715372,425.475769876997,46.96265501263,692.77285154872,78.3355603258913,1095.51890551074,108.802759414886,201.886969661279,8.32672524902558,526.930629364017,120.07014464572,386.204362577526,2.6502185006747,1280.53711245339,79.1290566032953,81.4827419850421,4.81868880870816,35.0839817252785,3.58141666639347,260.065732185836,-44.7799678854214,379.872942933694,33.9490996650013
145.124011683564,3.6577050208194,675.960546770229,57.6438017298502,523.073673116738,6.11521024363886,305.168315122769,-6.25470872198935,435.109163641565,40.2232917859336,695.505012681904,78.8338310224888,1093.85478748721,107.091777789774,202.824928708803,8.68804423154137,540.683309869402,115.669543004841,389.074747628363,2.9284618776246,1305.6137151112,78.1054588244117,77.1153603435883,8.47040494443343,37.8595409865612,0.348010975280594,276.758006789646,-54.4656104168768,386.837871502573,33.8816575200974
147.586351097701,3.41831737544198,685.671008366025,56.5782125409946,531.570936961548,8.83130589824667,310.907745019938,-7.18248107659512,445.933720506115,43.9013574118087,709.994934949217,79.0825860108243,1123.50416560525,106.91075017969,210.634398385223,8.28123653497878,550.887278001571,120.220803324283,397.30622236015,2.75494669416414,1345.60297425818,74.4183631864733,86.5174544208177,4.49046583852514,42.7708880894435,1.50607303401394,264.198678702003,-40.168822223991,391.955871739527,36.5142949050197
144.645683416876,3.38502893109269,661.316023635225,59.6268684872174,522.193034190878,8.24216273940853,303.898575599863,-6.71240426828885,422.205851862008,46.8168822530917,691.233390869367,78.4872591681536,1092.85109957289,113.241430619549,199.875094700204,8.78107731190454,517.619605091512,128.042709694485,386.427969854829,2.73351101068937,1290.80405966713,69.1214588933722,81.2358389174374,6.75981677864285,42.7442619445454,-1.78596276503575,259.677152953372,-42.7726182991597,382.995241844108,34.8527912617883
145.101129703507,3.30942739228143,668.557353949326,58.1853378085631,519.279688052098,14.8946131069843,304.964762484484,-6.64439423918211,437.05517621582,38.3003449154067,696.427956059966,78.3952578114286,1094.8196726517,114.337535883387,202.346886130882,9.33675471474178,554.967331961209,106.664468065629,389.425821978889,3.50694074168045,1314.50352767806,76.736462895637,77.7387314676696,7.42628445892092,48.222870446916,-3.10493638161229,264.97156749027,-44.633356887185,387.480935429411,33.5848222801149
147.589418203455,3.41541945964407,684.401213509154,59.7320758119166,536.218812332263,5.27964614222904,311.715332648757,-7.56522625384065,451.397047564586,41.3678485311994,711.938788855218,79.7750513146813,1127.51443694717,115.218355483792,211.535292044405,8.82421407037824,547.076448562439,127.150014695858,397.642736742704,2.30280319925229,1367.65734415758,69.8004448291212,90.0798400236005,1.31955720952811,41.4619785984783,0.828214256168183,266.72063425444,-45.747938763309,396.744823794036,36.0474504297312
144.445388719377,3.24480605139459,664.028358514851,60.7720547029257,533.613202836714,2.91426409941017,302.396197694996,-5.93494208930051,430.548541848371,43.6855350880257,691.568705514116,80.5365266159124,1093.1810493077,111.118003455431,200.726095412277,9.64272731863018,526.536688967949,128.245155055528,388.479971500009,2.19986057159994,1306.73551483685,72.4327056128531,79.6049762412529,9.0767790551437,41.0990889256378,-0.252394030546002,261.961117630756,-42.9702184497974,386.717817377032,33.3103048224661
144.423325478561,3.58209576318206,657.173463627236,72.5530126314091,533.703013890744,-0.195506937645,304.355199762586,-6.45066893496896,435.934373994805,43.143597307855,698.992918179943,78.3646806333622,1093.50588525141,123.171216004973,205.33159154039,7.99833787743779,538.923278130945,119.460583488878,392.482623190645,2.02657309350933,1323.51953388067,71.9900231329907,86.393364696052,3.44967760080153,38.5466125109817,0.67319885830802,264.74326887144,-41.7061020895379,390.482521802911,33.7554121498941
147.619062600072,3.10813483850477,693.970216832799,56.0612943237004,533.785986089962,5.29386230243716,311.184303256834,-7.34732895637182,454.173170556015,42.7515574449033,718.326212749918,77.9637121729546,1132.16819073426,112.4970067336,213.265858600073,8.73688155772778,554.272092954479,122.506756226773,400.459517459311,2.38664861213636,1378.5935270576,64.21201673496,95.859892897115,0.324991750097938,42.5065406152913,0.331242424988349,262.552611842171,-45.2900522556144,401.129890182429,33.7835126447482
143.440335632992,3.32279690248418,688.737529074284,48.0750539336616,521.625564053314,14.8720772632924,303.216197985297,-6.61091016170034,436.170914330433,39.1602399984754,694.556520411796,79.9698005333766,1101.13862020325,109.184473622069,203.236550271974,8.89144375071596,543.690047856987,117.0456941178,390.224652430148,3.30453415993718,1305.69241760073,79.0351763282276,78.2716635286833,5.87010953526653,37.6669830645421,-0.662440892746751,257.250355464147,-39.7832769845085,388.733058025807,33.5770888631124
144.798757793002,3.2493933833045,668.575945614399,64.4665610863592,528.791738949045,8.49866624681901,305.356766675158,-6.50898074713825,434.46734090182,47.4875667047262,703.932614892224,80.5338790625541,1110.17454758654,112.646411015365,207.363896479561,8.45692842439075,543.059009780655,121.228927415988,392.898954846208,2.93188148538641,1326.61362695313,81.3056935132799,83.2276772412784,9.28920157158132,42.3583376001624,0.457610850799636,265.585618907062,-43.2637900577343,393.491021950527,32.1939358821355
147.886342683326,3.02850424027112,683.012038506098,66.7272043821701,535.830202228919,5.91450860727791,312.581012058242,-7.62038678692173,455.179166125468,36.9359220758833,720.248251004394,80.6564432723778,1150.13353695428,111.036902971514,218.383508812182,6.57245615302044,559.447519056041,127.50350508198,401.782235289795,2.28706719764837,1374.10797042592,78.4884032361448,84.4939448283766,6.55796051019502,37.5299741703919,3.67487109668342,273.711319434388,-53.3390462610117,401.471739868274,32.0316645509609
143.03761470766,3.57782792355234,672.582477844547,56.6094359958337,534.755928244204,5.54774096428999,303.576958100101,-6.55068201094178,442.864021856209,41.7802419298434,698.013158422266,81.8500594465616,1111.94144527346,118.79119870126,205.749122595888,8.40000067118419,541.397355959455,122.869921097424,393.998606979075,2.02483971364871,1305.68923102978,88.5123144125947,84.6884295822958,4.85887992062816,37.2897998826953,2.14858249516789,267.842404838999,-45.1365230561475,392.439983422521,33.4281108007277
144.880608285349,3.32632860102496,682.038519543426,48.2977788732715,529.493202309295,10.3506465377061,306.521204215733,-7.00744130300915,435.108532630971,50.3083452938182,709.3990214756,80.513279117587,1107.38525043881,116.21644247686,209.56500738099,8.84183180303597,541.680814529015,129.397805884398,397.896446116164,0.922234938506165,1336.74699783257,88.9806044043287,82.4815251698808,2.80968355331343,41.3400874023319,-2.68806731201282,260.85720822311,-41.5634889170552,399.02306586375,32.0037079433719
148.678353249688,2.893557849413,718.541764764518,49.9658311273314,549.229440992435,1.77404085443335,314.04020595397,-8.3113550247514,455.130899086938,44.1920921373002,727.444591303365,78.3895757167784,1146.7765569915,117.459952085927,220.206048617473,7.12245569190458,566.674759995125,120.895356859574,399.426761338261,1.78309866531438,1354.78806792508,79.373410679869,83.8949738028316,8.96692215494966,44.8597456108377,2.9530627927724,260.317207089831,-42.5495083312523,392.014663591451,33.5227150322721
142.683760163502,3.60182155887561,660.829799360353,66.6853131420661,531.891638850373,4.02916480250661,302.4433243372,-6.27118435909214,446.574402147205,32.1178845173529,700.346817803166,81.2159649651886,1104.58813241889,118.310792949827,206.072130307785,8.63072820556433,546.602918072839,120.038085795622,391.09900191268,2.17506015114889,1321.68592937895,71.3700056350794,89.0068598808999,1.05764070023951,47.8140714534339,-4.38326564796218,259.006191129277,-39.4375697225187,389.432869211402,34.9701231001014
143.742145616314,3.74378889327176,696.350129529765,49.9728783323039,535.731761017648,7.8474802044913,306.322539696867,-7.05162206905745,451.620963147587,45.7439797276236,707.997541591898,81.3590639093056,1126.26817247577,118.871503401151,210.798006906625,9.21239718026525,550.709623245754,122.277829131787,397.644433062131,1.49634746399928,1351.6540505771,77.6199555223648,81.2765982591566,6.13225476294434,42.802907627843,-1.06732572602068,266.965224773715,-48.1352824184139,397.576229306565,33.3534766857025
147.375847329785,3.1040908448319,706.061420915707,52.8743994603379,555.007039167709,-2.10734249770153,309.443627474596,-7.2641310406168,453.08382394373,38.2310603524184,716.361679282062,80.5146630805111,1145.40308902623,109.840033105413,215.466125371871,7.61563772549966,562.570535337892,111.902374972571,392.290525775713,2.63935005792815,1329.47771122257,80.8054824827052,72.5774671474193,13.2633623094416,43.2630801881782,-5.55038946698305,272.635945258449,-48.2617748943149,387.689897346507,33.4606006050231
142.616799226289,3.53622328308569,682.066278271277,59.1022566217707,531.60331760294,6.56467708190869,301.94644495416,-5.98388387595652,444.820940450766,41.0528710005495,704.688138652576,78.3667209791345,1121.35547140458,107.920450445452,207.309577330614,9.14602043015132,547.065151054795,115.944614027867,393.795251196507,1.59565553136304,1314.87646589999,81.2300995534162,84.2210714209226,1.44096626311825,54.3754809243117,-8.51394512243526,264.737197364479,-46.1198522661165,389.972516610414,33.7605648695239
143.577155846074,3.64726748992977,678.278979285764,67.359297565921,532.084397322046,11.6004752592924,306.013742880703,-6.75734211957031,449.830399409703,42.3234007105104,712.384149509645,79.5069063066355,1139.66404185799,110.986715340279,213.766324057476,7.94882848148559,554.483310032034,122.354375558809,398.214825019477,1.03260509047123,1364.71359638646,74.31107434805,82.7524825671433,8.38443245154856,47.9068212085434,-2.0470947678201,259.561617792201,-41.1512326152192,398.168031998207,35.4905277401986
144.291838605151,3.49955600651245,708.981715628303,45.8516662028686,546.592717342955,4.08346208983563,303.130813412398,-6.39308726854137,447.701800807047,44.3359754822665,700.195336161623,81.2620515933574,1110.31207204859,118.409236479712,206.353981383072,8.90882540275459,541.566757588247,121.805723523204,389.265622592669,2.98117776825874,1302.6481486206,83.0763510157505,79.5942889474927,6.96189822430265,39.3134217707073,0.990136377131988,254.297925487121,-40.7379704028185,386.329232904056,35.2059827461371
141.486811975973,3.8197820786072,682.356165516846,56.8538837374471,533.829281022908,6.98242267931846,300.445547524014,-5.75466130178621,439.359746183473,44.3927808660568,699.563723217924,82.9333117934856,1119.6963193385,112.955888045136,207.203669429181,8.53893786743338,541.313760617782,130.213368842771,390.573909198489,2.8077456460791,1320.68974784592,83.9528742506928,83.7905419695147,6.86080823744812,38.9228706695709,-0.577229122815848,264.088288838689,-44.270614775506,391.762363506157,34.9440756162673
142.893616949483,3.78907323237961,692.044987530285,57.0887633042944,532.411120503679,10.0486795220647,305.425153425258,-6.70555757514534,445.752231835075,44.5696974116552,712.856479549848,80.3275749400631,1125.75110617293,113.710507887199,213.73872183088,8.47381540383622,553.710397817704,118.545102170363,399.224979669323,1.18567478160484,1366.00348870418,74.2036349645507,84.3237917616153,8.4706249140318,39.4604156765183,0.402007447384134,274.579696283008,-45.3283857218514,398.967834111822,35.6419333392913
141.072828229577,3.92352511496579,697.464445036076,48.7186045467302,535.002490933852,5.16835631507738,298.173397745617,-5.39567568700998,436.38264844979,44.9788778435031,694.417023867795,81.1039860512722,1098.80977579463,119.155304743669,204.62247714674,9.05903001313314,525.84325539035,129.792865188727,388.177681986295,2.53167746788361,1294.16968709233,85.440572344985,76.855325090961,7.72666356902414,42.9367682190852,-2.82772872136592,275.991500525684,-49.4068818325895,385.509775933611,35.1001322739843
139.898516664115,4.12510175510294,684.33102968744,52.1925324175586,527.17472932492,13.3189892046742,297.504109191849,-5.13133192673603,447.974578728851,36.9706345851085,697.067608650186,81.0644194214613,1110.64614004485,111.964539559635,205.824216377547,9.19633600197486,543.516388710959,120.01062975007,389.592330726848,2.8465181485702,1315.06587674856,79.9736003175464,88.2900435050645,3.93679131929208,41.8612897637598,-5.39452619306968,260.843124510974,-42.4113959398057,391.581840551036,34.8513449105889
141.874300160451,4.10725700376925,687.959088722461,67.9189426638547,541.678476015401,8.3088260259866,303.457750687753,-6.06941954091773,450.451745113,46.0990251611034,713.200618071096,80.2265456466057,1134.35004940314,114.049521717532,214.177975393357,8.12747032041059,546.149815803913,118.85750790771,398.84930289966,0.435164594505524,1362.92317185402,74.2769967909697,83.3982261116697,6.61826571717942,42.8195625690884,0.235974419089139,273.086186435276,-49.3223032300096,401.124603273716,33.8414980160291
138.595002715864,4.39120711021378,684.577987110449,48.6705615602756,530.029730877408,9.10407319953195,295.483871286856,-4.71468703414001,429.230773811077,46.2414593135487,692.159057085976,79.8969779565396,1085.56785940593,122.547869311678,202.370243100758,9.56649271153091,535.15659049395,125.728781840524,386.433053275692,2.26954730821307,1293.07514139394,85.7737267711926,74.4050025001339,12.7805494548691,38.9998688996747,-0.968707227550992,267.125691110663,-43.7103527620841,387.653572740187,34.8046377881022
138.441470146866,4.47022154476413,678.769967423161,57.7691663900507,530.279447676965,6.745991814368,295.809311560326,-5.04778721847942,440.659226169227,41.4164228401028,694.282542088754,82.176338166805,1098.61900238306,123.200621315159,205.06082739204,9.04407708615994,532.963260882694,127.683439932215,388.439110766442,2.8016430750461,1324.23753235989,71.8547616944187,82.9933355750834,4.44785214475949,33.8495941270726,6.07641770688418,269.839371667734,-48.133877440671,389.606037134139,36.3316053427247
140.603389375813,4.36657029531591,697.942945912361,55.8416194267288,539.909725408978,2.74755151547889,301.332375550386,-5.28095792479179,445.285704850313,46.1370989811811,709.994052013798,82.0468419554482,1120.98386660933,120.988964323125,213.719598100125,8.20087388412775,551.731596972796,125.462794985075,395.275926856043,2.49267658882041,1346.55828484986,85.2787665427085,89.2987929916439,0.181495957412553,52.2538833737982,-5.7189296434685,284.144728458132,-52.8193749472739,398.250738009321,36.2967364627128
136.896013249282,4.79828440675535,675.336255768203,55.9293143269823,521.059276473145,15.8325526425892,293.22401553355,-4.34324147693732,442.177729389478,40.3794147661934,688.986492177628,82.697688096809,1077.27412792285,129.621669210205,203.052303082595,8.91067883763971,529.795977038319,124.534811818258,384.81130998813,3.27246629691473,1300.52040597349,81.664176977235,82.2267103499129,7.56059756239713,43.2379231936005,-0.788675860782694,266.479670027198,-48.8295436008621,384.671232123005,35.9746850543012
137.070104367917,5.00869239075156,680.310294228279,61.08349688826,520.867709195173,17.6700434777063,293.96646825263,-4.10760003440516,433.420556338891,47.9083668437872,695.80083744446,81.7324595863646,1089.27229914442,122.824978970032,204.940182164691,9.33597066541585,545.12578321982,119.324545257198,387.849979002824,2.98275828180251,1325.12787754263,76.5360163528231,78.4369617122632,10.8985010279825,46.7270522086627,-3.4676469717918,265.182805635753,-40.2373012808607,389.238579798813,37.1845247774286
139.777935646267,4.62842962487081,708.574689561322,56.4284735968092,547.285788525573,4.53086754633895,299.929331927552,-4.8660502017861,459.047177515121,45.2266204988873,711.976834434302,80.8730397772574,1120.74032169727,127.890298666142,214.376293941964,8.93034452637733,550.977510455695,129.464003056771,393.893042984384,2.77084378431271,1353.65427899517,85.1826913706866,84.8407515426313,6.48295691798331,45.2220335635808,-2.48506308119255,271.560555897428,-46.4093087853799,395.429021079513,38.2255198247576
135.908566204499,5.12411887721226,692.468484955899,57.1702112930601,527.873576325939,11.0460856305601,292.108048411223,-3.97788659667241,432.393259628844,43.459543403979,687.502173716778,83.578141448413,1090.0876924011,124.65690031087,203.001234084584,10.015245988806,533.821889709846,129.078854064424,384.208288334546,4.1294806787082,1295.52546602693,92.1763426156006,85.4350121650265,5.8261762322152,44.644989804325,1.30157810929894,267.563489335547,-49.8989686773982,386.190364965186,35.411836662409
136.277304051542,5.41454675675836,678.450543248373,63.7340401336188,531.816788295344,10.266539828621,292.591159161273,-3.58391235519506,433.041173167753,49.2689531327439,693.973610609342,82.2635333899645,1099.00211619518,120.685372075607,205.781648629163,9.0447360724032,531.349156055059,127.8595549336,386.863083286942,2.78660965441762,1329.80063020098,73.5938204935606,84.351917457743,4.02687741031007,44.1641052634122,-3.86411535503998,260.647705096058,-40.6330763881729,388.725434687049,36.0231684815288
139.294623917514,5.14748393161028,710.187020864896,51.7653689725649,538.263559756126,10.7206337357247,299.268146931042,-4.79241259842872,453.729253314223,41.82687429768,706.907135894895,84.0019220991723,1116.87957159299,127.013899708007,214.123775650793,8.44432495172898,555.155878190943,118.729838236637,392.823388226694,2.79189839269903,1348.90456853451,86.2177255495821,86.3495628956592,7.20526958835158,44.7613061542439,-0.71834678534745,267.074486269139,-38.533408224535,399.880972933622,34.9939416774645
135.52336708824,5.43659675811014,673.260051951746,56.8840834873134,546.568558881855,0.498576717541813,290.078552181255,-2.991754537468,438.55049786236,35.4946579771074,687.243178544525,82.8312630754612,1088.45734648954,131.876581404329,203.305711141801,9.07733982564989,536.328599797669,121.729306234697,382.823747180583,4.22145451887471,1298.91982385369,86.0942360963286,80.5354805211388,9.56157205271053,40.9847175562555,-0.488627208174083,266.218838139399,-42.5522106661274,383.033313235843,38.4520157303085
136.791745930119,5.21692869980529,684.745397758329,56.2494609501733,531.301987424282,7.70026471756538,292.522820179595,-3.26688628125193,431.876625331153,50.9658925420352,693.155186916435,83.8934487400378,1105.95658915126,118.513098268275,205.966723620706,9.25985727330439,544.806660248553,120.938253082251,385.426090236266,3.83814785070242,1329.44889278754,74.5555287118596,87.6889797937461,0.708823701322923,42.0359743724755,-2.81471942056559,261.504602825507,-41.9455871865694,393.054062237991,34.9622224627637
139.593895373581,5.25252322735155,716.3498305027,55.5181864341429,554.473127604571,1.13863658926576,299.545780575334,-4.06833764980368,453.262794348386,46.9316081985601,708.180524957751,84.5179168431173,1118.69826513892,126.153769637069,213.032189277989,9.72138872674746,552.953094738147,122.850441065603,392.529058262415,3.02996561541203,1357.22079817911,89.5335423058621,79.9398527418626,11.0148978576371,50.7344785288666,-4.24829293427157,283.450653558874,-48.3250912722877,401.535350394024,36.2422968206494
135.783674752525,5.50847312432646,680.930265453625,56.8623319091852,537.29728966104,6.13660686978008,290.539915192956,-2.88658960445541,423.543114794197,47.6899611015257,687.399182937564,83.0732675831229,1092.68044845199,129.737071149984,202.065277354736,9.5636837946942,536.60245764987,126.079216304806,381.650705781516,5.15580096673035,1320.21432563614,78.2906395482255,85.6537849329732,3.38632531494883,38.334443949983,1.31883313470777,262.064146138536,-42.0453679780324,387.621146156546,35.8521487448057
136.357215396905,5.69814599221657,697.216278848156,56.1661420601324,532.6900234528,12.2920684253523,291.989288070426,-2.95762754688373,440.343679951727,44.1668447869808,692.118789131403,82.0664105027409,1104.2482555285,121.470420073311,205.150438307778,10.2017479462743,536.007626168858,126.073427307412,383.610100347461,3.35880623303283,1321.77563028055,76.8627400599158,83.0241765126087,7.01420953611,40.0445320135848,1.98598606123392,268.075966976616,-46.8012107948717,389.550843959553,37.498271706906
139.498939905269,5.47761594239731,716.882131584323,46.7647684409185,542.197921777834,9.92527657738018,298.318606227238,-3.70346703896919,453.889686668664,38.8365852063405,709.066566393732,81.709162057555,1128.31593008904,116.940348091539,211.834784737475,9.52321953809476,550.075681913252,126.48038018343,391.917188820517,2.84043168639165,1362.50477730247,75.8908617107366,87.0804043956055,1.55955653962023,43.9044368913703,-3.6136420741741,271.193718466919,-41.4195855414116,397.584856463909,36.5799317284162
135.6337214099,5.95108789622136,687.466534846661,50.5987948455017,529.068982923283,13.8178035977007,289.806533565108,-2.35348101402586,430.573780990704,47.5859172749597,687.058717030155,80.5377801574888,1079.41003065857,131.075364580398,200.465857057823,10.7147459367109,533.06934155744,128.149259018032,377.934179594085,4.68600736914295,1297.99573549299,85.3017764095693,79.8947586742386,11.6574544676243,36.5247467777479,4.78058666552045,249.165472579135,-40.0195281754977,384.545558365154,35.9519646269387
136.35455208308,5.92058561249217,687.310182546299,56.8498621040777,533.374640228888,10.8612209720635,290.802683796886,-2.3552560271876,427.083830031912,47.3789161314091,686.405167220047,84.4966857443495,1082.42419700568,125.298053794236,203.30846917528,10.6526349921444,536.85900849088,127.81289359628,381.051076105653,4.65688256027106,1314.26380646973,90.0457825505202,91.8140352100374,-0.0489599000003707,40.195669549939,1.90100268763162,267.610992762119,-44.0890749792579,389.601118846052,34.9607701287258
139.123337941099,5.82434728870726,703.519989466539,49.1439482983559,534.680337095698,12.3644386315198,297.190674686636,-3.27918266248,444.643705625394,51.2534060273266,700.914779514655,82.4688619180135,1121.79564730586,120.969950601074,210.056352045496,9.68329181810051,552.890573399522,117.430510215002,388.33954077246,3.36590822424491,1344.95803628221,87.0132196676735,97.0966220833329,-0.961275685354414,38.1722992377639,0.431396254333646,260.226411854207,-45.9017146192625,396.184334124244,35.7181705558837
136.169580033979,5.94040420189945,664.0006468303,64.6957411678396,527.540295763091,11.7406329716617,289.723768639675,-2.02009839263677,412.096617199292,57.2169794788577,683.80103132929,82.6630524629687,1081.61971788203,124.882920720246,200.568278192816,10.2547618022075,526.642497361406,129.729728428109,378.318069000067,4.88290388365651,1286.60995992962,92.9032962332739,84.0431465366247,4.12672048616476,39.700836296906,2.13607915567884,266.86381796546,-47.8300000706008,379.413808733788,39.4106593992736
136.69187327761,5.94494337504655,686.854844683073,50.2041189655823,521.462044490581,11.0200090262309,291.424157990269,-2.90722867582677,432.059133020039,43.325803444636,687.56972525712,82.8858788321587,1080.82278518128,128.357005472345,201.1435978341,10.5297524324243,526.943794201757,132.035868630973,379.507504313202,5.26118878425001,1307.98702690498,87.5655396262155,84.1055640933314,3.61297524004,33.9134148044139,2.86058878997637,257.837095021859,-37.8054030039208,384.984817521826,37.4003592648312
139.561134923785,5.79865534384197,691.73546219286,53.667847852737,538.542047479301,5.86827708019366,297.196358880856,-3.12025655330552,441.5111983213,43.802559308144,699.056040880713,83.2926388556262,1100.86012326799,134.689824394696,209.165236903279,9.67107507897133,548.908302079901,126.311126413961,386.510028674937,4.07047042099256,1360.99254338535,71.4636846503413,84.6155800923692,6.93420600993083,36.6867377167007,3.0994016225659,267.746930899964,-45.1626922829401,394.667748361865,35.510563667941
136.998359449954,6.07411289577289,669.19839239311,66.1345591869244,528.66181201853,9.52410223135209,291.234867182922,-2.37935276091149,428.680761727403,43.5843771401935,682.681970236299,82.9784114955215,1077.20212309214,128.808115382002,198.523872653866,10.6715483783386,534.885338537246,123.594058691057,377.559226893937,4.82415740843273,1299.51534697779,77.2037150629684,80.5259582621943,5.2792997317726,34.3494444906555,-0.766224592314495,256.668050360826,-39.0840944919322,380.594893858332,37.5412192136999
137.28274561302,6.07366839207001,672.463674675523,66.4983847952916,523.139131940616,11.8851759112892,291.34630424959,-2.34336865585809,425.401658548586,47.414837327227,685.849060941624,82.4494964859344,1079.25910236701,124.932201174795,201.585825816126,10.6828794784377,532.442623074629,132.151391157048,378.990017659771,5.05397857566558,1305.47498125336,83.9860974244876,75.717558035685,7.79558175229009,43.6906375488637,-0.908566939524761,255.452153657854,-41.6840516839256,384.719460543708,35.8034888238434
140.369573991267,5.86201901947661,686.849684194915,54.9540248441278,538.783310755539,8.15087639760852,297.826984800072,-2.94326815650158,436.614719942841,46.5279201524935,702.411405637111,81.3697193334129,1111.02679792036,117.590405290648,210.423866937886,9.15516735161286,542.737388907043,130.582009699581,386.070728467648,4.65178058402111,1341.87678398287,82.5195745574395,88.0998516453315,4.71687038086358,39.5277623581327,4.09068700543433,270.428385908363,-52.8144387071189,393.856440041344,36.5651577071056
139.540242749704,6.04944151395816,689.068396598481,46.236669906122,535.98503701696,8.02634944160511,293.110147002454,-2.15327825874709,431.800477510137,44.7828993752493,686.67213902179,81.6048162133671,1084.86562369158,123.902331568319,199.309199012426,10.7500770271834,517.900130745805,136.314266324276,377.900018757942,4.06403896084759,1293.97878441744,84.7565304704984,80.0548484818261,9.21061389138711,39.4473335517299,-0.366352695919541,259.324527788752,-39.8312605358625,380.36996157958,36.9388000290445
137.4532438094,6.35946933877228,675.697091065917,54.3942913785669,515.999705977127,16.1939878975576,291.237278130575,-2.03444303044028,419.817765083293,55.059324989446,683.034394143542,83.6166319952027,1076.65063037268,130.098551447195,200.462908328156,10.9042563347339,521.557020691091,128.780611657827,377.345870284812,4.92273722133428,1292.46978672146,84.9812698257702,83.5971836724097,3.37619963106941,38.6384240103478,0.35181304908412,262.338337153161,-41.3269798720592,380.35683526788,38.6891787377043
140.15309065349,6.04216299654924,687.5065450572,56.7271933362559,544.732420109872,0.463001217705758,297.144483905262,-2.45427383861358,431.186273370632,50.728457201115,699.863938339341,79.9276355254695,1084.79599942249,126.912863358969,206.913344525791,9.86413669132788,534.258340542244,131.258247808313,385.089920633537,3.99656668832166,1334.48089361486,80.1484564818434,84.5438455858426,6.47620410127886,46.2994945262285,1.62535007103923,256.758754996069,-41.1379980794691,389.388613251852,37.6520982615844
142.448837731494,5.90417119319447,695.997415842357,59.6331169847906,544.182718724852,5.46195323753546,297.148680252747,-2.67942876337391,437.417525725834,43.2838913423488,696.057961686133,80.1739693804585,1096.9702503376,125.342099435216,205.793971044673,9.40943041131784,543.934786864147,118.319935700106,377.16979583059,5.26164788660228,1311.9171775594,81.0381621198595,81.5980266517402,5.90137875526635,39.1394253056284,-1.2346283025589,274.061196864409,-55.6675208199167,380.7908108064,34.4222279155318
137.796416203001,6.37666839352284,664.564314830471,63.744581938369,524.097889119882,12.3703919753848,292.101921802135,-2.03557598572139,423.453689522099,44.3676366446794,682.814675680859,83.4696567575876,1061.91370583883,128.092924479016,200.064461460391,9.85541248308573,524.733700790637,124.960033518006,377.08393509262,5.02172663542072,1307.81265784881,71.6171990511868,84.2894422215081,6.08019549963512,37.1802812782032,3.42348083174823,264.634149908006,-41.7482868806393,381.822604254149,35.423525633064
139.380676330716,6.55496085913547,683.583847987961,59.4221800600573,525.637474482186,10.2475584936664,296.338224692701,-2.55679528057208,433.289091315503,48.8857623487122,695.523636020791,82.2672961527484,1096.98740012479,120.676886991009,205.259013812461,9.80425052279964,538.373447445551,119.999406672392,383.547652846144,4.93038892720494,1317.12523855526,88.1225155167747,86.406525368804,2.38017499830915,41.1583106933575,-0.124762400833956,268.286999131273,-45.5530981793163,390.168799211621,34.3689420638667
142.610450491824,6.06872079234202,687.639339019461,61.5695229160249,542.707940772291,2.35120296081942,298.345546069372,-2.7587773251223,441.258485612833,43.4563577586564,699.346522798062,80.5190655493153,1090.21140045318,130.264473058133,205.904559353089,10.4766493006905,539.803873825691,122.416058655914,378.964711397798,4.58728307995294,1286.65095690391,98.1064534345842,81.9749789996171,3.98436057815733,36.0761233904539,2.18571049358542,262.70725543129,-45.2465169191599,379.331378782807,36.4497702912943
138.606489829235,6.4906621987396,665.067072149112,59.342664603322,524.051911016106,14.123674240495,292.210962156319,-1.88817848226745,427.848169766215,47.2216766264281,685.736070141922,82.6439673298843,1085.5116527397,120.685507200675,200.316875664444,10.6158271952726,537.313883784577,120.568686661482,377.848513373888,4.35119909214532,1289.58409860307,87.3151452425686,82.9070769675753,4.97708920811932,37.3354042987698,3.6110900624191,257.708885872799,-41.3697338704374,381.000612127698,36.1115918426528
140.579924204884,6.19728421741911,669.770309620035,65.2999153928392,524.851537867677,11.8689529451051,297.141993032841,-2.65050601217396,431.105021451997,47.3441999664937,695.913948445608,80.4399453318281,1083.8423544957,126.197203580547,204.993691882279,10.2300360611452,540.944419522342,119.669005140922,382.423027491801,5.08376351196941,1318.10632030749,86.522036544335,78.3806301102602,6.92085098070719,43.3525524061238,-0.598915444850157,264.314200743413,-44.6981930174828,389.588903630908,35.0493696844427
143.603956278131,5.90917299250572,703.48239456077,49.6992491077892,529.43277962688,14.9603140265695,298.135339325375,-2.2887112070904,430.049685406411,48.7482095045857,694.893119548604,81.9434920172235,1091.27318030639,129.450184594274,205.212336891382,9.48458158731172,537.711125431455,121.884145238162,377.505924040275,5.42283073516668,1279.11267383419,91.5755320651504,79.5893973027254,5.63297210130316,42.3968361532867,-1.38137951461238,259.519794774314,-43.1845856427661,376.005141714843,39.7475374779743
138.82514993638,6.73104288787451,677.24431650057,58.2995053840705,525.769477234139,9.25443221033012,292.716825650243,-2.06241285058,426.058045623142,44.9294596473988,683.287430052262,82.4925199228761,1056.77023550746,135.673130800571,201.051671839082,9.92289498325518,523.805972851984,124.618529067543,377.030537478621,4.70323797040017,1273.93094552058,91.6616399652114,78.9487613231244,6.21896548713282,39.4537062216802,-2.37363399579176,266.084061227944,-47.9461183550783,383.075420177764,35.4889054935483
140.710707302578,6.43176503860639,686.385340261133,65.7458730460396,529.206767863589,12.0293645248876,295.849935971408,-1.85566486789592,440.099831256637,40.8405941189576,693.95349369801,81.8761154937778,1093.2654325226,125.480340718645,206.127699414142,8.34438415629822,521.507287127124,139.848286313615,383.551344116312,4.81099311832388,1316.74081127681,86.6207045640286,83.3491980877512,4.88069753025265,34.171764550192,2.74955962473428,255.459182782964,-36.7862672347734,390.064398375246,35.8601205779211
143.254641199093,6.42101741226832,688.948109324616,63.8312282094471,540.795510644408,9.98767503672637,298.962729293512,-2.51106207287507,432.914724028257,43.5996937121301,699.240870119142,80.2272725852651,1095.00619364744,128.998189529896,204.411347424552,10.0490280286961,531.60175318788,125.364409824088,377.556384657724,5.95998719931013,1292.04274686647,85.2450266269373,81.8211360328307,2.5173772858094,39.0628232389263,0.150157444204172,274.669043710374,-52.2612886742354,380.616466418307,35.1559704045393
138.258678102328,6.77810054337797,661.942335074678,70.7654909707972,518.691486442296,14.1809981928469,291.372803421509,-1.53149448356996,431.32599091434,41.9827746656528,680.85768825107,80.7573740015053,1058.82189042703,125.228696790555,197.838068502675,10.1005755680863,519.07782184057,122.416015894816,375.459464267244,5.19921751772315,1285.92827310098,82.2288886916446,82.7423955279229,1.18476667203724,34.9119863972303,3.21207510542372,263.092973628913,-41.9825085210922,379.065257114173,35.8332782739966
139.993637056892,6.58926667832455,679.904472661904,58.2222319726442,537.546563067711,3.21383457127397,295.071042437371,-2.02447648761536,430.263399405203,48.729698629113,687.303041626689,83.702110787904,1069.97362167563,125.873089427065,203.078460268765,10.2183161110613,532.056767391002,122.85030187823,379.715085206664,6.12168183960495,1305.48100881322,83.4684987802716,77.6131943762754,7.16116943336059,44.7534272014432,-0.257026760044624,253.61682957754,-37.5044873779436,385.662121909271,37.3459519300955
142.947243124634,6.52358047503736,686.131333684532,60.4837668751545,534.929613093677,11.2706131406534,301.289353960724,-2.89372728686809,439.896160977812,46.587584863163,703.010983942045,81.5488365914613,1096.03293622037,123.980718646788,208.239358718655,9.39114561141761,539.237843038602,120.560264649503,380.270192425116,5.7970236511251,1314.73755356742,76.4706103425283,83.8308827774121,4.74270847649006,47.8047089939721,-5.50896748163758,259.107683262635,-34.9148950461068,378.355745336339,34.5297978554601
138.131314159334,7.01926603576633,674.388463526594,56.9052967026669,521.142022778582,13.9832403163005,290.574741006778,-1.04261369639612,410.069936916467,54.000214805544,678.525589248278,83.8481559716461,1056.55358798859,127.377996984392,197.017906407349,10.6991690411575,514.891824661733,127.266940854962,374.095142568176,5.93614206748899,1264.52583729736,95.0695009862742,81.8447269473697,5.97158946822725,32.6901642235729,4.74155060610771,269.629140602335,-46.1048438565413,379.550989883146,35.9645270920099
139.725618503477,6.70325343591748,686.824837805749,53.770574539534,532.396982953439,7.79434588143096,293.594966306368,-1.47014791630344,429.205290968897,43.1935032499817,685.171745347308,82.4911825695483,1074.00429036471,129.141698552939,201.223662469246,9.95725462218254,529.649066994273,126.226888975923,378.932710054276,6.34799580717982,1304.61198302005,78.8004621623188,77.9673423134119,8.059821898766,38.3448357744774,-3.41482714863115,261.876150206729,-39.8933386547266,384.039278279338,37.0256104169178
143.15518533299,6.40125822426187,704.188519428064,46.8336693595489,540.713062089486,5.36107238844306,300.315892202889,-2.63738305892914,446.397462235975,42.3361590689899,700.727464518032,81.7942115288365,1090.3402803189,123.468254472867,207.939190065396,8.57647853396954,542.586598229248,121.20703480304,383.708030124457,4.93010064583029,1328.76099881864,84.4342292249101,89.8161455350435,2.88822748955342,39.0309504134462,-2.56615782603346,257.030711029208,-41.9398266845107,380.008686227483,36.4476538621866
138.823394279316,6.92754809146499,666.032816088376,55.1236406132441,532.153804604381,2.57338121226652,291.808500208988,-1.6328620173095,427.906414672264,41.1489456150831,677.274998589596,82.6999982651072,1063.06653983058,123.486619936679,197.638000563973,10.0225215817413,516.139775241697,131.439444324732,374.357240781974,5.69457016212654,1272.23939972982,85.8225888142297,81.5044382406054,6.2995156044352,38.3305140195521,-1.64678941688485,261.863952468037,-44.6087105231395,379.062843367908,36.5560365707207
140.483703463243,6.68952265109325,664.610611459625,63.9980952921921,520.525978750169,13.1955573056582,294.474661713241,-1.58756839369593,436.554982410825,38.5573582085019,685.276557330221,82.6965401751437,1070.1911827939,126.278332072984,197.433070753678,11.5753569578267,527.378082938986,127.252303089834,377.857502262344,6.31783180939438,1282.86568282161,87.6007217135597,89.6684225057641,2.12346714414099,39.6462184825602,0.0909769645588608,266.765273062964,-47.0011512272312,384.362080444234,35.9520717197473
143.438903633019,6.49881982332081,691.915362490045,54.1370534425518,539.157629050797,5.75891386176867,300.191346144475,-2.29993813326729,435.466408842315,43.6313583378283,697.434829432326,84.4832835611372,1096.1851019454,126.740878652001,206.217717165861,9.76828892198571,529.009900781605,132.508818771233,382.737089608059,4.70833675843938,1313.43348327079,88.6550382266767,82.050886891847,5.9659846178643,35.537155755343,0.920460542386583,268.60122766942,-50.267276267659,379.674603731764,35.5968490617389
139.756948470217,7.01031521790332,668.881192621827,63.8910852678992,519.911099760737,8.98377586729267,292.69419713591,-1.49782696097947,425.462400660396,40.7314648426409,679.283500613,83.5873943085188,1060.57386180977,124.979466085008,198.37800877529,9.93838606629335,513.064511624519,129.683978115973,375.630876208189,5.61383006654164,1286.45066101126,80.7301288466959,78.1896716606429,5.49171849872844,33.0748340829944,4.69143868425969,266.478647102624,-41.7699204896664,377.347754402032,38.7285682504618
141.315871044508,7.00168708053133,680.944573110515,53.4997690005819,516.84349522092,15.3206833871868,296.58636162496,-1.78052250151374,428.917165713486,46.4686225500728,690.036083356261,81.4928112151811,1078.020394222,124.542960586823,202.109623546333,9.51640956463639,531.998901423141,128.055529899159,381.175538468084,4.37959799576295,1311.18141498049,78.306647355705,81.8832819229174,7.35471351728827,42.5061841584101,-1.2201162989299,267.961386329392,-48.0892910925288,387.286904966037,35.075494346893
145.257572014887,6.35728591779008,711.24265174724,53.3506406993585,539.122452845775,9.23710689649951,301.269142034232,-2.68754161261754,436.278202243338,51.9192813224208,700.944014182405,80.3597943580831,1093.1736748742,129.700601278862,207.172401903783,9.42991920754415,532.53655510774,125.700427811922,378.732598746018,5.52770625755425,1295.0414192108,89.0602119096325,82.053036453093,8.56659019249708,47.1141535509275,-4.45213756388429,263.229712009981,-38.6956201677906,379.365518013788,36.386584038534
141.07803172517,6.74845236453652,679.496402651498,53.8005801072042,529.48564978645,5.37959607831476,292.657960834455,-1.17081403269004,430.11288718197,41.984533822214,680.025011570219,83.6204281116428,1052.57323298618,128.768992184773,198.480359647918,9.40265699476057,518.981783100739,127.243723717016,376.478424886147,5.95184518018173,1284.47432773364,85.8112410507728,81.0674569600607,5.46613411803644,37.0340948531106,-0.0515772383728845,259.759759206081,-43.1287501414138,382.6120129389,35.1666028059211
142.396448115639,6.88115123459571,689.059655648934,47.7849751886471,527.482589184455,13.6853956475831,297.37468479348,-2.03099798261151,432.725745552385,51.0413488719508,687.204695656248,82.8705154112047,1084.9583404714,120.762253108218,201.459977371932,10.3252908390708,529.944873878414,123.543758170524,382.892340230015,5.13106968011312,1305.3544550709,88.2259294757086,80.4783421348067,6.3004615153691,39.6185393807389,0.764688808271588,263.603006285226,-41.4821781241204,390.109230254792,34.1308579984889
145.569035977637,6.75691807095934,712.358768557389,50.8824417867624,529.207311021854,18.7871417937411,302.563539021412,-2.4172814268786,447.780377549381,46.3838661445205,703.377627026033,82.7362515512701,1103.86103796805,120.725069340571,209.122686302005,9.71989162544555,542.033423959557,123.908553949438,381.145627869291,6.34484837193827,1306.3250927459,82.7502843156976,80.2712107454245,8.30334636665469,37.3956056692189,-0.012084386302944,242.837543220136,-30.9333654167546,379.246160464147,38.1367829628978
140.562585771626,6.92246306307234,664.550160638694,61.338248068614,528.139950298336,7.19158522964391,291.521137410105,-0.888151204395408,423.91072002831,46.7800334740098,679.040294176407,81.6755858299079,1052.15360400184,129.653574334157,196.430470231325,10.2666477975843,523.428381293535,122.246078803008,376.052318092434,5.43042505324334,1275.84427925666,79.1134780434617,82.508019170689,5.703744611619,38.627196028707,0.667696047557569,249.518196904017,-35.2596234582057,381.802466145509,35.0365140602866
141.975002569986,7.01711751730213,679.525590519526,53.0338176052824,518.755679616098,12.1969530294261,296.799916054042,-2.17599936796101,423.013890561442,51.4226113756525,686.393403552297,82.8487344047218,1068.81966802729,125.860257676895,199.413136954814,11.4262450139811,527.29044078111,125.852631662747,380.576589837671,5.61786600578729,1294.37119143018,91.241031414156,86.117450962963,3.45148693406993,38.469622197711,2.04766553205796,271.17063797032,-47.8852442806781,387.67362413955,35.5855998297111
145.772966628169,6.53522012919142,702.31011672482,59.9338984089536,541.565552143255,5.03183247547675,303.633133097462,-3.15313705789456,448.593073932798,45.587674924882,704.302186884763,82.3213303585186,1096.22932941512,123.933216198677,207.335137207805,9.87812740218353,537.99240298406,124.085907526015,386.02851926523,5.50497146208716,1314.31442687926,86.5419329379875,93.9493557242771,0.523855932077055,47.8566094448717,-4.61671297949883,267.927199217793,-45.0365820779372,384.290394402778,34.8549797840995
140.114381478933,6.93699274639766,686.458783932891,54.9744649560358,525.580346156963,9.70979302566982,291.658975973792,-1.32393532286423,427.566766382131,46.776773945266,679.679301668433,81.2249304707186,1052.61088910147,124.385907413724,195.779192483948,10.3445567107533,519.249937387943,131.084040165686,373.850038407175,6.85154752290456,1279.65191455529,82.9182585825402,76.657722043016,9.52861535760051,34.4058041940725,4.3119135473051,263.320239500456,-42.7941778801366,378.948216269157,36.7530744753693
141.684334369823,6.87915575024891,695.039700673009,50.8130736526263,536.870538174986,0.975489345907989,295.417205953157,-1.69991141835848,434.790461509124,41.9876563587811,686.080228927654,83.5667749072524,1065.16291916369,128.847600979533,200.236358808888,10.2851371237258,524.41581964013,127.993508775577,381.096617370921,5.23973262910607,1295.14107256287,81.8391633550276,80.6260912313167,7.75614782738721,50.1712660116986,-5.78685965111877,265.600283658521,-44.7321902440221,383.557015263516,37.7103055961724
145.516551302761,6.3813562379726,693.499945669883,56.834555698139,538.568584715801,10.0171209670533,302.851950262543,-2.398890092603,438.735729352072,51.9800654438825,704.174282566443,82.093722015783,1084.68488796875,135.309894305081,208.827281051439,9.33966368204464,529.669566651638,134.85710666376,387.200822328376,5.49819164796439,1348.01089307995,84.9652985694474,87.7102446464329,3.69635246661231,42.3315417395718,-2.50414051897336,266.260501816573,-47.8044401755323,397.850654359274,35.4487525706023
141.655903016932,6.52709824613107,671.762955768059,62.5856377894499,529.049635413937,9.60983600722964,293.17813643354,-1.43159900061555,422.788298559767,52.2291514691793,677.676169185988,85.0022277517898,1067.39638786895,124.235134349225,197.437219761851,10.4571336876521,527.435786803802,126.466031055711,375.46754817368,7.39951789461017,1279.96960385361,84.550935468832,75.290965631811,11.1177357279195,40.0351944375404,0.868936324589974,268.642313162639,-46.6705948321569,381.804919857135,37.3887283277093
142.835357975179,6.55322546566803,685.228844457413,55.3610499866478,522.11801067642,14.4872342018112,296.434061228128,-2.16797866888269,446.430646939949,44.3215483974547,687.652964929087,83.3262020411385,1077.47632935321,123.863350124129,199.657003839848,11.8074357507138,525.593747477436,131.708512972486,381.973433424469,5.2152144492093,1300.53746346166,79.8947261198221,82.2155903826184,4.91984024540315,40.991732119586,-1.11373776329553,262.551345072931,-39.1264273391341,387.789908592247,36.4468787854632
145.706588230762,6.68395100105531,711.067339959488,50.1939979266874,542.889538732272,9.80563644597686,303.197803927139,-2.53019573980516,448.646901606919,44.9956093599166,705.574040127209,81.6262519239868,1105.79973971341,128.139773109944,209.99443197413,8.60508719514161,549.051753623476,118.882367499415,389.668594963796,3.24555427412427,1339.54139320081,78.5501733201365,87.5366509801912,4.86181888943817,42.9161004132579,-2.16515119867259,268.527052919251,-48.369616345111,397.128051885578,36.7755496063547
142.454823248207,6.69602693668446,682.16476363372,57.3592103878974,534.135926687754,6.73366726772315,295.010888639609,-1.26954384812363,429.689708616291,45.3199545002678,684.708100795863,82.2163537881409,1084.6795473685,121.504146606216,199.537576573002,10.1845073269119,524.513849901111,128.939816569358,380.094111490436,5.43789889051262,1288.18510701789,85.0992311450321,87.3520146443052,2.01283868391632,42.1327690446912,-2.93516721535863,266.312392767484,-41.8373009453875,386.016152504664,35.9655444736912
143.989820475294,6.64573861685801,689.283637180733,60.0758936299977,533.25630620447,13.2409997751301,298.473836229628,-2.03326987972745,445.07010646641,42.5922265003706,694.19130121677,81.4070978778593,1082.33750402872,124.027940582098,204.871258029659,9.40901789554978,526.932139125814,131.142350695023,384.87538629935,5.40413758416455,1309.57331086567,86.4928666653628,85.9783677229261,4.37388590917644,33.6347644678819,8.30874756179271,274.918182836538,-45.2055476810847,389.913703154461,37.7994235648425
147.631667842455,6.2252584178008,717.28764439874,48.3437950688936,556.887466497812,1.98915570710106,306.023697172474,-3.23375776229676,462.345594839971,41.5943308473396,711.081716095856,82.4782576001854,1125.36320997676,124.654575389993,212.522842329162,9.30750688501493,544.61143856249,129.826336651685,393.114310322539,4.23022461552668,1359.98127598838,80.5743909933053,85.6739974436024,6.98746823198113,42.2480190058076,-0.945670920074409,274.444953611082,-46.3364791808701,404.7736301221,34.681892976686
144.103368216263,6.43245251753079,695.240277504024,51.4115051147802,533.348265715733,11.8080709428386,296.26153100501,-1.4815371208458,435.640210231992,41.3844553693397,690.928079548755,82.2065151009978,1098.70606480308,118.025465249929,200.469933971939,10.3833020233827,526.941063529377,126.841567780927,381.116164556335,5.63397284664502,1306.75478705097,79.9719735626328,78.8857093207699,8.44892687121551,40.9916612850024,-2.9951541062475,266.989575921361,-44.060504817509,390.069741008117,34.9052873787756
145.056594070394,6.3860346855906,669.815983715117,74.9262340183572,540.410638495281,5.47145296626053,299.738132491442,-2.3800070057049,451.064715307017,41.2957169552353,699.144610860332,81.1284250875824,1092.95305186464,125.827398980465,204.758577261946,10.7384727123498,533.220247262588,128.365694099769,385.371494583268,4.68874302179232,1332.89457759881,80.6315053737245,83.9596652702648,6.14269956938502,43.9223135490485,-1.09295936198415,285.951834221445,-54.9768565297906,393.514819073431,35.6503814063487
148.847309170917,6.19031848026773,724.170115809223,49.8216597968231,546.122404256643,13.3718402335548,306.868837964958,-2.86559754022331,466.893396685928,34.9341554481361,716.50166698003,81.2216964489064,1128.84661436042,122.848451177925,214.112079439607,9.31771030091793,546.390018102355,127.828476167859,395.637847533201,3.84359885213242,1365.87716015811,78.6090362165099,88.1905847969203,5.21305388750046,50.5933003458396,-4.18178496566724,270.135616801815,-42.4785552445029,405.06145067236,36.0122566815906
144.953106691624,6.44697934824647,707.00194124933,45.4082818602872,548.389113095255,3.3660851956352,297.681164591017,-1.92145281656546,442.179053946055,43.6136451724183,691.555461653868,83.2921947816276,1092.39224069382,134.32777623011,202.751460400889,9.56312389689334,537.317792114689,125.420976555864,382.620642756553,4.76576667041178,1286.4071483168,86.9336818380122,79.2207265560956,7.89273894935563,41.2355643512204,-1.96425351613309,269.329201126402,-40.6992652411194,392.199583520029,33.9929290421852
144.892243640452,6.78692483961322,692.199697198813,57.8756169792887,538.91892026734,10.1814068030481,299.238309481479,-2.40914954894653,452.204354752733,39.2660441360311,699.079365340461,80.0871288606037,1112.26562754965,108.93799523457,204.18270588467,9.99994461684397,539.060890608157,126.832018800221,385.564100464123,4.95702391125868,1304.88767980479,92.7146819851866,82.3592628508857,9.65507454655319,39.8095990092473,0.297476021740611,275.876891032403,-51.7982509962064,394.388362507019,36.9122760121265
148.281795904319,6.10525013684891,713.71077226189,58.9881123843802,545.460351678661,11.4853707510282,306.728874632263,-3.60737558325797,450.436486204764,44.299000870483,715.151015211834,81.2781921972604,1154.7368843016,114.027497828015,213.642449316524,8.11438141058333,552.584439885629,122.889063530379,393.965259626659,4.36757072229835,1370.11819761165,76.2763966856941,90.0728815519859,6.50288208082639,47.7337327004407,-6.22005112778528,270.771674767264,-46.7911109426932,404.62870124479,35.5768651846911
146.071254239305,6.19830276686289,697.86198905274,62.0999740689563,550.853249514396,6.34687697536549,298.737706184112,-2.01393480802763,437.193054997429,46.6047177358695,696.317544519874,80.2332379721867,1093.26985097123,129.821536932284,204.269366889376,8.8252905749129,526.345090374097,126.006646446056,380.764072210107,6.04410361011045,1304.83487123286,85.4690054897067,76.277456782178,10.6516059842688,38.465998921073,1.07344348482257,271.609158068227,-47.5820291195108,389.735769506017,35.6912178685896
