143.963631283652,-16.0246016318984,921.098589336939,191.738960759813,875.171500482992,140.944775465548,637.217537863047,47.426473185549,323.211539108914,41.8650689479362,235.355685207249,48.0395674780814,914.250677490417,159.061406997741,157.400073430486,26.3127698396565,603.431595818955,162.419488589028,366.641756499791,9.88944574233707,641.807542022136,42.5541109078888,119.331190130697,59.1295080174638,688.063360650903,233.50936674381,1521.53615531159,130.965185064933,468.457376446044,-11.6742091976876
147.129185358657,-17.1836415972502,908.611718750353,206.097632734123,903.598834230185,135.887150721445,654.519467222379,44.1787588424097,326.921231241259,39.8998726896084,237.627120781242,47.4808678673721,929.099507350607,160.90149442539,161.683476488823,24.7178682450851,606.502582560948,155.26360897745,356.088531246874,14.9648272803668,632.210550630125,45.956719299303,122.848575956991,53.9848540515241,690.621901540947,228.811645347844,1506.33992073474,133.939624657493,466.38415862846,-11.1502764777462
140.100582046897,-15.4413015219418,912.53126951062,187.811217541062,863.39296155025,143.012917547741,617.932365913934,47.2150672365025,310.931230322447,45.5287577066374,225.523569944566,47.6270304303271,900.041129759678,156.927380640359,154.7765822622,25.3827780531811,592.179578362155,166.153531309425,345.833201616256,13.1758802618789,620.356902799913,47.6845642035989,127.842467467892,51.6850369054233,660.589867548894,233.210340663256,1473.908624428,131.403626145673,478.974661063632,-19.4343778641434
140.841861528143,-15.9356354491009,897.805392514234,189.481046211011,864.926239442632,143.415008850371,624.988958310619,47.2332625111456,304.643836087362,42.7258034928967,228.499287176114,48.4198205385584,898.753625172979,163.304478679283,154.365730772074,26.2778891686863,608.532720442566,158.854055869776,363.496087912924,6.85193145060262,630.985444058714,44.2636382000528,120.85639420978,56.5155222087576,677.677886952001,222.331021878913,1483.44294945063,131.717086104697,471.252187264955,-10.7031678908509
143.203946365612,-16.0518255959435,913.161696198747,192.931959299811,875.369276831985,142.050411824054,651.203012734324,44.116823454829,318.694661338193,42.6189155394261,234.186539648446,49.4928211261365,917.334766660329,163.887365677243,158.486544569285,26.697873319234,613.220694400949,151.081328610322,366.117849991302,11.8385798808229,631.256875821487,50.4220537111898,118.458132752837,57.7002901306221,664.927637636103,237.757467761722,1469.33113883578,133.079634888362,479.220907252286,-23.114394284181
140.452708772105,-16.2808785721791,899.495721816587,185.620742446289,842.47538683343,150.410259340113,610.757932356177,47.7948495649709,302.841609070287,45.1589088446694,222.895071491446,47.1613858097878,882.341152257786,158.261691515947,150.826387122351,25.9958036135874,600.598859232947,165.847946394758,341.695613183295,9.66883229563584,606.343845332572,47.2436539979424,112.075484300555,59.7803836860212,645.390623395788,229.31635931608,1428.73846374123,131.735027020396,453.841187643224,-6.14175522071578
140.478852828751,-15.6024895723239,879.798527761293,201.772633980492,837.88286408752,152.204508651569,622.192777879076,46.1500708849802,315.771591768221,34.8283236042975,223.149114141792,48.821858881628,880.564108897524,168.474842080693,152.692504208318,24.8278623807197,605.010410789337,157.673861762714,355.504177342643,8.46349699275807,612.077340105989,52.3164158618483,116.240753442307,54.5486480055003,647.196654471605,231.967593188432,1444.39921363955,130.782360975326,445.463910027116,-3.22553278816394
145.678379810992,-16.2838296807569,907.352662037505,190.311288617514,856.163236079405,153.168056731193,647.47500237328,46.5112593376997,325.069419486383,36.2219100002705,232.981363208225,48.3367573202608,913.220273464295,155.283679967639,159.141726874609,24.3272600658229,614.021067206336,155.525370181233,363.478358410376,8.20286646675779,639.69434359653,46.67939528943,120.144693872699,58.0829447445649,662.439783959626,228.173933795676,1462.22915909509,129.558607320798,486.866624314592,-26.5244578531783
141.344880913348,-15.0672077761187,877.839124368084,194.250136701409,851.978605917674,145.213562566923,623.953248573029,45.5842385093844,300.665329178403,45.1181836872391,223.25959743073,47.8047320822392,882.485270870208,164.351582718539,151.491382315824,25.06887394859,611.464708559332,157.498217561014,344.622995932115,12.3172231125312,604.674814090242,54.8305460487741,116.077299466342,52.9620447872898,640.42882542003,225.941906656537,1428.04086820477,132.198669364516,468.460840796693,-22.8264749692241
144.001358314776,-15.8693636218337,896.661494014247,191.825234300772,851.126296322297,147.265760602715,630.854358843617,48.559383995125,303.817461477632,44.9199419619984,225.970628150426,47.6082020776339,885.207340516916,153.503777502041,150.602065819318,25.8127724452703,611.130132338873,159.919923906273,346.393059926547,12.7522053078201,612.957433137054,49.0244510196992,119.161599157083,55.7131274813971,647.623041024674,222.749361929629,1437.54354654075,131.65947393014,464.678554669222,-15.8589911180695
148.250086624396,-16.7513584740869,902.782495704101,201.121091535175,866.812895020272,145.755516830993,652.216031705976,48.0584606138374,313.027700788684,40.6050464609668,229.901185652478,49.7801746330331,904.08079753886,157.146846842499,157.107723182421,24.5889503334003,618.387740062871,157.653879501802,358.648350131761,6.63569139008796,616.824434225716,55.9294181933461,107.618224772641,57.9146540454089,634.080339686297,236.403605473033,1436.90867916408,133.084396633827,459.858001052531,-22.4599851306725
144.372494847437,-15.5692863706628,886.459054772086,190.61451419961,850.154831861783,137.878004318883,617.635812258536,51.8503918115374,304.784215930523,47.0087421054262,222.12231230198,48.4010400782945,874.175347499833,163.043919489953,149.200506959672,25.1662865457034,622.755486907133,153.861800992121,341.827805470153,14.8058828913707,603.517041785392,48.292376584986,121.443778303403,48.8327098707945,629.301119723561,227.916984527243,1413.74288105607,133.822284910187,472.531926482178,-22.7912892979154
147.079683734874,-17.0863320346434,886.910037189832,192.901825938957,845.443469061393,142.150348428649,631.318561068193,50.316814007292,307.752029958364,41.8934274829429,226.642222793083,48.0430582802846,885.537285090468,152.63363812718,150.689410041721,24.4019644780045,616.847751775715,163.893336623108,352.45755918886,8.79216074858088,610.631040564414,44.3024555283658,115.160933565748,55.1102312233519,617.238441503736,239.041647191572,1428.0779558038,133.21944245995,463.374287806569,-15.9230062930994
149.332911417686,-17.191729584596,895.285262253791,200.39853686469,854.635655903718,143.500458290546,651.850485397105,48.873623328337,311.743318191233,46.1187491484779,233.251493763696,48.0863964389046,902.845906890836,156.412127373847,154.610491469492,25.3699361910433,614.824857705277,168.400745864564,363.877258573842,7.821527092437,616.800173528019,47.8388788463293,112.757841422279,53.40717264191,634.137455413284,237.331329381203,1441.12294806262,133.283151684256,472.484750394899,-19.7003548198805
145.328094710435,-16.3217230760757,877.036971986464,184.041682057348,832.764030465494,144.244470253558,614.805493598792,49.9834170609353,296.386901545088,48.4754761668088,219.685988297862,48.0524396374888,865.139955836124,155.393773330956,148.413753700605,24.2356575147206,609.970618490672,168.067260402735,338.740197963668,8.36304788153636,594.118544387116,54.9082604326105,111.343631902823,55.3747315422032,598.047621427477,232.192539554238,1401.5758746983,137.094287093509,437.99795206103,-5.19846471182489
147.249401262607,-16.6324580124806,863.429130633009,199.111470985604,822.12583890224,147.508714524458,625.339793219752,50.0980480181252,301.084765391029,41.3706153113975,222.020723629224,49.2840321562635,858.834974606397,162.176159983979,149.312492011077,24.5499142972049,615.689252118123,165.722948864675,343.04426357459,12.7400632587675,600.485819292854,49.0206659189883,115.163888911461,53.5524750599047,608.461562920601,237.266826904567,1417.32211753892,135.316101290034,454.662767085444,-12.688163011713
150.367737241274,-16.71317579059,882.018333544307,196.089913765286,845.30516241819,148.287152771137,644.172665140892,51.0794620316251,313.563312393273,42.0171564311255,230.570720809495,49.0253546690336,877.638413183175,160.997746449022,152.558569423781,25.7302677524203,623.016603034103,169.29790897028,366.915016126059,9.65414034916192,612.242497078214,52.4377567924278,117.199683814304,55.2940814387197,628.855829495188,230.944605352869,1440.86972998467,135.711164421687,477.392101967125,-28.2055433267124
145.313002422011,-16.0648464165674,863.674376642449,192.749622444309,839.459061923008,134.917662629447,610.80025232175,50.4733012372645,305.561038030245,42.5573750749213,219.598921909613,47.2581221028509,849.479516806996,160.447360023299,144.802503977125,25.6970196356908,637.774806033185,161.095604793287,341.588765064558,11.4833262792989,590.281076806608,52.5079916673993,116.896824042882,52.1165853868261,615.837880214099,220.616835605728,1405.40793583423,137.303420689953,458.340130684991,-16.1321465825413
146.204189194695,-16.1189906256307,852.341395168659,205.963824887025,836.306942368038,138.515261452969,617.574230851598,51.5939391842159,292.81647215012,49.6861083563616,219.793053615298,49.9380383427375,864.066268466833,153.221998545634,146.735767805441,25.1198004054711,626.502436072785,172.280356982465,342.042375767358,11.0926419235824,587.483625103764,55.0782788228862,112.739513455357,52.5489870836407,609.295002708032,227.08894519366,1411.58413768099,138.162510613919,454.138390325214,-13.72293650532
149.566698172099,-16.7369777976654,873.870073090252,202.671955853548,856.431269697425,133.361019853787,639.096178674917,51.23771144643,309.836661349045,46.4450243008019,227.964158286315,48.6102378442606,856.331611707631,170.914029590265,149.918183702999,25.4326079954344,630.618945655548,167.540353026681,352.03928233878,16.4841384198071,609.4783859926,54.5572477966204,123.960909264923,49.7455232957039,616.838200561471,238.247379699244,1444.7794937366,134.36735375495,457.124942878626,-8.95400878381269
145.050571630844,-15.5587535290509,855.440806516195,196.396206610378,822.855326714277,148.149536790813,607.922740611818,52.0184694370164,298.027131118785,50.0595767363467,216.757607370455,49.7999854219438,841.572883897322,165.579921545397,144.597222701087,25.8469506465254,628.89952082178,172.076290548212,329.316191075375,15.6758353681083,581.562209023656,52.0884168287418,114.746677073615,54.064453050279,594.911824283489,232.298682442867,1407.76886650497,138.323294562307,457.831206196537,-17.1889674341833
146.713015868918,-16.1656821402962,851.557057931785,203.232176247393,829.010241095473,144.816800736048,618.331999676478,50.7914264852216,298.483084793374,47.2875094483348,220.606261129923,48.9625785982741,845.725380557034,177.179887199428,146.418728734936,25.9597206053809,637.763390778582,175.230017923059,349.22960610019,10.2969391842856,584.711323598428,56.1507674288428,113.703318711937,52.9228047939173,597.750470272324,232.270794299493,1416.2551906167,137.418896050146,448.460130997062,-8.81552162867999
150.222262364907,-17.0993842339733,872.895228160005,198.405509036491,850.089582271487,149.329099598734,640.398718580944,49.5524681535784,316.77092993348,42.8899776496092,230.776315140527,48.887872181282,873.203997917862,166.377979179437,151.171766803437,25.4601965266614,636.992059681493,173.445274259795,348.366700123016,14.6276313690965,601.754475178414,55.7493811310454,110.365018292881,59.1571094110545,617.822208942752,229.292347792533,1449.26069106258,133.365264344055,464.137710923881,-14.7983520189178
145.747065620577,-16.3844568283805,869.225932788694,195.592960513966,834.62629256035,140.431858021681,606.861872202853,52.3555667149547,291.03555883382,52.2321220059998,219.707119151788,47.7227996811678,852.529631134584,158.718705877962,145.361606015063,24.995645857998,630.873675108986,172.305132548613,325.497042313025,16.1937459461808,568.023593445803,61.9609792603748,113.319040051618,51.6076388524794,591.776213944133,236.105747204659,1411.81319993959,138.66005127315,454.106168755499,-7.97767475892625
144.784352913026,-15.533579584537,870.165038696481,190.024881207532,827.342502090905,145.769993580185,610.375012166312,53.2477254894178,314.653546795673,37.8031360429545,218.022726407101,50.2651335861398,863.24466086812,155.579157869276,146.25257413312,24.9135294379185,635.67880337831,171.723091578969,340.789563384747,10.3375049714399,576.663597438973,64.3705155713427,111.551884266444,54.7364562155069,599.083374460733,228.341301628308,1412.82407470089,140.308978813234,451.930154644971,-11.3664059190853
148.71291743141,-16.8243423240477,872.619982628147,197.19501370632,856.30362656377,142.626058931493,632.401529323213,52.4017286026551,323.701469375372,37.2507481840009,227.640032232419,49.5761667814837,876.690311937647,164.816456142683,151.27487740928,24.8477955120495,648.397150369269,170.178933823954,359.413960960396,10.2317776933725,600.715103080839,55.7048910632275,114.661862179074,51.3425104954282,608.722623531406,242.572097489138,1447.28883692484,138.543613859346,464.150578202606,-13.6155125466504
147.511286107916,-15.9777986976562,888.244634551826,196.189259597302,849.399665165449,147.323448046496,612.27101854642,51.8211306062499,294.951238979456,55.7042835801664,221.461641178408,49.2145697464766,874.609195968801,155.528679248772,146.792164040546,26.5189640377169,637.585027599662,173.36790959917,332.985610300784,14.3108186961426,590.470848479051,48.3056309481494,117.118592755097,51.7353857801225,590.070728936634,238.72795684317,1429.12929477635,139.60512353327,458.160902966535,-15.6569443810561
144.33324166344,-15.6319397464959,867.422795802514,195.702391131491,838.116487140534,151.673253742092,611.542824263047,51.6645482328353,303.740150027366,47.4317312332433,218.002156698506,49.4729806182629,869.320967165053,159.090593371108,146.556730097606,25.3558744828377,655.033975372489,173.635585731781,339.858335832612,12.5198245107331,583.045503882352,55.5005490808985,111.551991905734,55.5218262124937,592.930535985796,242.372933398176,1425.85596328564,142.465964905482,466.567729109874,-19.6472236245898
146.546219883304,-16.2015183006595,871.424740733187,202.774940165966,862.030093626624,141.786889911646,626.741317613482,53.3997277216677,304.218124382412,51.3797503331749,225.488928178784,49.6146970960942,875.987728370315,165.980941532927,149.182515865612,25.3093150363985,649.113503711313,176.589143705005,351.31958740696,10.043111796687,609.431931016844,50.4340022842835,121.920566611451,50.5272633777086,609.996336046937,238.270995834305,1458.94345605529,136.338194137641,458.177760589119,-11.0257682246919
150.397902480784,-17.0767838467607,899.982842728315,189.311889273805,876.286932870938,139.767780219435,626.616352769982,53.5465415361392,300.908538912736,54.2724948377475,227.083185122256,47.4736641190636,864.721410725872,173.952672526482,151.95502926326,25.7771637147542,660.402947754653,173.150236583658,341.507607085152,12.3627489166554,586.932647175764,53.7997755622963,112.267474161789,58.1202362572336,617.775670041286,226.508140127533,1450.43231842542,136.819481285259,455.683431298956,-4.29482157602944
144.898731280227,-15.6375332106076,888.466444863837,188.445565458807,838.530585246224,152.718345343388,608.68288919013,54.9359214360591,295.551961310953,46.5353783375296,220.663121638992,49.5084919993822,867.505525917024,157.484382207882,146.688952068189,25.3395485556215,645.260728906653,187.61470765948,336.509391309398,13.1674902335119,586.692341126077,52.8952817832078,115.670773264152,58.0426803094454,615.298244542385,227.741055684211,1447.45321606103,138.412173634728,469.149465420493,-18.2796529464005
146.852487810874,-16.0643817767964,898.849585711762,193.195333574488,855.365109807942,148.437620308603,627.28064207679,52.4484805935027,313.198955774707,43.8038543844663,226.840816687721,47.4984657694816,876.801417999211,164.705535779738,149.610763503549,25.7733469818759,666.356858649748,173.769182946203,358.84496561724,9.00993198927252,609.108743341743,44.6422956180058,108.042389682848,62.5331257341252,621.936099420023,238.172308227819,1481.52379183829,135.707294123246,459.69627705535,-10.5801828684703
150.032593510806,-16.3506849505967,916.371961666585,190.243030516725,875.838616798623,142.239918132703,647.66987051914,52.3253459506368,313.768053031225,45.2501804596144,233.904387798163,48.40360531654,901.633752818715,160.908408681067,154.270168365902,26.0551727905724,671.055021110985,169.630287561098,358.240168334969,10.1318798070145,609.126349796296,53.6199893323078,117.279162742153,53.7940447979534,636.404101413246,229.545443779256,1492.00932143676,136.691514469198,470.210814538982,-24.3125187121641
143.795747339567,-15.5041080996929,882.632748956453,201.203632110346,864.532466336191,144.98562531975,607.025727636039,53.7572162704167,311.352879666776,36.7586686295808,220.117887758762,48.0352612217468,873.678188433557,155.967579796034,146.974234755173,25.1028782159578,662.369325615551,175.624075762482,340.350598224852,7.94786799899967,585.105761612733,53.1372817368513,111.763928951767,57.4805065482118,607.29873095409,232.890349249871,1476.15941298056,136.950463344676,476.477674705164,-26.2495242891141
146.083676428049,-16.2250602168554,886.273241253169,205.568108081775,848.474895722127,150.153723337193,618.134619773677,52.8151366939677,305.100001822762,44.5037016229315,221.235184148293,50.8691516218994,875.4571490646,160.42985876127,147.822071879203,26.1241637439235,661.082335962266,182.546359622438,351.42426380377,8.80052510346106,595.149517280193,51.4717812265953,119.251740536293,52.2269907528843,621.159861552002,239.480716928112,1499.33478532293,133.850877778019,468.95411610619,-14.0067584733529
148.55484296754,-16.3281406087736,911.150421896616,197.360236018282,861.960332343215,154.851074332465,643.099124664524,51.3878963320314,305.077452163945,53.4968686066134,232.710404631135,48.4594722629536,894.530331970063,162.534200792304,152.584032786905,26.1117476734811,664.471494809828,174.302080083005,364.540260281808,9.84120760984237,605.472228633514,55.1772744323207,123.028151325678,53.3817338660942,651.616098637287,234.061566302698,1548.72412798197,126.74420673049,461.459145100847,-9.98800002129015
144.820456893163,-15.424499315533,888.638341632525,188.277479355975,859.737961260089,144.334601546662,607.868527703144,53.67223243742,313.892653249652,38.9312300612322,220.119170775562,48.0311999865015,861.388809818405,170.756694193922,147.141956235796,25.8895967729055,667.860980099885,168.145465105123,339.007596225506,9.30246643714099,585.860024011293,51.3961338106649,119.59976453231,52.7571114441194,622.197393058527,229.903365070628,1507.33317166922,137.282868885794,460.479182717761,-15.18262853709
143.518420371855,-14.575907347616,876.898694713242,204.306192988874,867.739134093811,147.073618200063,616.365698665824,52.7602057879808,302.000805975038,47.2078071305603,221.081020641887,48.800285052663,881.828620910457,160.105410429809,145.983095810272,26.5575992948335,668.074492216861,176.24954853755,350.970468772047,8.79218088464896,589.427531077046,52.107185619213,115.026550738575,55.8816325259287,614.12633451969,243.836162407799,1520.94209835483,133.477592267944,479.809593932082,-26.3101926643056
148.184180437921,-15.875970265771,912.272085248161,195.118385571176,875.771028514887,145.599571717241,639.283716478239,51.2857623056173,313.415648314356,46.7930890978166,229.552844934027,48.0971534206188,904.486239648195,151.137938958417,151.724035163653,26.0325163625163,663.824523875833,181.764563392402,359.122097869173,10.9978352742381,592.159759502534,67.1883554864953,120.549817627053,54.6719517972218,633.014026875335,236.606467409315,1560.12207882966,132.238504542628,472.903492537804,-18.3155466866417
146.406379374114,-15.9806209353983,892.702014531988,195.021531026494,863.024619987291,148.86078119924,613.470274272238,53.8230467663783,302.516701315379,48.7005448853053,219.347481545728,48.8475792542281,880.195325453834,162.566684260101,149.155049515244,25.3084467137953,660.759636478452,171.677175139969,341.377172932094,10.0581433715093,587.180076488467,54.5067263310734,124.385134645939,52.130665107558,618.644250067604,238.486555518856,1547.98399978477,131.014896455862,470.894888897038,-17.3235196764562
146.248110009885,-16.3831686234251,887.913268421223,201.392920552516,870.967046481914,138.330596766834,617.281979980334,54.2836419427066,304.523270761855,47.9133195342656,220.617364493632,49.8041169991947,879.202104049361,161.309552889586,146.410445737706,26.6943682820387,665.517971111895,177.643107479539,347.080020467999,12.065614719635,592.792595536755,58.2046655549525,113.969234955929,60.3674765032336,619.372020802686,245.405527735124,1560.49705748566,128.685885660157,471.888498888505,-16.6944239125018
149.254999308691,-16.2087661105645,885.373289908048,210.298797173589,883.132220640945,142.568885375021,640.365641268403,50.7900061753646,298.257746254162,53.4740384370748,229.06429938103,49.7845954891093,905.108134589398,161.858739011299,151.799751932628,25.6437760484948,680.470084553638,165.220962870112,354.747715329828,11.452512054315,601.096902559574,56.7451385792784,115.518961808261,61.687853391142,632.987359406109,246.859249974152,1592.81037169935,127.838598544566,466.327087566519,-14.7868604819322
152.350490139526,-17.2985962285155,918.09494815454,205.13950741663,889.22800986873,152.427860282512,642.319914193784,52.396378975539,316.535071053122,47.3673924341626,229.632366981824,49.6301556604904,896.274372302363,167.296687677988,153.75583062661,26.0422633943699,665.92312230893,166.67778172468,345.382697076469,14.2570126052224,597.450230993104,56.677877597786,122.09839516323,56.1412360215618,643.140802791426,238.798767408881,1578.2527014911,134.042423491692,485.340722052221,-28.4203481676149
147.178989261738,-16.8639934303094,901.855537281634,193.234957618497,857.935029202827,154.062745577737,617.412756463229,53.2764588089553,306.775513354455,46.7336398804587,221.612956427968,48.7799006236279,893.168473758256,159.437842133618,147.565660639787,25.6916384598507,667.471254656655,176.626391400492,344.759414162157,12.5593935625174,582.765522365436,66.786029138639,117.611819178761,59.8999357046024,619.025602887266,242.966677977337,1579.53460850255,131.306005542482,478.741007601247,-19.9081863634076
149.094371611523,-16.1028789185565,912.088387694342,198.464118978483,873.888787835405,144.942098627168,631.5815500842,54.0633923572583,309.006263887084,42.0943776897446,226.935306676185,49.6813503155738,891.045848458793,165.064729213448,151.777923976305,25.3137076366713,665.740569744031,177.743530206827,363.472415296866,10.1914532034341,608.122080739621,51.1343551124043,115.801759269128,61.3825128834119,638.757246015183,241.776875399854,1608.42705087044,126.867930619521,475.087817451126,-14.8101295355821
151.623213924377,-16.340772971084,936.821433364895,190.905277907027,900.657263908889,143.520495104625,662.157113025436,51.9334456223935,332.84515615149,40.1635466500817,234.796955911785,50.4824174756635,909.654813108545,176.076368230293,154.697348661619,26.935624203932,673.06644353776,175.8289745415,369.74886498277,8.28239823045726,615.664250239003,57.8981320214334,121.810373645204,58.9458758969535,651.944667406817,247.984217450187,1635.81270621717,126.438152064825,475.59549951343,-17.0817821907684
147.185074274119,-15.721920283723,896.706312049074,200.124680376765,873.108059967671,144.945992880617,620.86089877152,54.4385760896138,306.227386133058,46.0693480763958,221.067376435138,49.4684017599311,888.029016226641,160.357624149525,147.664076685355,25.9499731887178,665.839749076951,172.711925284321,341.248195972587,14.9400971683535,586.942064567556,64.4206701546552,129.940165652685,54.6673895111011,642.988989614322,235.796537774704,1605.43918978087,128.397179685789,487.987445862795,-26.2365283673959
149.8998783406,-16.3840502476059,904.628772447133,204.105631103318,881.922821723289,146.976831576782,632.288593073843,53.6775752227606,317.158393972971,47.7561471785398,225.801215168563,48.9361550194238,895.220482504528,159.927790879205,149.418797563088,25.9974582943735,671.269355130466,178.015349034574,365.882373303952,5.02034261634131,592.9395479313,62.2664112334118,125.562416627423,53.9593502846906,633.353068876337,250.960937616246,1622.88325481782,122.392132184132,472.267637530469,-10.1995475057892
152.324311864988,-16.9930241799665,913.690741989189,206.976245313885,885.130698118033,146.738327040096,657.222704967223,51.4716899098761,315.495915784615,47.9222151751333,232.478241902244,50.5676890908471,908.214825428226,169.427652340781,155.634523567462,25.7198284483029,668.201197171915,182.02702523677,366.780483081694,11.2588151610195,620.388983859718,56.0816076147648,127.988037603053,56.5725045416575,664.053976376061,242.328887120888,1652.05639531571,122.608074494943,492.893095215769,-27.2093480729668
148.864774484896,-16.3181401983619,913.252608845268,193.661843951675,878.187663382472,151.586367208869,625.046210139321,53.7434799092267,310.574224904184,45.4557733928543,224.231541092629,48.917266801194,898.000726486476,160.16539869081,148.867604633788,26.0351174822311,662.59404368011,178.307145847123,352.151957684599,8.28941632138565,593.982689138454,53.8386168773059,124.487979469427,58.9895748573929,641.661374214802,247.587600654642,1622.20166553306,127.236287665496,485.80716872858,-22.2610668198936
150.939414363029,-16.4964049768809,896.946499968043,211.316852056305,879.165225425249,145.867029752311,635.647492184622,52.6678482313127,311.142563847434,45.7493414705847,226.132014510799,48.1867554521571,893.362640476728,170.308075759617,148.542722237826,26.2841684898647,668.388306996515,180.037339605779,353.836033952948,13.5157166828769,606.05111920406,49.8111253437024,124.74877331721,58.8397893090042,650.7407122463,245.114255120808,1629.79271724223,125.224305416294,480.702229249365,-21.0603616945379
153.996785163743,-17.0221723131173,914.867178419267,196.215639826423,904.689485893034,144.536794018644,655.120089428333,53.7957339705032,323.483776065543,44.6042075110912,233.983677931148,49.2851501451605,931.102747334452,157.21499648659,154.467318586734,26.2379134277282,666.56418408257,181.569033142259,366.781637005924,14.0276785630366,618.16688155999,53.6173802650605,131.733383106752,53.6109730166662,657.778148349751,252.328751567175,1661.80842647009,120.224942662644,500.900333596627,-25.0098113560949
152.234917465211,-16.5438601519284,921.751347829566,198.601960014717,894.725576434207,151.593611832601,631.445191435064,54.8378830675738,309.978173497964,50.1283341103404,226.588324178478,48.0744374427367,908.152966377757,159.559204328988,151.323218004143,26.534553054769,654.33942880049,171.387591641832,349.053622637504,10.2736669236013,600.431419840969,53.3634618930274,122.498950507309,61.0018848643768,652.259315818906,236.623584445275,1633.95097310895,125.818670721655,495.899247559965,-26.4328737584921
150.022270101082,-16.830132953826,914.073998474124,188.57544729084,877.705726810957,151.927999784066,630.546764756018,53.1715579257205,309.309101740553,52.5303289620735,226.217827661075,47.3982745935372,896.308220204091,161.089474562334,148.092465163564,26.2922883548104,653.457575117014,182.699158707742,349.463982747429,12.2965455520197,602.619143324414,56.8455002881911,127.388470222429,56.6174139598016,650.082570098739,233.469791868455,1625.69618750654,124.966875360015,488.503003661862,-19.932285236753
153.250099607991,-16.5053465657127,922.137231787677,195.886349193076,875.039888760329,152.4403931337,651.126724028437,53.0734710233894,324.627177708937,42.1536477782872,231.196400886088,49.0756594656758,900.169028519055,172.900708688483,152.755544106071,25.9113893036675,666.362260979917,175.124801035313,363.177500305977,7.63658804635206,617.326036201418,49.993056669694,120.977190381409,60.989425961301,654.664281997971,245.370168448751,1651.2632945307,121.853207978579,475.628400356676,-12.0479891249111
156.545120220794,-17.4882065067941,950.996741846737,193.302502887093,900.45776334403,148.094788107537,668.063254027411,52.8318366130275,314.639770269777,52.4773031770462,235.114021206207,49.1676343105203,927.332064639287,164.268127380976,156.162108492571,26.1445830820378,666.615643664034,172.953215681652,353.802984758647,15.2380720462163,614.194150379823,53.3135595126954,125.630535508659,60.4793806204852,667.145463349836,239.069127710943,1636.71288544151,126.920393178955,484.39937478123,-18.2794273933903
150.633684608795,-16.7427237924928,908.855249725417,195.856526251835,878.858519039629,149.89696069893,632.617940929106,53.2175911025171,317.366086057345,43.9622946874457,225.39203476862,47.7251639422546,895.534547530678,165.054675224179,148.309211014719,26.3103243753785,653.807170954925,178.708843384244,351.04794658297,8.95602941302615,604.922453649767,53.6135040149027,123.180559807389,55.2791664167668,642.751867290693,245.930829774397,1624.01761802784,126.713192087873,497.20701891213,-22.2244605235909
152.233199418966,-16.4836091768179,914.224544056137,198.051374864401,882.770199187827,151.003168645105,646.398654545331,51.5043382217052,313.090765071813,47.3410893590207,228.202591472627,49.1936890749037,913.240506621672,161.213231806781,150.844618637682,26.3198780404658,664.648680305359,177.653831535208,364.107428252785,7.49815979372165,610.021013639826,49.6769307420138,125.164051922246,55.2924895753952,644.751979764547,255.164630502767,1636.81245417683,123.157281134462,495.410985970811,-23.2704332925245
156.394916221038,-17.4907658010471,944.157765779906,196.967733755407,897.925201544347,144.656318124416,667.69345415243,50.1974543141231,327.357963759028,41.7066534651686,236.573149390956,48.9394046490365,928.657793760262,163.210840213936,156.663440325441,25.3974206313046,673.715184935135,167.947293074369,375.799006960061,5.27525282100101,632.696079038248,53.3468334012201,128.249885234361,57.6937914454612,677.37451160717,244.857854184831,1666.10266753535,121.216821801371,500.54321597026,-32.5725607119498
151.736711946038,-16.2806916423471,919.651115568295,191.980501659661,887.704634091127,149.621496687019,634.622050297379,53.9587683521305,312.34932418015,46.079577466939,225.667400112004,49.357390743459,903.797216360406,162.724399374992,149.666090799474,25.8609721421398,668.545191455704,169.429460066183,349.681545059634,10.7584709531395,598.325959596764,52.5924378605031,122.431792789065,61.7785362746782,666.043404682652,230.072463322666,1640.2549319489,121.307367438049,490.786615975247,-21.0564940886108
153.401771399582,-16.9152699276769,923.714987743554,188.305128227005,883.490471606842,149.518682563455,648.540859009668,52.1276169248547,323.930333331289,44.313785058497,229.050786425194,48.3891381681919,902.964971416977,160.994547918921,151.220671421258,25.7253158315609,662.948112239033,174.594128330808,363.55490089758,6.92221673183945,599.404647150952,58.6644110284963,131.546605962577,53.7403797149152,660.459432213766,237.951083272034,1645.49426379373,121.023215432938,491.232187840168,-18.0665026594761
156.199352076589,-17.2966890072672,941.631439090815,193.604011644803,904.566288153322,146.46752175931,673.957863387628,48.8592831804488,315.937166793079,48.8823837214327,235.928287023789,50.6267464427531,933.660123289349,157.801120072028,156.596322085931,25.2303648287627,670.09067231605,169.771995700515,372.575608247269,10.2564032656324,641.877742845136,49.869343569051,124.443966077445,60.0184143298688,674.712716430278,247.393722987036,1675.06022251953,120.752009627432,497.606200870642,-25.3834464986276
153.85864063838,-17.2540678309636,919.622020046702,205.734898126076,889.178768882578,156.825517906239,635.073463280591,56.4955195820043,316.446864818991,46.3335349879128,228.660644771097,48.1000306010713,903.170590942847,157.772837026848,150.693526317999,26.1600070158208,654.559513888272,168.09187219388,352.942963763204,8.48826720910696,601.486604741033,53.7941188139224,122.642686833417,59.7096959556547,657.214852603874,236.297519230319,1638.94545768781,125.566610187354,486.115105364652,-17.6716697219707
152.995436328578,-16.5682004632237,910.095474671552,201.20709861375,895.339952822269,142.753614843869,643.25015763525,52.0267276739919,320.502979108255,46.4271096876263,228.497867558987,49.1704903242296,907.50460601597,161.006850072897,150.225487886238,26.0734951093974,663.328052732991,169.426904235379,357.983101997055,12.5206515997295,596.734525614657,60.7914514456408,132.57108450027,54.2494970589879,661.351880884506,242.776521946335,1649.25047044571,122.211517116428,491.86677598744,-18.7028280854341
156.334364198285,-17.4953799810478,930.917290286672,204.941502074502,901.204300758003,146.504892427706,665.049766829157,53.6298865500701,313.917115230748,53.2958085367037,235.723796959618,50.5407549444913,926.97898853123,157.415231740303,155.596701916888,25.9388545034545,661.22841240437,169.963160042592,375.510181079243,6.81283358281145,638.355921065452,45.8849051859214,124.677027158128,57.2713177515138,693.976714508954,236.152273440098,1677.21627335135,120.811758662094,475.410626089454,-8.77921626915229
159.67065465922,-18.1063185224509,933.142563782628,212.873784964826,927.511040047359,133.727107590743,675.04841748702,51.4894321306901,343.4937840532,40.2578242043198,239.727313296744,48.8364637207105,928.23102797866,168.005776572345,157.821523974539,25.8901886098937,650.39814352683,169.225553130824,363.128404236029,9.33007063727169,614.095658207744,58.4461542492931,128.445499436347,57.2277656457778,678.100427288239,235.550453419319,1664.33455446739,120.226017624584,494.23054488088,-23.7502105705854
154.56780638664,-17.2873720485662,911.674644010979,205.749747512773,904.185997662638,138.342681763254,649.631723178331,52.0504966439026,313.766265818204,45.229404787917,228.569341343903,48.357042329744,909.878700372015,170.025318429297,152.062699091883,25.4385423349094,654.50994447133,171.20234137336,357.312505850196,7.96586561665021,600.556507827074,60.2534017439708,128.265793044102,56.2245303429256,664.118633863109,242.284299082071,1653.00511057083,121.996763609012,490.312409784744,-20.5743676490258
156.550544800347,-17.5080326472269,923.109735886671,201.400488673321,911.801695597204,146.238806078057,670.753682706847,48.9682110900509,324.28806153336,44.0379774777432,235.664035819911,49.0270924800404,924.957390673668,162.711871228614,153.522601280299,25.9444273144181,658.575810200431,169.2100233692,376.607611737316,6.52776391098163,635.152808123775,44.1768822022964,130.445419009959,54.4548715911824,682.941595554247,237.887234715839,1674.73883316722,119.864213927306,503.688093682285,-26.0931215241918
159.07291432042,-17.0720993583223,946.057311067846,196.636589667727,911.140629337071,144.984754398452,694.97113127871,48.9302728028368,330.406910472285,44.4660043389349,241.944342121732,50.1570403731631,946.464540903706,158.75003308568,160.337721480866,25.0431092219177,658.960497886058,171.93642263263,393.142099844973,5.10530172159079,649.395378034,46.4952407393378,146.265494443669,49.7459211573828,698.067355128181,234.641622056664,1706.30917403068,122.994290030426,502.818408772676,-23.9323586859991
155.65560070448,-17.6189078788996,919.252552446306,198.236251722724,898.825131004094,147.823940540928,655.176336482419,50.8342797329947,323.382347284947,49.314529775758,230.469952183413,49.7060940247045,912.635515488718,162.336869444729,150.950159180741,26.5523791617629,644.301244917785,167.450680225526,359.783681927471,12.348879360762,633.636028069749,39.19062527539,131.401510653458,53.0594781961806,670.121640354079,235.513942408206,1685.29926896898,117.264831852391,490.405727927383,-16.7291103159405
155.987968006761,-17.6739249865143,948.572100053561,187.691253728966,897.169737209981,152.33513580614,661.230560730467,52.350653251034,325.031928417941,40.6615684325713,234.108889724263,49.6341595958648,926.779203979485,160.794875187447,154.42769994513,24.8468808199033,646.525762031978,174.762076817773,366.976310619338,13.4792069710363,629.152469150664,45.7358541381866,128.930387720745,56.2025406737478,671.046977905807,242.245550557322,1690.2657967738,117.822091375189,501.46491126815,-27.1692271582067
160.48133432405,-18.6921955457201,950.772653476211,198.036010226462,908.282619454526,152.069395242035,685.459332210067,47.9569630863611,324.188531829903,51.5994711618518,240.587680332581,50.0865741466098,935.65777639468,158.12272179722,157.644813783026,25.8752362601347,661.776512184676,164.77333563805,385.932476486158,4.90541852477921,642.246777609139,49.2905114575113,134.704200185902,55.0404644073741,695.950347292525,234.387040360887,1692.15158808388,117.121092396002,497.746406727747,-20.4741183102458
154.256009732418,-16.6296986999513,930.513025436138,194.803164650155,909.12284677394,138.878791001822,652.953077823053,50.1548353971648,314.191422889547,47.0846192245138,229.221423370783,49.6331889189491,915.647799342648,155.101296830761,152.887535391063,24.9560127898864,631.11835900992,172.095050269343,349.98120258789,14.7536541257835,612.089931814959,52.2168651317227,126.799082938997,60.7470194638995,661.977929940081,240.5140777636,1663.8306880304,116.629581290357,492.836438297872,-18.0410848693907
157.020583265946,-17.4396864693462,937.933997619697,199.068987682398,908.518137349823,139.960308193798,664.429420421239,48.9492343563491,324.645617436984,45.1509455971842,232.960261495986,48.1135136027581,921.557495754569,159.904548512211,153.558045554785,25.8143307312803,658.946963609539,161.830206882726,371.590567378722,9.21658862378531,614.518488214737,56.9385864893817,125.756781510409,58.0711434589342,680.255189558156,237.691228294754,1670.17249121024,116.689809641092,495.094581608075,-17.9635395051675
159.767873351107,-17.9406528817299,939.386170955488,209.283633951533,911.459508598633,145.467510594188,685.342365077279,49.6049317442334,332.596804985322,42.8392772683005,242.785813374901,48.5704212758341,947.191475410935,158.643851935183,158.279730273828,25.2079960457968,658.630257786284,168.790301815631,389.167768409829,5.16804738773591,653.791366207203,40.9756718259915,140.596957374408,55.5407261003716,691.859069814606,245.661172788014,1701.25924220582,114.768655143868,493.249647182708,-16.8863405074227
157.70970386383,-17.682827813415,919.378252590804,202.382299687059,909.440967773633,136.050567719187,653.975376735414,49.0399738330836,325.386872038527,44.8687501789772,233.721857870989,46.6214839775868,913.908600079731,154.684698975372,152.528356580372,25.0131758540931,646.125306542249,167.457075361479,355.691953778861,14.6533969784108,600.490165910708,55.2707839415938,122.418518402863,64.0324603885786,660.842302319182,239.647218078248,1668.52841406265,119.975223654234,502.230712533839,-23.8387239734284
157.211648368432,-18.1692699120915,937.262381244324,186.832791007444,895.616361903563,150.570722371118,657.172326279404,50.6795794892913,325.209310571472,45.6283839203141,230.730541104534,48.8559005638226,912.516412909477,163.611473854949,152.983327247587,25.0170628147024,644.410328550476,174.098018352473,360.053728454779,12.7831609886823,622.896318377937,46.5835883115196,135.181645903091,51.1133882037054,671.884785374235,234.01061602131,1673.28595778281,116.106344810604,481.884630233418,-13.3369100068962
161.292968995605,-18.7877294427233,939.469439620995,197.261971670072,917.634698894195,141.824682396743,681.56072744645,46.7584321654238,323.075655718409,49.667710999687,239.237278622732,48.9119099046912,936.395607665375,161.851621212797,156.320161581006,25.9624186970859,651.42359339757,172.276476626663,374.257848502218,10.2399960617591,636.48489763698,39.320283878544,128.532428126245,58.9788609214815,675.843284664648,251.602322769283,1688.28699018908,118.138049936428,493.838815750229,-23.1923291311884
158.659768382121,-18.2193551932315,947.306705029909,183.18071921173,907.089742245099,144.375481938318,657.458222736108,48.9382265807974,323.386613771608,42.1145436308129,232.693878433311,48.2593567403139,921.308202412567,157.150580313931,153.671740634124,25.3496205590853,659.321185285616,159.472163259586,354.793586460808,12.3521506328223,611.922777381421,54.455643576828,123.469844959103,64.7938572405205,673.551220079273,235.068538072301,1669.22255260737,119.900555479116,490.608212243219,-25.4385714748374
157.965359290945,-17.8054326403459,929.745417731851,190.214508392273,894.536126630249,147.395520168861,662.587988687308,49.6719610475665,324.317462563439,47.09847121155,231.606414434704,49.5925626691394,924.212074282366,156.277715988125,153.251259325114,25.082383070375,655.460155805979,163.827472132073,364.655803705129,6.90557360036846,617.202409489434,52.3428962610286,134.838440211979,50.7206266532921,672.000351270011,243.160538198001,1668.71732449594,116.227968231471,504.077278293788,-28.2101064376113
160.706833703771,-18.3344663824262,926.847133981293,212.25474345302,896.165159430171,156.718159827354,685.942513250809,47.3795950494636,334.935320313707,42.1556649496083,240.304586164543,48.3918026121838,948.548417511909,151.144437148615,157.922692092885,25.433666606328,660.259592013041,163.467916939477,380.311216193714,6.17665531907208,640.385204249192,46.0976674125082,132.077683504901,57.2001219663647,681.498818089944,240.846262550027,1700.12788349576,111.355181935124,499.161929874199,-26.2192218105622
163.600271478454,-19.2370517066965,947.495467974725,191.995909121912,929.630088273065,137.52196040212,678.372428895841,49.4863455993201,329.619378354972,46.8603468692467,239.374302241145,49.0042768688008,935.65011505559,159.517593291101,157.828591258555,25.4139612822134,654.295838868803,163.924896878808,363.000994292188,8.20230550946114,621.599364216854,49.8824839382947,130.876503630471,58.0028016543413,669.599246103691,251.047110327476,1678.38282393894,116.035506809479,485.933406955274,-16.3196702783177
159.90943682981,-18.5729267618685,934.628371269317,191.904088812973,889.871122751836,151.558085492637,666.966291275283,51.4865151824168,328.382556593683,41.3100337921296,233.812535707601,48.4608404042715,917.53151552906,164.65379827252,153.50886097652,25.9671716714415,626.790862656598,184.738462178342,365.365256382291,10.1701843137233,610.893713285689,58.6052040943615,129.397419710531,56.1655668255085,673.620631490888,243.908142145192,1675.17320505045,117.582040803387,494.619192712115,-19.0935621803056
162.392657880153,-19.339518787541,950.972544261753,187.091700677698,910.383100504703,147.056326631569,687.424041866473,47.0392780746809,316.911220019829,55.0057647040438,240.731230474695,48.768834051567,935.625241339894,167.035483223695,157.85674241973,25.1014478791015,649.190557601385,171.522747712068,379.625543639077,7.18201043641039,631.57413463399,48.578477793519,136.841370290347,53.768121714073,709.82177743647,230.694098311037,1699.33363395093,115.629632161031,498.218342233618,-26.567074209863
163.688508712095,-19.711235134926,949.663096666319,200.805601432767,930.414206755521,140.269494628322,674.68224941041,51.4929740324049,330.956867905316,44.743084484656,240.167274622831,48.0702735808571,934.26481933652,164.820248624429,157.342304506833,25.302177012854,646.45917690527,161.708354217567,367.325325516584,8.39999521725648,624.129975800026,45.1719762470371,123.10030634492,58.8642478036364,692.038641909892,233.490106226432,1686.46373312886,111.688895097768,495.417055704024,-20.7770051913377
160.32975918223,-18.2439557632068,939.173900658426,193.144646809896,902.917919279973,148.019052324853,670.060551907752,48.7352740731368,325.83605710283,47.4376509499578,236.318981416386,47.9088145180658,915.358646996106,168.367624187385,154.074666095538,24.6488913372802,638.551337080721,176.196021906008,357.843505000049,11.1713226028044,619.99339812082,48.5886872168926,135.310306791917,54.4991400562448,671.981796628708,242.222101414418,1684.73437126929,114.669821475989,487.522627780878,-16.1092948318744
162.77471784045,-18.9680051432413,954.321286464408,191.979267458469,917.98966264358,141.70876883363,686.538774256694,47.3008139274805,334.626204647514,42.5415584430587,240.774564955861,49.2694655883635,940.789617952453,158.548159868123,157.44533459514,24.5953410569246,651.462477547435,171.844340457431,389.21226762015,0.820526484026577,635.340294709285,44.947451172921,136.820399713655,55.2232072757865,702.975398065788,230.290317166768,1707.36075610139,110.924502602136,503.342128557413,-27.3393031021616
166.393540392355,-19.7854853757685,942.106250632262,203.106910377668,916.238256656652,149.07354075243,697.6832948083,47.2699128340997,337.771188998961,45.3113009045662,244.025584227265,47.7415606851323,945.651155216415,163.347157034167,159.92099296479,25.8425313019934,655.039326945236,163.551765251527,370.788171601687,8.94387192632129,616.756106197171,59.7998270194407,129.802668885051,58.8209098349715,677.072957736654,234.820405400637,1691.02733115839,112.998463125648,495.241297206248,-20.2620207037498
161.582220952268,-19.2741049245746,934.398004469516,192.102241207896,891.690791383463,152.958623593265,667.088808358101,48.6236851404307,323.071367870975,46.4261744081727,233.541091420033,49.3444285719412,913.48630445775,164.466653046007,154.290578195374,24.5920076447597,638.969048969605,176.963546619718,365.220510142971,8.989178415104,626.602791881113,46.5222442769471,123.785045962364,61.1117369735663,669.270486147401,238.495576947252,1678.85219003859,116.604731815737,502.891890144299,-20.4457581602023
162.993054548918,-19.4703742005674,944.570904444114,193.346244635943,913.762359746242,141.972569665823,680.820788981558,46.7319547075905,337.24119014856,39.6547042172749,238.174192854155,48.9774113540068,928.928536864181,159.776760179093,155.540502692695,25.0478754722006,653.172156622477,174.310944458539,364.62607227707,15.8179268749243,638.674087954891,43.9639381337054,135.757339754069,57.8240494843811,683.606946157308,241.78539653153,1702.38166781421,110.519631375915,506.772160316456,-27.605887615145
165.499607271414,-18.9701241288057,962.834215608374,191.355757943484,909.954541660108,152.443240031902,702.955989531553,47.8611882765777,349.295122276027,33.569020133851,245.451036602322,48.5307637786907,952.546069224364,161.610245934687,159.312460197502,25.4757607235018,662.107996572524,160.048510589083,374.723012089499,9.32276443276915,637.964474279013,46.1347378239803,139.268340746134,54.207842607647,684.880143303775,243.180788432803,1697.82605793384,112.439035016439,500.131630271381,-22.9929187319457
161.036436233292,-18.6470192701776,920.204075564602,206.53425582031,900.719183505251,142.853489165405,664.584600273413,50.4711437260846,325.073428412359,46.7946196775437,235.315809376217,47.6797189443555,922.325252592621,154.97239927477,154.537804367163,23.7089406813296,648.847727655247,174.249809986317,360.897584875901,10.8141773854848,622.818417770526,43.9875403577481,119.534261468712,62.8136573789803,666.216605394983,243.840619988129,1678.07209932881,116.209199321362,485.327722576697,-17.3804933497523
161.794994820227,-18.3401405586108,938.363192042789,193.146302003528,908.460810577028,143.876872933572,681.085117514605,46.7324714754551,335.884760460067,44.0761834798792,238.134180174783,48.3731042532274,934.854136722682,160.720316296242,154.424122017322,25.2329917307129,669.764021454526,163.588825225796,374.665634329943,8.39433899573258,626.128333529897,47.1120444768046,132.259395836575,57.5745350110278,683.88766140964,237.834447067558,1695.22535013474,112.915528692284,498.625124514909,-24.8411174478258
165.733489829882,-19.4482416413365,952.689252805322,197.884905662562,926.959443586754,140.402773083129,700.418391909893,47.8826870598164,345.969576078728,40.4420173048772,244.518633195189,48.8558550232537,947.76730798234,164.394565746243,159.02194658354,25.7614517510716,668.615836894017,167.644328773569,375.18375213836,10.5079353092704,642.598287861713,39.1301278569823,140.234168473191,54.1287591626383,696.483999202481,232.285604713801,1701.90002219042,116.287632351606,501.343491398193,-22.4846511771046
161.659744049208,-19.3936447063425,930.089153254747,197.853988095663,913.033184270205,140.710533464745,668.178770797842,48.4094967267629,333.97722652162,39.4651532218513,233.465247831515,48.4740093256963,921.369330949549,159.155300105424,152.716149169613,25.2819712440041,656.356215713862,171.032103243424,364.790486222883,7.61451673432826,618.858234840003,53.0401961537941,130.172557588349,59.0881137384982,671.79949196168,240.765490913485,1689.24486174979,109.574388042569,505.389391679005,-19.3569662163599
162.733178021343,-18.9613057055903,939.454255262079,201.665059989471,891.876996169243,152.79219097064,678.274930758234,48.1086230160246,330.191664866326,46.9028117503593,238.869527774026,48.4041284985693,927.402365765242,162.121383873165,155.249423339525,25.4198950444742,668.01010360373,166.484135742303,371.614578213603,8.48808296408403,635.522199800685,40.6886671185562,130.386351948519,57.2914812147551,686.612703186982,231.361534693721,1700.37335050715,113.384545224015,496.929609284555,-20.1851516994152
167.204021911563,-20.1006114852201,955.830240079142,196.75528143916,904.315154553745,151.330595058712,703.935795526805,44.8570653054321,328.082211289782,46.7375056765463,247.264446809394,47.7117104457252,941.658300435338,169.39777387905,159.719898504456,24.3310294671344,666.359998644182,169.581946781669,385.23107348076,4.71341792741896,634.250121447576,52.8820013773454,129.594080680346,63.5932319269464,707.997383536012,227.828854586364,1697.20744137515,117.229263240517,509.806593203046,-26.985556410403
161.191926299945,-18.9225484729508,924.811402710268,196.773861752392,905.540691582646,142.945195240861,666.498555679832,48.7682161537065,331.405324001922,47.4447272115799,235.545103741994,47.0519092753034,908.610499936466,164.171892247977,152.889111051221,24.3998097372925,658.659943793143,171.885507207514,362.796595874082,7.2570199748201,613.552121222569,45.8573193426985,129.811207529939,59.2682384270982,666.287363375158,241.467024284975,1683.57998665676,116.111629418054,489.642030873846,-15.4010559866842
