1454.4260400772,-2.45967273423378,178.928159571203,42.2742113517583,645.859354445457,30.5483279664457,1602.4898528228,27.0731975343011,155.183689517554,28.1643476342141,571.250326496423,70.7090775168947,376.24902618748,-6.63994922308586,621.744524383967,40.4973388632928,409.136712194962,111.033085902136,592.115421505114,-27.2555028329401,569.877963253549,17.798447042161,171.195776854172,15.4103470365899,111.867098265048,60.6036341626122,633.158617852007,312.545808715819,1178.02695707879,-113.609752966087
1456.51529110919,0.634912544059639,179.044828530613,42.7514658729034,647.186183412468,28.3508989611171,1606.15202609412,29.9598824960041,157.014989733964,28.0484716855993,579.45037915624,70.7084886965806,375.964805456945,-6.17065023914503,628.707907773338,40.8533894191477,416.788105323154,108.821923442196,595.038117886129,-26.8584100057564,569.48798162479,21.4347221804026,168.960092231922,13.7925754177789,112.73388384848,61.4662173079783,636.940421182911,312.257857640938,1177.21872538509,-110.124920967341
1475.19580540971,-1.62972911456739,179.786366330227,42.7485585779705,650.952883514784,28.9127729721121,1623.1106826349,27.8368846533062,158.895127399699,29.1325879442736,586.995104846181,71.3982587684553,384.360656427673,-8.76348435897538,638.580117644525,40.8990943961251,424.10515296977,98.5636419598124,601.71537731938,-27.922364772822,580.827843845718,17.4441559958683,170.832426863836,11.8793354684873,113.892236949392,61.0889482645196,632.548054562292,311.779581693128,1169.91049580743,-107.121422682083
1443.3799769298,2.58345233293588,177.941982689138,42.3006749636659,625.31902608588,37.4127344565853,1593.45868474539,32.3506191163206,153.738390591276,29.2607637508663,566.936957447627,72.4491499443208,375.285960738606,-6.94815924153522,621.025430410395,40.8444679960445,413.797760533552,103.345808144032,588.545271242824,-25.8075809346692,564.191012636142,20.0282204245026,164.250167849397,16.1873190275844,111.955165560077,61.5254195396549,633.599441833475,310.612198843626,1169.54462099271,-108.800323821293
1448.01260505239,2.85590541570862,177.206187244518,42.6050132981129,624.687902516584,39.6869670136896,1598.89426070568,29.2647890950883,154.253702929855,29.8712788141916,575.194514038472,70.8935022823781,374.62951062712,-7.69872640057217,625.131202116427,41.84950167262,420.848786585602,102.937535660542,590.187248318806,-24.9484817986272,567.866082938989,19.2840592076347,155.173139357894,19.949023503671,111.394982253446,61.3607217688643,635.423461513259,311.77989055806,1157.6509467597,-95.4667369820234
1470.64500790516,-0.0745655381088287,178.668871501706,42.7682360092812,638.21887366942,28.6723091228871,1615.78871373757,28.8949425891306,157.54096846813,29.3488458723938,590.381443205953,68.7620129409171,378.271900994043,-7.49084866968924,635.512654676158,41.4312814887521,408.222714823369,113.145281008746,598.594365361301,-27.5675529901919,577.525161692737,17.9597054908672,165.826392593666,15.46633367377,112.459863064744,62.0854543614826,633.293419964103,311.089414137439,1161.45432363121,-100.309305368228
1441.0736073342,4.82031259403301,176.198653325387,42.6880093064392,630.455765483179,30.6773480514612,1588.82045067107,30.8987767982923,153.072814470164,29.4628356773172,567.638087894512,73.2295485278818,368.899545809109,-4.03630937389005,618.317112239409,42.1945932391478,411.054203272804,101.868189650171,584.523923404268,-24.0970407448773,566.063855955839,18.9075978288595,164.684635006581,15.6184632731913,110.520797925025,60.9158791338515,632.994649689683,311.308620214346,1152.81291500435,-106.492243756674
1445.93234766432,5.43369229808973,175.922141847965,42.8597751278989,626.174818566559,34.8955531853518,1597.4483541112,27.530314950561,154.610798043361,28.8200678069957,575.456505040394,72.5788069374047,369.365590955745,-5.06420234862916,624.125419119582,43.1634311583376,409.440498039074,107.034310081672,587.199724276038,-24.6816696675266,568.479351910047,18.585331078425,169.110498544516,15.7172252484631,110.143370476931,61.900317838286,634.49933588186,311.368143432351,1161.75931459882,-119.535505282497
1465.41731311089,4.68639280704595,177.562264820122,42.54469922042,624.176897229274,42.2994494885024,1616.020576848,27.8409920705367,156.201298760408,28.7003149028182,586.216713750764,70.3741518612983,373.401447596514,-4.37760044647622,633.467751151406,42.5186314939346,416.967638971666,106.678114200903,598.727068785468,-28.0894330584854,577.115878453591,17.7783815994092,170.991994914368,14.0627089164111,113.800095009481,60.4201594039731,636.125675784197,311.731148374712,1155.73058066506,-103.981064573756
1440.47994998593,5.30274811856319,174.977267342264,42.5647491552666,628.020977007907,35.0653582585419,1583.85780825546,34.0661524464681,151.779751351892,29.1905415995675,566.071781939192,72.1513165476224,370.576869729579,-6.53655032340446,614.308640893108,41.1128991637777,408.719338614777,102.320293969153,581.87873379934,-24.5792378248012,558.308161270165,19.1909186365986,159.233604705238,20.4507406205168,109.053535970977,60.6379996530552,632.750211039886,311.545660830509,1135.71873644407,-104.180404973788
1428.97921866326,8.2405385331281,173.753971585173,42.8391075259969,625.200015584123,30.2831531574813,1585.43224163728,29.6409326002796,151.931121361644,28.6556458329747,567.872185845293,72.7461845637158,366.557965221375,-4.74291748316972,613.818776402135,43.8282334121825,411.995996046295,99.4933885942948,584.197035183165,-26.1415515512347,563.257391455094,17.4257047435701,163.238145115208,18.4822708044532,109.462749730379,60.9448193051555,635.468787575807,312.02568203626,1131.43513247478,-91.8869139612261
1447.09414753622,8.93905034481915,174.452793955686,43.0149486811532,618.479502556708,43.4818769005115,1600.36331194094,30.3488353017892,153.677001583937,29.9061029181675,579.454843594427,71.2440068748604,373.803156743274,-6.54410364368588,621.6579600511,44.8519853765432,399.556610286319,110.917571928281,590.605160377164,-25.3035404158918,565.566308572527,19.2215964792254,163.233714594209,15.6020067976134,111.732284513389,60.4290006983601,637.689366027575,312.747663924133,1140.4178563525,-105.657070916573
1470.80577032605,2.28584779092523,176.877452883118,42.4803963639882,635.836358194584,32.4630714579353,1609.25427259675,31.0033623184322,152.149204241051,30.6585584233687,579.08371677417,70.3132707485794,368.510144939714,-3.26473347379293,620.057381881687,44.3602625405158,402.360690916168,106.048561161902,590.170534375495,-26.8298057142443,560.744958982583,19.8896796618492,162.297704687747,17.4443419632038,107.533400362023,61.0861325093852,633.520535048594,311.958637195102,1123.10057787142,-88.5165878070432
1424.18527971732,8.0121581015664,172.745378133661,42.9544438200192,617.63124813004,29.1940230593391,1580.3779692237,30.1240827589576,150.048897420501,30.1842532190667,563.299017873825,72.2918613713792,363.658042616888,-4.15470972183417,602.366293430473,46.5191557316601,403.853651707001,105.943235019551,581.951691724114,-25.5149577203007,549.194229383578,22.584923114193,152.483201796353,17.369537093527,107.82158715614,60.4779554574599,634.258348083839,312.556198770396,1130.74399168451,-101.171707302761
1432.8474247202,8.24621707212737,173.242545497475,42.8604967968538,605.93685087655,42.3265209553334,1589.07734940354,31.1009826971883,151.911617250561,29.1551968483582,572.938577284172,71.3010948644161,365.421791898268,-4.30563843672861,611.02461245688,45.3914247811316,401.52007414946,110.492273686167,590.448798636904,-25.6217518743751,556.815602479708,21.9101604361447,167.167549634584,12.290697989758,109.972234576171,60.1129597710761,638.233800719445,313.327123774896,1129.36012969529,-104.079282738876
1457.5076293358,5.79016866234785,174.604659387514,43.0284852421289,613.02414367861,39.7939738911138,1611.76620496914,30.0115763869021,152.399259959314,30.8500852230938,580.916757895595,71.372889678272,370.416317514213,-5.13481738380214,621.94552946845,44.6650151059316,419.806791047909,102.636463538311,601.945495335885,-29.002816684865,566.192321748549,19.6050793351842,170.122741031667,10.7273746790703,110.556909904188,61.9345575747981,637.121131858776,313.663345804149,1135.40893695552,-102.071782273694
1430.64318110717,9.50077281202104,172.920058441818,43.4647820478464,599.12594817924,42.0083159755806,1583.97344455171,34.5970601232038,149.313946575538,29.7350016135084,566.120805463686,70.1397329585468,363.948205690389,-3.93895518296646,600.987125834363,47.1369894865832,406.074679306099,106.155446373871,589.795776360922,-28.2567186458834,548.032045331282,23.6715768924466,154.647372685731,19.4148321250388,108.336814270825,61.4703293482278,635.283220317702,312.771038747551,1126.47520953941,-90.2170941725254
1431.04337600974,8.32361995002911,172.109736427753,43.7083622006282,602.788780586937,41.0391724192982,1590.21462691226,31.8771537048345,149.008089964773,31.6521773037821,570.02173798324,71.8469214604961,364.212386034853,-4.49295770090915,604.237708631152,47.4613121155795,406.396943913827,102.710978813197,593.408872929895,-27.264496775549,555.772338497218,22.6628154564731,162.919772167003,15.9329023150947,108.908996713923,61.4466998447311,634.969939848706,311.969597701125,1139.25192741504,-102.087739700454
1456.92871855643,2.64366790212671,174.370373750818,43.5198151401914,618.28909950533,36.4897957644056,1610.24031374159,29.1066264853114,153.64740046447,29.5815809578579,581.017507172281,70.4837449197738,368.133854357728,-4.7922764043329,615.391050510171,46.3704459137265,407.558220964574,109.112873585013,605.875951567389,-31.5747775315481,563.80302353429,20.1655851536924,163.940388213525,18.8346335633162,109.275087379435,61.9520910715242,637.610674465253,313.459016565956,1136.44128836876,-97.8439538305418
1448.14528589731,2.64132557400727,174.221926487568,43.3373486788363,615.305613518795,36.1645409256687,1597.67889666486,29.1600077291211,150.528495009702,29.2065854614311,565.461577882075,71.1922888239422,364.722836349225,-3.90244917871675,599.977655650752,46.1382564881124,401.494337172726,105.54752852601,594.019732309702,-29.1700974060466,552.526413587874,21.5152382103925,161.267196575058,17.0182123162062,108.631100878318,60.9959019114001,632.668681447407,311.409928845232,1133.61153387239,-94.8417496332443
1434.54753928959,8.18135191701615,174.023045630712,43.4418429447597,618.657830110353,36.9127948024127,1587.37509765748,32.4215636257506,148.89092014429,30.9827021159545,563.811677837983,71.9514238103013,364.014106536909,-3.56954419878795,597.509688637598,48.0774550176248,395.344856417883,111.492757224951,593.53158423971,-27.2310875147912,556.010633780971,21.2135278304319,163.160015942477,15.1429233717694,110.412928337494,60.6141188682803,636.481087358405,312.347707787195,1148.64724277857,-104.823411435463
1457.10821420246,3.91876511627188,175.48761797328,43.4995107518953,626.831094547081,33.6764075147788,1606.74360868101,30.6907265263805,151.585609706298,30.1727318306772,574.402680329226,71.7990649504975,368.795883052074,-3.9219056919338,609.38081031962,48.4468282550691,412.369073037722,111.211895280282,605.430257534267,-29.9864532069721,559.037828249242,23.2885808522049,168.397739420435,16.116512563628,110.571303572235,61.5400643213083,637.361271139821,312.956540288654,1158.71538204165,-107.551403000731
1478.94852721652,2.37936455730855,177.20484165933,43.5957319952493,635.878607859495,36.2372767063108,1621.82886883191,27.4617428268261,154.645537850971,29.3114264208455,576.127801227694,72.578561274899,371.714823744522,-4.59299621973503,613.232164095522,46.5287713510746,399.864781849714,109.694014647357,602.939273838386,-29.8989921952635,561.687417483999,20.3522612767007,162.497314862457,19.7028071161613,108.566722990973,61.1542469561341,636.562386617894,311.349387274973,1164.46854293565,-113.459270818112
1434.31451090312,6.61521216984687,175.420524757211,43.4694127380921,609.819537227766,42.6302546018117,1586.81221087154,30.6265587956992,149.1119710708,30.8280292902393,559.252175800178,72.3551221391801,365.293018909631,-3.55019416070401,590.463743622814,49.1520077985698,413.35808513382,100.282306257527,595.870688182044,-29.8733532753776,549.745722847367,22.7574587369351,163.333565693955,15.2686028768143,108.712231831228,61.1807452353416,634.438108363956,311.668253147916,1131.62193636928,-89.5145297504794
1445.37220528445,6.58203900448723,175.893303204267,43.8580107379335,634.537624740373,34.8909908992311,1596.70568990001,32.6748326893552,149.965161895272,30.1042372815618,565.797074748966,74.1524416274451,367.255199909911,-4.26549068360116,601.245428839536,49.2276513383,416.060920325691,105.308049916384,602.526596164349,-29.6784126442769,555.360322433177,23.2833830492911,166.088112580116,16.911653918465,110.533555210417,61.637445672998,638.055871358297,313.224899435691,1161.57152745473,-102.312883484511
1472.41593596512,1.54789663728847,178.80398311118,43.6901731973757,628.716285039709,41.5606332657294,1620.53788869589,29.3585162897126,153.978134515893,30.2712155449925,577.998055510745,72.3855404597689,372.06276349216,-4.53736659741319,612.014520446264,47.7710248752586,414.100572164405,109.31545471254,611.783187272141,-30.5994009923685,563.37564356622,23.1367759032647,164.516702324611,16.1400382705125,111.745788192544,62.7821680719557,639.979563953879,314.33493169715,1171.29906058887,-104.426224550162
1446.0856738789,3.77406464623488,177.2509408888,43.699187148511,623.128136685057,38.1911439572374,1594.35885195505,32.1827984850384,149.889177345072,28.9020301108764,559.687724360588,73.4206835786073,367.817263104282,-4.10257026029913,587.895273584482,52.3191357039918,416.450018715909,101.717057178647,600.4039837149,-29.8609133803178,547.824116154479,23.8673348356473,170.323252865094,13.5338511756257,109.697506792505,62.0505482424285,636.374780166944,312.966215879234,1163.74827198607,-105.661528430373
1438.82364572834,9.11063011653588,177.006751583977,43.7875346097034,631.2418004091,33.9234058775462,1594.46436454862,33.1035434808632,150.092483317061,30.6277513456081,561.479012921997,74.1023491396525,367.941000742765,-4.65808288640376,594.219076357358,50.2876646700635,410.172559969652,110.289568123845,599.693437870737,-28.9427630432217,546.12661749158,26.714798777893,158.874557920163,20.387295222533,110.245685647017,62.6612553274938,637.499290367899,311.690531858523,1156.65628310662,-94.9413160310134
1460.39232651317,5.73011334269896,179.35448536813,43.7462055236583,643.018535453655,32.7414723556107,1611.42417832871,29.9087573277044,152.29310673029,29.7558286572722,572.053491032761,72.6586870195963,372.255458818368,-3.87667129244043,605.075810967966,49.4427342506574,413.554569914288,109.121852132677,610.54146234222,-31.4743272457225,556.567891851028,22.1321614244525,164.354465797051,19.478442708526,110.245453539248,64.1937092703796,641.940224359913,312.474557028531,1170.15023318235,-97.423285799968
1458.16027254694,6.66952686428652,179.567921129965,43.7835392600385,635.799561730162,39.0948011476147,1608.04338218776,29.9853377497991,149.315402352149,31.1216289223476,561.445199143624,73.3533489610373,370.937658477215,-5.14165723516997,591.200558254037,50.16558443812,405.14427681473,112.80222903416,600.275107167252,-29.3966746527116,544.768672508026,26.0714214357964,163.346686772179,19.1899446646936,110.081979125356,61.7046662472109,633.403810884961,312.638308319772,1174.02168818048,-111.928126643956
1446.29602118621,6.49951099385734,179.398598637142,43.0808908703602,621.02714323903,46.5429619580415,1590.26988024975,35.6739092095664,152.889048650515,28.5853482590168,559.04821221064,75.1208143613965,369.324716422174,-4.15608427731682,588.838877733279,51.8971592023348,413.789455007078,103.726188418775,602.743737367607,-30.259173428248,543.889948870612,25.9088297836531,170.447383829993,17.3222757087776,110.038118211628,62.1339493823377,637.860638481626,312.423126196166,1180.80512575303,-105.661131469041
1457.14927776664,4.73102222053943,179.806741815944,43.9556252442087,633.532413160658,42.0758212291252,1606.03293706587,33.7301560529879,152.009265043232,30.9348456691457,572.225753772385,72.6151228685755,372.042867052771,-3.28872587043868,601.692661796105,50.226544802326,418.515732064703,109.215231465773,610.27259190224,-30.6639847459282,553.562869437712,25.2819438665267,175.668918741179,12.1541551944438,112.535110188353,62.296884785426,638.69860667876,312.100320040282,1181.34843586968,-100.371898422555
1483.38388090417,1.74292418908301,181.691214196938,43.5359911742145,649.285322393964,34.3663542417234,1632.59538618964,30.2531152262108,156.964809999889,29.6318480436863,580.69529474592,74.4079336267086,378.750311132088,-5.64131467416292,613.407381014586,49.5538510679648,423.533499393397,106.325822194541,614.583169715584,-31.6828404257124,559.951384430721,22.7925021583287,165.49077372899,18.381718659931,112.804985578726,62.0192710872621,637.470775565446,311.615986545085,1183.58069094126,-102.427935263085
1441.88309987714,7.68591939954272,179.887870629904,43.1811165267256,633.962090696475,36.3492374823984,1591.73502453609,33.8448909196449,150.899702256849,29.1931375243542,555.204546473343,74.6133996316866,368.970008700296,-4.28049662177911,586.536413196851,51.4192171635888,410.957687772392,107.02291467677,601.74311672314,-30.4658970151871,541.755539091513,25.5492806250383,167.513528129972,14.8089664024062,110.742616348731,61.7388699569212,637.235875709857,312.460146131075,1183.31044710291,-104.713711904182
1450.45802325931,7.07120047915811,180.061995363993,43.1363356652142,637.515008349474,32.54588584563,1599.88717026202,32.5989291754356,152.200120411975,29.9988716344144,563.528161883031,75.8001817272506,373.433375234184,-5.62653729405162,597.308732346958,51.2160814313163,416.48902574834,102.206385674513,606.759279682406,-30.6903084599295,545.855046971478,26.9765751917063,159.398115401822,20.3738041704422,109.45275288652,63.6918661171079,639.056135803572,313.467134457059,1176.24793557883,-96.4292671028567
1470.47281152677,3.57292814698567,181.199527293662,43.5667825340153,639.06719054579,34.6276025100352,1618.41612501116,33.1979892757331,153.932991964914,30.4942378466471,576.219176959629,73.5453509930169,377.293144069626,-5.47367770179478,607.416578243787,50.4949623093225,418.902850282566,110.763962306372,614.326891412763,-32.1809976887982,555.409520011263,24.7527735830195,168.756681095037,16.8077291150724,112.778675309575,62.701397115164,642.526426200264,314.460189646448,1203.03478554872,-119.700345046226
1452.81053251042,7.11244686541347,180.070475719674,43.5902017678761,639.343725742987,34.5161529132984,1601.54189351846,34.0420527194674,147.342974942534,31.718112292607,556.470025485737,76.8303384744971,369.492219180285,-3.59184967013311,589.41990015878,49.624252348079,417.493318445698,105.143230686542,599.268738557979,-29.2023251830097,538.832317262035,26.584186646441,160.009864332187,18.9762550317154,111.095420424893,61.8201833549933,638.171945804483,313.39598603579,1192.86851921522,-116.663157995844
1451.13087495791,5.97815547013743,180.320131128694,42.9197350553323,629.279071874544,43.6062655422977,1592.28356712894,38.4283319583139,151.518925855126,29.7100103539013,556.173032100868,77.7047800433885,371.723333502273,-5.27270652959201,592.741480925119,51.0897688722506,426.226224950982,99.8821348639786,602.83811365548,-30.0741910896167,539.197343287075,28.9455921659486,174.44813842986,12.9123283252642,109.522287781697,64.2675275075848,638.65854583329,313.868646738262,1177.21330081725,-105.59918785183
1468.24896233373,6.47673206684101,180.902127594361,43.3925940800701,624.063313577482,50.0642417461573,1617.2527925328,30.8550460927961,152.913821526891,30.0711779138847,569.781082186254,76.2618747947599,375.089941468274,-3.96216184444373,603.718391684161,50.769677415948,413.95545656844,113.294710305752,611.588165969239,-31.5280563161823,549.960041751162,25.9230835925048,167.178713520808,18.8057390151169,111.3838990497,63.7701099863471,641.951941737431,315.251161633571,1199.62197468423,-112.162746945003
1470.21647582944,6.08196143170867,180.753639827016,43.3512534382583,632.368390504959,37.327165449602,1606.96680466002,35.2226733684772,148.928451617727,31.4189912216014,558.734837310121,76.0897410653674,371.707924305564,-4.02082600805723,592.734061297993,50.8503989016438,415.372769466918,105.984948897879,602.663489374034,-28.3939420904403,543.679468299718,26.2262640142951,168.372598253487,17.3085803099292,110.242766284239,62.1887737911324,637.336163002484,313.264903820776,1200.12638141768,-121.066390399748
1455.69340720583,7.00189934824873,180.210010994435,43.1337353911398,628.931925748865,39.472080462802,1597.42144413769,37.4613868036062,150.871545881505,30.4031892287987,558.356202004593,77.1688404544918,370.760942472878,-4.45567494132136,593.572560442651,49.8444799708478,416.205473455006,105.523909219941,603.261773765901,-28.6977225323318,539.523037480584,27.604408469123,172.480803865228,14.9598090963553,109.927949941936,62.7071500742744,639.233945376136,314.372974960988,1190.44054002245,-115.021311865822
1471.18376347851,5.34875500691394,181.157757506931,43.1596187222958,636.195231162015,40.9525160625956,1616.60143416908,34.0489423875139,154.183659822713,30.2844572241853,571.272708595655,76.5010878579698,375.246777119946,-4.46592199694661,602.201811160653,51.0627227299929,411.532576627753,108.79669097372,612.12055855514,-30.9787708914303,552.242171741246,25.2767823863247,169.844981216222,17.29070403058,111.877684888046,61.7650526050912,638.802019640954,313.567509650219,1203.94373600667,-117.004347906228
1497.66380876094,-0.0935397550614475,183.007010779799,42.7823646333587,635.699820144447,43.0545399203775,1619.77525697636,34.1813696583063,152.341921352716,29.7411866563629,566.794165322937,77.4313638748405,375.513204773894,-5.19709143927575,600.11690354218,51.003662170215,416.442155920736,106.715893416834,607.540503232924,-30.6490520056401,546.992475715826,24.3215896401351,171.886230094446,10.8323301733462,111.45012511651,61.340395628537,636.207165619258,312.960286792288,1205.7397458662,-121.054757966917
1453.22460270767,7.99128287198652,179.853942822052,42.8900809189177,632.776313476604,38.3911829768442,1601.10480141926,33.1426647538426,150.172023626194,30.4552252838303,555.14847962735,79.5864622597073,370.017997868616,-3.48781918904002,586.416424454485,53.9314506973843,417.835157484646,105.455725366972,602.587413473087,-29.1505207850574,539.40272990146,27.0653938169188,164.829196614462,21.0897510539486,107.852564409707,63.0234545183541,636.322746329454,313.300250659542,1191.48254640281,-112.881672635405
1465.15892611539,6.65318006861748,179.89215648701,43.471640282047,629.503956156161,46.1861187767436,1609.32365762178,33.2853102165194,151.474189147319,30.1184388680153,566.50384962225,77.4494503224902,375.287277566607,-5.43868693703885,593.224462205692,54.6283818495712,424.297597429445,100.351376334243,608.100726630266,-29.2018536634156,545.445517957786,26.1544037550783,160.292415935367,19.140976640816,111.101455670989,62.6540964167773,639.810384005312,313.705242259105,1202.78644772384,-114.47173969163
1487.89299314678,0.384609639577293,181.88036492156,42.9686302229297,655.325409520244,30.6737079295564,1632.15131587271,30.4489172231293,153.861104581353,32.6212095517619,577.639379520524,76.6195455057847,381.006399029763,-6.92731170981301,610.068200609331,49.3721548037515,416.648330011005,109.999633770903,613.970305431106,-30.9939548291678,552.668318340794,26.5154713858052,171.60596894554,14.3961363756236,112.728517590638,62.0677871803975,638.099910122818,312.499164512298,1179.30688564089,-107.208473280921
1452.3106418507,6.51551564416963,179.183315316681,43.1587506802969,639.005143696182,36.2977162697261,1595.0892224191,35.4669617463621,147.723063785002,31.2251455599189,553.151344038204,78.5384553198754,371.963673452964,-4.55086477928952,582.883887095593,53.4453705152421,419.751840741212,103.351967238726,602.333782791381,-29.7851849842776,535.537631761957,27.7407433694754,160.293092387709,16.9241686471585,109.798377092976,61.93315955362,637.808288152448,313.715050975759,1181.97688897508,-102.741665141472
1457.87039352962,6.62554532878355,179.981639861935,43.0226563774926,624.830615542455,44.7207533857882,1608.07662735471,32.9345503402845,149.716790776733,30.5233017374401,563.026675261117,77.8888287250184,373.864853908779,-5.30743987254035,590.026138407158,53.2848497397814,422.903163424355,101.407589983928,608.623604856878,-31.3507157831881,539.324723592674,28.9808941867752,162.216655272785,19.964372840598,111.262085055138,62.5859117290939,639.590831676197,313.546313988649,1176.16642017052,-103.023430807924
1482.61478831779,4.30481347791372,180.992013735335,43.161258734822,628.790249588025,43.2308688835784,1624.45662933539,35.1838860596702,153.554282379691,30.4091641656744,577.899405119774,74.273982564203,378.915036745058,-5.72578644301565,606.708335466708,48.5054632155565,420.020473632001,107.922313332669,616.913096024029,-31.4157589747013,548.480181097505,26.7519941486317,170.878309639121,14.1887587869349,113.690027066502,62.8118790808688,642.432093182783,314.787937641248,1191.46778882833,-101.825786502728
1460.83024546002,5.52777774059563,180.182456069523,42.9511735380641,642.856297888738,31.1041438563902,1609.15319077984,33.3963034871359,150.060615080968,30.8501939317734,558.254313260111,77.4084888256754,371.673669707312,-2.60260973435457,585.151374196858,52.5715122351959,425.897644302504,100.551858960906,605.560377574731,-30.7866509878668,537.872841259421,27.0244156299163,165.112280656555,21.5512989308515,110.587737549096,63.0763164860755,638.556300144147,313.562650859579,1197.42486189641,-113.281951451625
1462.96991766961,4.88584811241075,178.696172911226,43.8505182960705,630.239239425552,37.9889808561964,1603.77710269019,37.0562542675135,153.065650071778,29.7464914475202,564.432065172548,77.3707848692761,373.492735728064,-4.89622906022833,592.362382809303,51.5275048615615,417.450450445346,103.810814982801,610.674784131613,-31.381724321229,539.77806658744,27.3675396125325,166.888579382265,18.1963130345338,111.666058899746,62.381158725591,637.460250916676,312.519032334598,1196.57359409008,-122.139985036458
1484.13420341304,4.41456880860016,180.602251453487,43.2949505710865,636.538090363516,36.9207651591763,1630.88152218432,28.1746971106018,155.215674173909,29.6487506079159,576.783335037276,75.7613826591418,377.05414914788,-4.90673011677338,606.086440497897,49.4337039264698,414.955844463477,108.485579400992,617.64969703752,-32.2950596210452,549.108247000189,28.3738276774277,163.408935068946,20.1798990947399,112.430554083218,61.7376341696432,639.290544685225,313.908774918154,1181.39143147252,-92.88205444055
1466.15072773592,4.75636530802522,179.721565909675,43.1919010025749,636.135496921952,38.9946318668443,1611.03244685549,32.3159099333924,150.274163284593,31.0025190348197,562.957175238669,75.7361606671343,372.70222983642,-5.16340531560777,585.189623193758,52.6561000941937,413.76192194879,101.445600109786,606.929996700794,-31.2277097451007,536.065019614606,28.3813204360866,167.77923652769,20.0433856703663,111.150680490621,62.0409818803316,636.205718607269,311.809231171407,1204.91080426604,-117.305035795041
1470.93352573434,3.53655921982122,179.555420504948,43.5284244129112,642.732894385798,35.0516028679849,1609.27112237635,32.7133260156162,151.894217389338,29.7814377285076,568.992073146832,75.6556316852864,374.147789424593,-5.23623537563686,592.387543500526,51.8804455795624,419.419935143724,104.277931654125,611.160992836481,-31.9788481775242,543.682247512599,27.0034192748949,165.936589534363,18.7220468320742,113.508070731065,61.9337439128775,636.178360794811,312.56048431021,1208.19183362451,-119.300668402698
1492.34426406064,0.551166804712514,180.382808646158,44.2457687921498,655.349863336356,31.109871189825,1633.50175642246,25.7284153211313,152.701221389939,31.9316109443141,582.461801378329,73.7157740646997,375.797790812487,-4.02979065836526,605.818767077761,50.7568430575951,420.397025133653,107.978779148255,618.450982646001,-33.8757622760523,555.525523216532,24.036915297378,169.883881052441,16.7551686710305,113.184674762249,63.0139443490048,640.104943495806,312.682944123628,1208.73528081995,-109.428844335329
1467.29482124832,4.77943721483205,179.914167394668,43.4573559949956,636.943624836105,42.0805389104356,1608.61588761651,31.9429730829107,148.462484673146,31.7578240542583,561.130772435559,76.8748782199599,368.981488006748,-2.89108058873172,586.997461560466,51.4627121796932,414.474508046686,103.759047970426,603.321260194642,-30.907891260584,537.888649008713,26.8899907559412,167.512146654237,19.2314785077037,110.635076567311,61.6987249970797,635.467086678709,313.175451808571,1191.19058747532,-110.283800926531
1467.53617453303,4.17374512596744,179.650725018007,43.6620702526928,631.208944679203,40.5125033343556,1607.71913896846,32.4753290780223,150.74170229906,30.5394358371279,566.521243528267,76.8564518215842,371.910336056384,-4.49841401696386,591.347778886199,52.4432369553512,423.769870087964,99.5601850634513,607.446757566431,-30.9261464521054,541.094612858366,28.1963242956138,171.636741671659,13.2885325807003,113.117477399267,60.8949271694571,636.849832746823,312.639799456212,1192.79383330676,-107.471038523022
1486.5167164963,1.00752477867378,180.465778855669,44.2622797168214,634.900045000872,44.4004007861878,1623.37574061241,31.8838909295681,153.313026072988,31.0140073295936,579.812442432599,74.946864781994,377.332422549505,-4.95959224085802,607.926928183144,50.0011982513812,427.429754079783,106.808057479536,617.365138593611,-32.7153637973074,555.077356020883,25.236057087637,165.140809871913,16.9525395177344,112.19837469118,62.7857519456953,641.27883781528,314.648062262454,1191.21577807908,-99.9947752851957
1471.81994563522,1.53476422928736,180.097295244662,44.0380300957679,639.538519941639,34.1509673433215,1608.20366770644,32.4842077785241,147.942973289617,32.1120161727048,563.681279842115,73.9563417994818,373.783862311721,-6.10533330396566,591.800121231517,50.2579460259317,417.934100874658,105.269975862685,603.815361939512,-31.2987309996259,543.668356716128,25.7713677370089,163.98244600912,17.5299109701871,109.0416292172,62.8780782159455,638.193694368497,314.382806383724,1205.37754493908,-119.382758929304
1465.88673389253,2.98258326581055,179.724087704233,43.8022149649913,631.129368285657,38.9190423139506,1606.78480808347,31.9465553938628,150.865255066067,30.6362554428247,566.686527297568,74.2187980849073,373.188730711946,-5.74909594493265,594.528882279414,50.2271206697205,420.034966821858,102.49665057074,605.729410395604,-29.5307130746999,545.896497947692,27.319837611828,161.332487555467,20.8725327419965,111.292899018925,62.1129351074369,641.139099512796,315.026433623995,1186.05387256666,-99.9032839245058
1482.55862571625,1.2649766585269,181.294660355397,43.6592608419008,641.74703199853,36.4503824616525,1620.95723653885,32.5015653632652,153.781628743201,29.9263450515138,578.421968669593,73.6100267255377,375.261157172491,-3.97723491754492,608.729668417688,48.3872397366777,422.745779498442,106.278263943198,613.549997090034,-31.2148879359498,556.19665132067,25.8292044596606,164.789064690195,20.760631332704,111.7695883226,62.8989338822847,642.440376367947,316.222882747599,1207.74714129667,-112.598378952009
1475.44396401423,1.66465462125094,181.016214293097,43.3053011392282,641.563925280405,36.7963808917855,1611.54164636499,32.3520610205319,149.825672362728,30.8917547030007,566.454440302857,74.6618979857603,372.213145455108,-4.15250474583605,595.749749246842,49.4115381305072,421.932351546083,101.890244327679,605.721440043168,-29.9254588753483,551.323242800173,24.2516825833493,164.259765189631,16.5507208857519,113.495262142602,60.0544411422997,638.004021141476,313.62190689231,1203.51690941568,-109.228791678376
1467.02145300139,4.99440450804352,180.22297927453,43.6500524819857,632.083672322051,40.1336242402712,1605.46268947011,34.381082157601,150.493237044576,31.0084118148703,570.463012305934,74.7821143975199,371.623740977419,-3.42553936081826,602.577641305005,45.5283090187777,413.443268071039,101.81427303742,609.877664353442,-31.6694001036701,554.161635764213,24.5326693712946,164.399791266027,18.5081638924792,112.475963641877,61.1044900908802,637.517734151789,313.192600810758,1191.02866118641,-108.045554048209
1485.61084481134,1.58926786716581,182.44317234793,43.4910659789122,645.98485773319,35.8027921723616,1633.66188156137,26.9740602056072,153.757753765885,31.2087859618728,581.911454942785,72.8892123106052,376.891169752748,-5.06921737015658,611.236874646446,48.4363491231701,416.567721720149,106.669993654662,615.369866732672,-31.7819665972611,564.258462980039,21.9580826575676,174.884700293371,15.3694433148252,113.229984116551,62.0749784925773,642.408462483587,315.397824264818,1212.97992085971,-114.534763211184
1484.60479633534,-0.57681663163619,181.512425269944,43.5588081487089,654.286726470732,32.5524089024225,1617.78958207976,29.979762985504,152.454474763882,30.4589136827453,569.540862069263,73.3134280555327,373.047008307426,-4.76101269684443,602.598865133525,43.8080247572614,421.028227194518,105.303921973826,607.672487722272,-31.521249150567,555.738593921174,22.1791883709834,164.962365609397,19.5460060790383,109.569284223546,62.1843327514096,637.425595176416,313.064227773548,1204.4412856534,-106.674067303101
1474.0005884307,1.26386699337503,180.878279052441,43.1928404184265,634.911719345713,37.8977853351775,1609.42616850175,31.6899774765253,151.025819351937,29.8099638480451,568.389627133028,74.0592352629894,372.32566951743,-5.22233673608141,603.137650031053,44.9769093505819,414.662373592441,102.679179309155,605.113713100588,-29.9526581727099,559.863726332144,22.2344916415929,165.339375028553,19.7488038840246,111.283797352723,61.7089273795083,639.108425087602,314.509031363309,1188.98879610184,-108.755185099911
1487.88480902649,-0.219192679297951,182.222218821242,43.4147131768937,644.96950805048,35.7503187996192,1623.50530528856,32.7308306985329,151.55113453217,31.682821222321,581.283963856738,73.0741422984569,374.953923462594,-3.50799622675173,614.679290020273,44.4271739834093,428.965178714453,101.69003494443,614.662052507233,-32.3730447669156,569.831156267309,20.327799186699,175.55052355438,16.6611768698142,113.793555850389,60.4752346408787,640.957236767623,314.849774702386,1206.33282667162,-113.309360629494
1494.35897668452,-0.902140988368332,182.112426444778,43.5340346243162,652.580197556419,35.2740800364526,1620.7627888372,30.6667426819543,152.14459912974,30.545992605945,570.169092404889,75.8398824131026,375.195549389154,-5.51303373320003,605.15228255229,43.5416936872932,410.316234307098,106.103892525568,608.33507293245,-30.454756903322,567.341945740608,18.6148714947473,162.715180318302,23.411135427612,112.5659832225,60.17531106245,637.731317624098,313.968232195206,1196.61647652154,-109.565022713097
1473.20534930759,3.71745141962356,180.471487368128,43.6225959804829,641.812761364184,35.8069013960994,1611.45983127044,31.2072098158655,152.559278546852,29.3965291549343,564.041363754303,76.8468288641785,374.215152367115,-5.09732979855687,605.421446474245,44.5009429237326,422.564288618902,94.8239686718879,606.236374882896,-28.9402673453837,564.001479300084,21.8635773577217,171.778091585923,15.8513083837228,112.40348595517,61.3439441552257,641.102637705839,314.106241631676,1192.45388039011,-106.242114143469
1488.33891012645,0.584760142692694,182.120716733022,43.0268153205596,643.973754513585,29.6678415320101,1626.81363507399,30.7126499273184,155.104033711702,29.8091374696758,579.781457908041,74.1834276016045,378.77503970379,-5.97989319652237,616.985080669031,43.5726075496859,415.798952996312,111.503001928716,615.793677793127,-31.2000100664471,580.125381463025,15.7619669128413,168.528410460608,16.7147015555899,113.033564184819,62.2476531410945,642.375740760352,314.332916765598,1236.46299604148,-123.083313835516
1508.87561505615,-3.660322038468,183.927856990232,42.7833305594984,650.816652705518,44.1560393506416,1635.04426419349,30.7651934812259,154.796590200494,29.8614325014908,578.404308845138,74.0535420504539,378.551023288978,-4.98867748422889,616.372062777877,42.4349558258214,420.362905365418,105.440337785998,611.180615518726,-32.0953861749429,572.772863008132,18.4520203293921,166.893370949197,14.4641928029914,113.084957582274,61.2957384817036,640.014871396036,313.676657789414,1205.4236172824,-102.250422351773
1474.73787629219,2.96511556235164,181.063537187619,43.6205003082178,652.716885952444,32.1932677053961,1614.1180562038,33.8091586774565,152.055701593066,30.5270763336797,566.013325235319,76.0437168684013,375.334455133002,-5.09096651962182,605.055788476177,45.4116659524543,418.871060942837,106.741741645116,611.393389413533,-31.5001175217203,569.084097087421,18.6079075856354,172.727152955231,17.1166462118214,113.183662110028,60.6218551141608,639.22375066852,313.666153271297,1200.07065550124,-104.700637906422
1487.10989787155,1.66777436939891,181.928905032563,43.2007234905182,649.298293813706,32.1398338404017,1631.51342272633,29.1844283781594,154.240265817469,30.4132000475544,576.429210790575,75.4388936411737,377.605665770793,-5.34973230851836,618.235441147802,43.6555819025126,415.863192415973,107.435842774762,616.769521445458,-30.8001632963523,583.055169218915,14.2934012930285,173.991162979343,17.5787479705066,112.929839999715,62.3631444183397,642.073166439487,314.87892931248,1221.31345558655,-121.596237155514
1505.13233328975,-0.243932691544688,183.559307538545,43.169110991536,658.682648171879,31.5944956690159,1643.31701426841,27.6671780438136,156.069305782254,30.2535899237403,579.771753221349,74.3228067578406,378.705925424927,-4.33402774323587,618.029969887473,44.3752120042036,424.602589966075,101.338128856974,616.32680576837,-32.5601001137558,577.477541735672,18.0996194347853,174.132393835061,15.3025296461853,113.482766828706,60.9086295896713,637.849729645938,313.604743271139,1218.56978007007,-120.901371749149
1473.44184015808,4.22209451023819,181.537543645603,43.0989942249896,645.728862297227,38.5900040397827,1615.68947931125,35.1642743236688,152.857498205487,29.7798292248598,570.468681824545,75.5091580353463,376.61267183398,-5.88312419121949,609.112149012726,44.4003695015083,411.3708503979,109.074137589523,612.472759411282,-31.5881243886743,575.965068943043,16.6780218227634,171.093878787335,16.9653171267623,112.095850021842,61.7019816840152,639.622057522708,314.369651163742,1211.65807342024,-109.847127008206
1485.50602038087,3.3725274532244,183.25914776931,42.6974154738889,655.103823986878,34.1817168434843,1632.34341798704,31.7796864108078,156.442692028503,29.4513394939489,578.955938729371,76.4313904759516,378.064600012016,-4.8687948228361,619.199516718677,44.0718334010545,422.877709312281,99.9464995095143,619.727738672791,-32.391424466458,584.925416812538,14.8310553284281,169.014580555348,16.656799349824,113.334569786323,61.6566398013634,641.064016314033,314.681919831033,1222.44884697974,-112.437154318424
1512.11914831339,-0.28152404584229,184.611859642912,42.5942295020145,658.64716790888,33.6172765205084,1652.30403888455,29.1497369410867,157.348027659015,30.1490058246572,585.343278551477,76.8326804998131,383.077666292541,-6.56809796458104,626.182499274771,42.2863762658985,416.683312330444,108.412487856851,622.152182986756,-33.6358995872687,586.839902915212,14.0953755790053,171.986181730297,12.1870775193041,112.577626586368,61.5915735845834,640.160870020556,313.979225049621,1204.60652280325,-113.024985847187
1473.97156725546,3.97459286842711,182.083083308031,42.2602574236822,643.96821549579,34.5909269539028,1615.52557174373,35.573400318667,151.907583458197,30.4911909251438,570.987599255303,74.4777731893765,377.436756313683,-6.21941307060755,608.434022992129,44.4330463685572,428.094961732476,96.4436260622561,613.814666179681,-32.1463166675405,577.005961911399,15.4177687831105,174.168992639302,13.22657218581,112.275466355322,61.6615285703971,640.539357425731,313.991185867448,1222.72743156499,-122.914392878527
1486.78202629214,2.41919487457614,182.385452517186,42.5383981554377,643.670251639379,41.8893338782315,1625.70097776325,32.2720605658507,154.378951456062,30.6824978062482,580.432836519141,73.8770785461231,379.51558172447,-5.69193633053846,618.042783577709,42.7182525687747,426.910601672518,101.317864586623,616.822308476821,-32.5980745567486,580.02114534065,15.3193881468857,172.359659329246,16.064701182726,111.653294386337,62.4655668032822,640.275340938303,316.834111829424,1211.41331012597,-108.480791487018
1509.64860436099,-3.03009750665835,184.025025888019,42.2898449445009,659.175637478314,30.3118112800233,1649.07963974766,28.2050968301131,158.822072084718,29.7175262603602,588.175591930902,75.4341082467404,384.595754248372,-6.70234386485473,625.059295823328,44.5062683021974,438.015488643262,98.4981807059286,624.914939293836,-34.1888225927194,586.370921462404,14.6796465026477,173.56264111297,14.0529069377929,115.100622948835,60.7141285904183,639.944990534054,315.058942513475,1200.92822472621,-101.171989692737
1475.59896780827,2.80616530033576,181.86751807218,42.1847527243006,646.5101906653,39.6323226909904,1616.9610015828,30.5948706843172,152.595198018724,30.6032486016424,569.214545223224,75.4425467217423,375.558292631106,-5.43371938032975,604.264750963796,45.5787021297125,420.758394987501,105.278074173155,612.992220446461,-31.4961857866269,570.014447428824,17.9304565700188,167.419539849103,19.094328504644,114.374413755826,61.1666863990312,640.700329716408,315.153337297721,1205.16317274714,-110.012349075312
1479.86803423127,3.67737091171009,181.344224026359,42.717421904673,646.301781615002,31.6712019425695,1620.94059348349,33.2373931995675,152.744623316781,30.8478729533638,580.209094044748,74.3423060321552,379.919321903635,-6.14925322731856,611.041240155543,45.1864715936609,416.847879351056,101.829396141005,616.404718055234,-32.8768975168581,575.251620932046,17.3155082606391,177.507941472908,14.092486884181,111.967834147029,63.0538937671483,640.90235785798,314.469623868259,1206.83339897997,-113.77180472709
1505.40862739799,-1.82474575932505,182.988195571818,42.6298783623039,653.367928289633,31.9835583556429,1640.26658836209,29.3103033659653,155.762813293055,30.6279179681152,589.760108828531,74.1434378507328,382.544546477324,-5.75354331288936,621.170471012167,46.5400191399203,422.902575792799,106.249406830283,623.642701992017,-33.5051198522983,583.64155411982,14.7801167228064,166.433778385387,17.694904208413,116.515392053538,60.4185590435873,641.132354817141,314.477459955104,1214.40092439389,-113.07599911766
1477.86884178391,5.04990353888751,181.479461145054,42.5666372768998,648.416087416983,40.5854195067328,1616.28654006939,33.0010633033639,151.519416995168,29.758168106537,574.31823663731,74.2683767981122,378.698500537602,-6.37669351894054,602.495030870357,47.2617104736184,423.563219232837,97.8933561958682,611.546812153705,-31.8782972113581,570.786083218057,18.2449143942896,162.583152199022,21.3060088736486,112.789570974558,61.4862860492687,640.173326453069,313.867500547653,1212.0781571369,-122.370728458179
1486.30228088254,3.8150762794965,181.322521666734,42.6570643229174,646.995499116627,41.973032102106,1626.01674306899,32.0706660587815,154.987758700259,29.7365320008308,581.220363937844,74.6572190664601,378.70503059337,-5.3786473627207,610.617179587284,46.5304845229024,422.368927309304,100.162958965076,614.88648308124,-30.2506065380831,577.456162475303,16.2422872608819,167.30046646437,19.3410294085227,114.204316016076,61.7497541295807,638.702327390772,315.396302024155,1209.03945967108,-102.920371629058
1510.72107377184,-2.51246900133959,182.659816026834,42.9212407037485,660.273336937932,29.5876074127008,1640.89583092986,29.6263313958905,156.597481813213,30.9098024602581,596.672229363367,70.8660364017737,383.825715451517,-7.36488922871547,623.916936290197,44.1528105926533,421.232722997229,104.681835877689,623.888627778428,-32.637756034913,585.744767258313,15.467575445101,170.149764905076,14.1822784325739,114.621032916622,61.8933159500454,639.72334056726,315.269152627069,1224.13626839288,-122.315094342416
1483.14850678323,0.186959700516432,181.187288046491,42.3345320003774,648.846681771921,38.0226099583742,1615.7855657126,33.0415719601553,153.458755537612,30.1388568592964,578.887188330345,72.1882668396762,378.631534157225,-6.53737368833891,598.447800008109,48.7920614314875,416.087451611194,105.566273066952,611.721648857245,-30.9224929303527,569.207353358002,18.5983780137746,171.925142983027,13.0147472951088,111.695560803664,61.729313111338,640.500299834525,315.907511123044,1208.90692443511,-110.161922130983
1488.67504884381,-0.213286770529841,180.594918422292,42.9569491555404,644.204374085871,43.0797797653539,1624.97414695596,28.9275586163308,154.885546682285,29.9888889067511,583.122191044081,73.5060496958166,380.979572632821,-7.78273677718176,609.879762979343,47.101978750007,422.324026540446,100.07148741835,617.077865700332,-32.2338130851688,570.371584023779,21.0368505047572,165.267913930072,18.4624879136136,110.627674006654,63.9719255592905,640.175980209369,315.100215328764,1208.47140845329,-114.82608706037
1513.98393980564,-4.76558074738367,182.425052094691,42.9078575399103,658.64404255333,31.6890644738187,1646.23476395739,25.5489722235189,155.340986232161,32.0225704787667,594.54772021092,73.2376983654749,383.296454094144,-6.58865856933828,620.121433782208,45.7756826418657,432.04666392167,98.0452741887557,626.706485190731,-34.5886304330827,582.908335245549,17.8116470354789,167.232188938393,20.0926403212963,115.345817999611,61.0747165448772,640.789924826701,316.435267046366,1206.58254947574,-106.481417511326
1488.8477751666,0.252745241739478,181.251530654328,42.5076312666721,654.532898468544,32.2646609632528,1619.98684149148,29.4005209435038,152.365777770671,30.132161943874,575.018328451342,74.9565405493552,379.761008851765,-6.39268274855805,597.273989268468,49.7226858447565,416.84616489616,105.122165714639,611.51475735899,-31.9126047085528,564.976634149768,20.0351994109667,164.415816459545,16.514228221009,112.101556898368,62.0527787319709,639.780512529974,315.18831461832,1216.54024405099,-119.68653755247
1489.46628826924,-0.41709700401881,180.412598442741,43.0019441386098,639.161949828434,40.7142806553813,1627.07268688332,25.9913120458621,153.581965493242,31.2502559180616,582.011263783203,74.0259771779086,379.146341630742,-6.65931379994304,604.592864385663,48.9934258857,421.996014999416,103.819000098299,615.711728013184,-32.3120376824487,567.600511989697,20.8443670882987,178.924116820671,14.9762643221059,112.096541740969,62.7948751101545,640.614254509266,313.976714627801,1220.27573202709,-117.423736805937
1510.93815972844,-3.90149491408134,181.995641764562,42.8956836530619,652.391376415575,36.4810584303113,1645.36667838522,25.4571622227059,158.04961519068,29.5338393766804,592.088682328489,73.00624173776,382.178122620932,-5.6744741949138,618.086995586238,45.5649038235995,431.575115682614,101.599018803394,624.273805741747,-33.4993285513176,580.994082585974,16.7237507463454,174.66243894091,13.1056980582886,114.456903707676,62.2922332494837,642.758775049243,316.158127177239,1213.79669300148,-109.787839771275
1495.45240242967,-3.63307055512984,180.989618220382,43.1113690915438,659.29744839303,24.8258186565978,1628.8784339083,28.8059501170387,154.656878459713,29.1699952743231,579.31461613926,72.4151625687202,378.180443254875,-6.34512984235236,602.479432687143,47.4654313087131,410.322008534809,108.776677924817,614.06196610843,-31.4253345140765,563.15631264904,21.3260635873856,178.087469606456,11.8201119869994,111.230157160766,62.9947094355808,637.008650715485,314.83423005601,1206.17534366333,-116.146316435196
1495.39021496554,-3.87045784994416,180.533831739637,42.7228370275472,649.630254592292,28.2700524264488,1626.50468465997,27.4187645028426,154.182932309597,30.604597166483,583.035691077884,71.7640401906689,381.436110674693,-7.07196202655113,603.997999570276,50.0479643405139,417.094359111186,103.408191240305,616.518126974793,-33.3334788333743,568.07401542824,19.9994980687541,174.469349340002,10.8361390219315,114.46011283017,61.3229142460525,639.437033257241,315.685402089025,1210.70211858846,-121.585561677696
1516.25262879717,-7.60884541075376,181.735236107419,42.7434951129355,662.448667405796,27.467055907261,1644.74435074447,26.110939851113,159.687153910938,28.0913916039281,591.27849750178,74.3346378983267,384.928873995913,-7.73314438042569,615.563381458148,47.187521513742,416.906705694684,107.96152504537,623.631845234902,-33.3220752746186,576.156318611761,20.2923751763872,184.736173221031,7.09979458254324,113.965330708005,62.2684861490678,641.607506420423,315.187919594691,1233.37716472124,-122.037173247963
1514.51254660938,-7.50032458884129,181.491675662884,42.7197267136557,656.655354235799,31.9870943252757,1638.31904958692,26.8329958345146,155.007954040772,29.5151357116556,583.661457232566,71.0807813511269,381.697704823697,-6.64047411555902,605.388984992761,46.2720612878537,412.886815359308,103.090750811326,617.179659535096,-33.1973499519182,568.113129689011,19.8567082341455,166.278155027165,19.3257788079495,113.745871835894,61.1126679483127,637.468546375566,313.150525817563,1199.78929736182,-112.748867681106
1504.14169686294,-6.47131126951383,180.301545336669,42.8839119522088,660.081636936637,25.5731791151529,1632.08659196981,27.6226342360466,157.722722149766,29.6320315978107,586.493151893117,72.0186579392919,382.132189693252,-7.60500177161353,605.669584502135,47.9018016091614,418.981044936095,104.421372900828,618.059889246198,-32.5922064031082,567.786512153891,19.7186019733661,179.027114485535,11.9130122724056,113.487782067675,60.0107161606408,638.845359188768,314.215838293763,1224.27642214545,-115.481422357274
1521.62763256158,-7.0976901479212,181.532394241917,43.3631341258515,661.356784025681,28.1264349839097,1646.39878024927,28.7538247666657,159.667349887039,29.7182054491014,602.7874964295,68.9414432102,387.831455750569,-9.69083316490937,616.814789199781,47.3116244967442,423.434234679393,102.886095129148,627.308310456474,-35.7061795267525,576.760608183537,19.434399368974,179.995870278743,12.4362491233781,113.649273924397,62.0215999141127,639.833877920578,314.931309134682,1216.74453845666,-119.103228750446
