148.792699768341,5.57060933881101,725.922620583093,43.8337109999726,572.002073062366,-4.60020254699735,302.543829914115,-2.51164554805196,454.7649138161,42.1402646816085,691.291709403581,80.7195890128261,1152.00712609409,117.845475024073,204.024067885817,9.65032076420028,529.606236824664,120.194615786692,390.121027021987,2.18407171281729,1308.96083093814,84.6165272046915,82.7584470511352,4.1969953569252,40.4577758488635,-1.11485957899287,287.863114378327,-42.962644882593,403.756792029513,37.2967864592827
150.443621564313,5.25161274147316,728.848349909289,48.8413875127164,558.654547693295,8.6190679396349,305.664175145385,-2.98294211666751,465.708871872805,41.2258582564952,698.338759639955,80.5933439277203,1176.91679932318,104.360666680998,207.301443473995,9.22762813209148,538.492729728305,121.334064981898,393.639998409924,2.29003793889254,1345.5914586381,71.8079273267943,86.829694250004,7.25582280980833,40.0930278138876,1.48069453125087,296.944243615347,-50.9603847276111,408.249499009174,35.883342965431
154.410115689379,4.86770333366299,749.749276864657,46.0300491735152,575.793728982247,-5.45975333324743,313.261962452758,-4.16657571261482,470.310879083393,43.7768848192962,715.213440248191,80.0458943341806,1191.00251012844,114.15602742476,215.279082145229,9.44931437521371,545.480118988566,121.716948918905,400.247173389013,2.43593516257578,1368.19674059575,76.7142564688873,97.0784869855879,3.49022053909619,38.5842007144063,3.02446995325873,310.567322579244,-61.8278996997079,421.398414064073,33.381380345171
150.283731300299,5.14848435859276,730.248903902932,43.1699613600096,574.439904675384,-1.8178983346309,303.956706100702,-2.52987994909932,442.998376687236,48.3699415882974,691.921414034949,81.1344552575672,1163.94805832812,113.517081483058,205.503459270101,9.47699987843094,524.167152453156,127.558065463056,388.304070249534,3.92696385199219,1309.24060214884,79.0856740355227,86.9212107849894,8.03024077879002,45.0636728664476,-1.68592925161355,299.159222056626,-49.3650880215684,405.497369969286,36.7637744828258
151.082317111756,5.22138984568855,726.54996968054,58.8857720227223,575.513357502756,-3.24891201494563,305.495747896619,-2.8674422539741,461.471090830368,43.8566352382563,699.519544068245,80.9625323403858,1176.29669785938,111.880239262783,209.179738606498,8.20133507829567,542.885187667808,122.206256461833,392.544210267705,2.80233223197616,1325.38921476232,83.1575350181274,93.6002679961109,3.81211813349887,42.590912634459,3.92090922900161,291.579683034305,-46.7451236603571,409.98617340411,36.7165238194644
154.326397660617,5.01243887401855,748.053650367162,52.4592331669383,582.355804794506,-1.38691894124203,313.234820517401,-3.76919148740873,476.098929242092,38.1420354476524,719.417234424808,79.1358167355703,1196.89996131851,120.020194338577,216.885802435846,9.17877579833512,549.350716858172,121.966511450569,402.800234085914,2.20497916010606,1377.36713785585,79.8345492093689,97.5798557130841,1.57787796577976,49.4349001291214,-3.64660591810049,300.568686179322,-52.5772002680988,419.956959100004,35.6970517343788
154.423067111044,4.58671406822915,740.058078142709,52.1230339978185,580.487279536105,-2.08358994716875,308.100471170917,-3.57082617649421,465.754550401827,34.4929473228407,700.725700669793,80.7463450592103,1185.60637904002,111.552791881742,208.019624968076,8.75335813785737,537.467082929881,120.377900113702,388.749897163925,4.44439586284664,1313.1818354292,78.2447013692719,90.7639678964261,3.48474712890044,42.247801064049,-0.859243981978528,299.669350178019,-53.2840617711946,407.107665193819,35.4805561433255
151.095497393259,5.20511000244589,744.576737904651,45.7771616437592,565.536617708854,7.15305847102975,305.597598639314,-2.84119677509539,469.513361902623,35.6649819666065,697.107010842197,82.7463525777469,1165.71067108794,120.455254725469,208.088115538261,9.7097878751992,550.161751933718,109.800672370287,390.909181749452,3.39828467251071,1326.71933876906,76.3560265785811,90.3838656547241,0.753946215015423,50.6830340775814,-6.28855099333876,298.036863894636,-50.8872344385645,408.22578651352,37.5471993598897
153.412245719068,5.26456644187002,740.548739922599,53.3419636781245,572.772850184544,5.60246027662492,311.943643008985,-4.0550579771361,466.904347313345,48.7971967140666,714.203244813195,80.2360266371673,1200.67142752955,110.953217365441,214.964013518629,9.29395889747192,548.68180644079,126.82805163939,402.029769548681,0.870750032834055,1372.91538859966,72.2584066252496,94.1017723048686,3.00596809182079,44.4861349690158,2.36399240792004,308.461731543284,-55.1301449825732,420.163756132983,34.8578793667626
157.550100525361,4.63112735459192,762.45473807743,46.8217329323755,589.772367467893,-1.87819791739257,316.987852239659,-4.21616190901175,476.593809520755,48.9017152031325,725.277584016956,80.4145559301236,1229.7736256029,115.942680798643,222.47811638695,9.2224861153464,556.14820971987,120.278386059739,398.942655432915,3.12503839645622,1369.32543789472,75.6601053497539,98.4250456174611,1.91380320477836,42.6923810659423,-0.286022897512523,295.740905391623,-53.6156271872558,410.401152162134,36.8834815080103
151.219794975533,5.26812029008572,731.375386394353,49.2325885056361,561.904224227577,5.46522007769762,306.415577450038,-2.9667623863602,451.851440590435,48.86965768695,702.747056709071,79.4339877311344,1178.44140303547,117.524824519497,210.532575690549,9.1329528772505,547.80986572476,122.458258514115,392.412206370543,4.39041475593473,1329.47124977764,81.9924760391775,84.2920334467125,10.5858086196797,46.1080951763079,-4.06663718924955,308.390539849821,-56.9140872445578,411.80565055864,34.668393000827
152.851235655887,4.95095003412278,736.355213328261,54.8823469161686,574.352905903506,1.50364655851216,309.578463875695,-3.31589691327503,470.497917792372,43.3228032774852,709.491661670295,81.9455392047715,1189.08587101416,119.278688469929,214.329114848355,8.71046419416881,548.07296572292,124.407320247157,398.326163457904,2.76312848202705,1375.59174183402,72.1198715737144,90.5167769102808,6.67837782585162,46.158054901912,-2.64313056094386,305.101786717492,-54.2521421359464,416.214872609482,36.5247194027648
156.4252047302,4.62357515445768,763.075984579054,45.321875767888,590.79303648626,0.270617181783079,316.903170586511,-4.39797760612464,478.826922252585,45.8119257308179,729.27891476169,80.1945851470317,1230.87878636299,115.384666220718,222.71922929055,7.70299929126623,558.02811693158,120.305534652999,405.713612350405,1.97471147556351,1407.13948363478,73.87974374365,95.9009121445797,6.64384926465325,43.0287240749008,0.331586378983205,316.504734408811,-66.0467881414223,421.117286945971,33.3815143607527
151.189368651764,5.12969690367175,733.111289872925,52.4009991272379,572.236663177557,4.8110998575644,307.229194265337,-3.57842097504029,463.654736356759,41.9827402252039,705.579061870781,79.2199429947545,1186.44815131421,110.993393982309,210.373700856851,9.04505642629959,544.938348492124,122.877704686216,394.701061298656,2.53716437863505,1351.01581076049,72.3470827009513,89.9011442791752,5.49339618352509,41.8289199542131,-1.63508931646811,292.718553974047,-48.9277822449598,411.591153313412,36.4673406913044
152.469065923814,5.17722339396036,734.173525945371,51.7933105896823,576.137172419668,0.859455591073412,309.710855154472,-3.64456191657059,479.648130448649,39.894679300797,711.079762880096,80.435990144105,1184.38005544534,120.25776580325,214.384076036536,7.84706157264314,553.333213054129,120.956881099202,399.239788858053,1.38152405277761,1367.78054034719,71.4785237345882,90.0422295300176,7.34368754117008,48.052976143039,-3.4237355117813,282.388469595167,-42.0312301756528,416.935511431833,36.1561224085051
156.412651905359,4.70115606876128,743.734897020503,55.4555840880744,595.237251596188,-3.54662003588233,316.808488412569,-4.57268854687007,494.177127965893,33.6260211932645,729.30603857917,80.5321861506997,1223.83164068385,119.851006207393,221.812424176513,8.73331129532472,560.494406822494,121.215845085785,405.586449288182,2.03746620293933,1406.82278351127,72.9847838768722,97.1927819140761,4.94396836902868,43.2584863902839,3.1642000174606,307.972310560539,-62.6978829445756,425.991925111297,37.6224778266177
150.527566875587,5.22311970173728,743.02525296004,43.6451999663377,573.162529665091,3.38857479571835,305.760980138427,-3.3990264112739,454.27385597704,43.2561144468788,701.525714393138,80.8158985501351,1174.82788842957,120.569194021905,208.192235945763,9.02016059944483,541.168184377893,121.128096320217,393.184742986371,2.78531205263037,1334.42803679541,79.375606490602,85.4363842712234,8.41961092292392,37.6619102597286,5.60770788211602,301.560679980656,-53.7524515528372,413.025106946749,35.8961076504424
151.766455167121,5.16307914853819,746.493630904311,48.5505601352914,573.525107666289,2.179876222936,307.727389048158,-3.2901044882255,462.083771462945,40.8393921665308,704.904154585758,81.1674217119624,1180.47107462014,119.215469608004,211.001578339437,9.54662595983731,548.280720237701,124.44712462867,397.761835933878,1.43027045319076,1358.16194107647,77.3694743297209,90.2444597759452,5.03078241227096,45.900727900392,-2.1478630920495,286.259940023977,-40.5660107071863,416.07350299457,37.1044732021715
155.579326590791,4.72886044583066,753.167008992536,55.1318606152372,587.239328030056,3.87619427764154,315.389147308194,-4.55447659539887,467.17415873498,42.6117657791924,723.954344015196,79.8901825767133,1214.80221701977,118.807106898598,221.81479185925,8.21159140550289,568.000566842948,120.225834381222,405.425406106742,0.691174899684671,1402.08503741838,68.5035291518372,87.9335791255797,10.0630044172449,40.0071166844289,3.55533779353943,303.464912499194,-52.8265348283154,428.37314371893,34.1671519906236
151.372323855506,5.14678957286263,736.730415131172,45.4615340050698,578.546924967613,-0.178285359477405,305.63378955414,-3.26082040575076,460.917133922283,38.3516840804607,700.793885617445,79.8715667466752,1193.01191733159,105.842101816626,208.119049279912,9.39576178600125,526.39519201704,131.057700826198,390.013356556298,5.17485723816027,1326.66577457964,77.8736742337048,92.4210596183711,4.62000335202772,43.2433607573204,-1.96148149164487,295.493608064686,-49.6808064582083,408.078016870831,36.6079023956755
151.307323741754,5.28577811158738,740.175402721937,48.9130325860449,572.027193619663,0.930883219179873,306.414294706908,-3.11926620628496,457.583868800738,44.2773553369443,700.368088178002,82.4342134558439,1177.06068624315,115.233666522401,209.060152721181,10.01208901179,545.090314809328,121.117818904213,394.775689587465,2.95292250192676,1347.38724869301,69.5800358721281,88.2638618069268,10.4751718272732,52.1795771932143,-3.55493515437678,310.328763890384,-54.3542585434979,412.492423960596,37.530181475012
154.009749116754,5.03217490554671,747.967115403041,51.0613869114679,587.891496286634,-3.16649194775258,312.286210992087,-3.68418050111511,495.010933423793,30.9983451987392,719.570662897879,78.8621061568655,1224.27454597467,96.6004130475224,217.33495600734,8.63193881620454,556.74133390847,125.092616653,404.056302219033,-0.00198055009640262,1367.59030297646,83.7106467660993,86.9839492306799,8.57484134378587,42.7748766461303,4.05952971302376,287.637495214105,-37.5467959638517,419.197543162258,36.6031245008757
152.76609811487,4.96719900206108,722.957832756638,52.9265114361468,577.796878259487,-1.72961699418129,306.290724371219,-3.36571209534967,458.828080235582,45.3292224443124,697.711290131158,81.3085773779985,1173.68495173332,120.571348753614,209.200707364051,8.78739049631761,526.056268694846,129.262056717738,390.605033706858,2.8403338586609,1305.80857726323,95.9980657579887,87.694935337307,5.75031859137347,48.6839229675506,-3.0156855313702,298.317777962597,-56.4925749481073,408.528210951112,34.4698548994327
151.778876681306,5.15289952712058,719.338921320858,62.4090423372917,579.628478571223,1.6354485507116,306.06886958548,-3.12706454765567,470.476945536901,36.071689612703,698.922142525535,83.1663118830186,1173.59069287287,115.782196047461,208.700990253349,9.6638797188136,545.664438899562,114.538774098644,394.561291312689,2.26345514081524,1334.00746782468,83.5067545914413,88.1882393044203,5.82790391010239,43.2104275837581,0.405559599411426,303.149001191489,-53.8869518108925,409.679469364385,35.5311236923331
154.012614982644,4.88770096627562,733.911739931512,52.4950741701708,569.846537916957,4.73135400410598,311.608796341688,-3.56949545113664,478.922675058643,35.7731594166617,714.044691512374,81.8946244210719,1200.6388491706,117.809537101005,216.461538064787,9.31220694806632,555.16423012176,124.554571721462,401.703996912733,1.54173030204012,1386.61097086708,69.4152682839434,97.9698009652333,6.16566993635552,44.9016368192199,-1.15905426857753,304.24636190363,-54.9205053204246,420.122920011764,34.5601760169185
154.782056490159,4.75541538901381,737.177738662393,55.0309543015593,571.997700158405,6.61949638042475,307.687363856889,-3.43118232906398,463.456706230558,41.8991649923662,701.347329867878,81.2782642497098,1187.58408746717,113.168685440299,209.118476328466,9.15109144954636,548.773162066457,115.299450408767,393.1855927318,1.29303224218389,1328.71903440833,74.5304493642007,86.546381060415,7.99002071253842,34.7148351667377,2.99561928250011,302.074907439543,-50.4234994038608,407.770644757449,35.528649489485
151.507416068413,5.00185602783759,735.472151900704,49.8293294271077,558.671324616251,2.4345251949922,305.54675340654,-3.22830935704506,457.194142862638,46.7977352875401,697.675752678598,83.1528735666788,1157.31672051019,126.934505391884,208.466851405972,9.68138585672066,532.025118842187,129.485512316479,391.056797079788,4.16601035881621,1331.34813099042,83.8676275872592,87.243787581354,6.71740409876207,43.8549645426858,1.40556981266595,300.562086323591,-54.1018340897905,408.874229197607,35.9478167250294
153.410815266216,4.7667192742326,737.62678326871,52.0893398747581,569.055359385258,4.97103566976867,310.178112142062,-3.66226501098015,470.104333157919,38.3043423163383,708.011897484422,82.5890385619523,1195.91651520786,111.188567177287,213.102737012745,10.1210501263617,549.279645160133,117.331619404036,399.373040896107,1.93131573184111,1361.49576499763,81.1764481666404,96.4272747010537,3.84083562283581,41.4408693215809,3.60499972024002,299.317858706332,-51.0976573050427,415.450823238553,37.0878229627176
156.548412847155,4.52870809690908,751.804304833938,51.9903092206121,574.255136611871,3.81293635374726,313.556229766341,-4.00992620427698,468.14358523567,40.6435179816475,713.312727072823,82.6545947454728,1202.7994977364,120.380812144449,219.020051373184,8.57935844815626,554.887755162102,118.532986668578,394.079189922717,3.26647514545844,1337.9180539928,82.6896598820207,81.1554923095083,10.9510989668422,45.3962396683931,-0.399864192550529,293.657459927755,-49.1243065005315,407.940265257825,34.8269501858813
150.55539522036,5.22842438107256,732.660023296611,45.5131778590385,569.817452007706,1.13431551980692,303.893385578543,-2.74038214234792,468.156966065821,34.5768088539353,691.213418708626,84.1230674957774,1163.65045474666,120.040607203742,207.687997516016,9.71977291171937,534.335499992362,125.230371956554,389.532861135215,3.79063075724558,1324.67845123731,81.8148764821328,80.2882816235869,13.4179401121674,46.4480736022568,-0.633517035466177,300.790427343698,-50.1203526719836,405.91708145168,36.6708161301437
151.905426452591,5.12939805086131,732.04726533487,55.1188941387484,575.051661733793,-5.00557985380802,307.191225185857,-3.22606290278227,470.534421039473,40.4739545680957,699.093999402478,83.8819731580783,1177.77160376453,114.316922896285,211.907541282524,9.36536568477076,541.86747464798,120.548378774812,396.024085455788,2.88327050003106,1348.24049880595,74.3590162157198,97.6823194059143,1.50318766360207,50.7402562082542,-2.9257189033483,309.87221031061,-56.2447862677628,415.250129819601,34.3671576822939
155.310477703116,4.60689628146588,757.58637418475,54.9796444319044,587.238230610895,-3.23745818129429,313.890828453481,-3.93826544646197,473.645571082358,45.6680119859022,712.411691988203,84.4834050026545,1192.53117624763,116.535417815438,218.930961624172,7.9485966337708,554.00526601023,122.245562248948,402.633821313167,2.03670019334939,1387.06109022802,76.4728415621942,93.1612578001459,4.86095671693094,49.963116994968,-3.17874827447507,292.662508618724,-45.9229077924951,422.902090177264,35.4625693377581
150.286705615695,4.92018077969094,726.898286453127,49.7627675315924,561.836160134602,2.57179413994644,302.321595730537,-2.08019184593788,449.001086883453,45.4724221752285,689.207792428901,83.4036631280385,1151.28245642839,122.369949150558,206.602172199127,10.0086307289471,542.241070160477,121.747465590018,389.753413150129,3.5276307194339,1321.68794850596,83.5768576538043,87.3631476722946,4.85813460697005,39.2004422730226,5.26440101018675,289.59463763923,-48.7783140128189,403.630185636888,38.5764794112162
150.406949277215,5.47536288417964,742.462797028369,46.585161465344,561.870701414876,7.25517873215842,304.480153731939,-2.48788277850033,461.655039365258,39.1006818800332,694.378251016515,83.162431527216,1163.50711306917,116.268247332806,207.704069211149,9.12920059996097,527.102069162042,126.674304326747,391.328563979057,3.9774404440552,1328.81996276982,80.9852579757913,85.2387462447793,6.75155187925417,43.0333916846879,-3.45679520059559,296.611653731942,-49.659883891714,407.899161147323,36.8941644643771
153.977704269258,4.96552418459846,736.519118482222,57.9034588995961,566.520258836452,7.74622565704713,311.62519084816,-3.57723200272128,469.859057712397,48.174828941385,706.815917942859,84.127792169452,1185.02016111077,118.589336387783,214.534725852248,9.46974333356508,551.111321586785,120.061951191808,398.446868940145,3.19906781175204,1370.44505590467,86.6382596276557,97.4943660451355,-1.242431410623,59.3813427149328,-9.33011464444086,289.269378374166,-45.5209544534123,416.083153259172,37.850658499481
150.492612430017,5.05914851114535,741.663580586387,45.1573780704685,567.387585710482,5.78995290524741,303.203214193768,-2.41909749069399,451.933487867946,42.4550301822322,685.386869382343,85.9679445939689,1150.16914502252,115.657035383791,204.72223868252,9.47353178294619,530.510781654653,126.92038161515,389.350873342017,2.98780421266299,1301.57034821781,89.1184189411895,86.5897834535091,6.70312023957713,34.9952444540903,2.33507806715316,287.947396053775,-46.1522208755512,406.999998654981,36.2888854829344
150.848678293679,5.13040099485231,733.994967259096,47.6406495546668,568.085634709292,4.22670104301831,304.319115780437,-2.47351120120538,460.322205286242,41.8552222504259,689.290820745591,84.2020628508595,1169.86062375312,111.936267204729,206.336062202208,9.43443841013753,545.465588840293,119.189909375714,391.762530900369,2.47680802476825,1314.13818092576,89.1571090257886,86.8981113233609,8.95387083375103,40.4274579220239,2.64750000023037,278.925838047237,-39.6757929212321,408.023994304403,36.3642650596325
153.593611247355,4.8546982862925,738.027638597098,56.3585365111046,570.259118361567,1.86224220593808,311.620569510954,-3.95842452451272,462.656251964456,45.0182654031632,704.510450534552,81.8977175450674,1180.98635006684,122.918253752244,213.552408949552,9.85005824390962,552.932272084831,113.971663593841,398.23778043913,3.21912602036948,1356.09196792073,84.1717887222701,96.2399058219946,1.52183279502283,47.0838275486463,-2.72811778646837,288.701529872846,-50.3758200518055,418.635635948633,34.4171194689067
156.864097987553,4.53813479718106,754.199925728583,48.1482130390019,576.259047021416,8.76034133114132,313.809871172203,-3.82027966735912,467.543970497466,44.3498653730371,709.105321948148,83.2118734049086,1205.24487888308,110.423858068049,216.019274745707,8.93775461022774,552.654972002757,123.158134529993,391.124868944014,4.92361347589692,1353.62790320083,74.2839481356215,92.2225800873967,5.77041831342434,41.9890664115455,1.20564349427399,304.081915165513,-59.6422952341657,404.152390333595,37.2393969787132
151.186802632065,5.02182295294643,725.492115264771,58.0253901376066,574.104456157999,-0.877758478128705,305.501889271114,-2.80284947798271,446.216994098929,50.2732760662003,689.058046896473,83.836120646919,1152.22528520493,119.068477265949,208.517229016781,8.43526730606798,531.722280545513,128.677581358807,389.062625725446,3.70986431697161,1310.6768117482,83.665060392028,86.6823806349735,7.02756477363819,34.1672423708607,3.89206444941815,276.553008667583,-38.8514227749004,406.982103793675,36.0259780224729
152.367976485628,4.94653956401085,723.03342336748,61.999983833013,563.214433474905,6.71814253837012,308.462656820985,-3.1151703345506,469.666929328459,40.0252137971289,697.596060976145,83.2523316036047,1165.48461761141,119.169770395379,208.977130244081,10.0552288487395,547.28316140833,120.079831744773,395.213750181486,4.20647714363573,1343.24877706079,84.4253262769403,95.2909766219196,3.06381759653704,50.8461142177796,-5.4918726508759,294.38995726999,-52.6803141880748,411.416917095038,37.5712557550819
155.802557276637,4.51115095574781,770.277837788649,46.6856449739137,576.664820773434,3.71690129325977,315.936610298786,-4.38237023310881,483.362099869257,37.9431872626631,709.440777332497,85.0303692577364,1203.39646470235,112.446783610654,218.606328823338,8.60690330350668,553.982477128953,124.278973667909,403.72175834539,1.98467295624364,1392.85826990001,71.2533555885606,95.9349573559144,5.77704198131156,44.8953770241854,0.236104024942275,282.001949194755,-43.5151395495025,423.370320289907,34.9642413716044
150.777186543143,4.71987036263492,726.977201812104,48.3134081609247,573.687241758006,1.852597288946,304.991916315979,-3.03290290027951,452.944959491866,41.0848582890009,686.948822642777,85.8226327630506,1150.67481506951,125.576843963726,205.919845351912,8.64223497119345,529.923657720374,128.438503420665,388.220693500278,4.28505076609568,1330.41595980289,77.424923576512,89.5770191884644,5.21468032937931,45.5602740611409,-2.27697725864452,285.650415055426,-46.6365944951953,405.072416000754,37.367700744491
152.04251564327,4.67354398200391,736.101310060214,53.1165659576691,567.095650008429,1.62608255350382,306.787356167505,-3.11485988898196,451.905151486421,47.7486913023606,691.752656871488,85.0625514736015,1155.44301970833,119.377034932122,207.129791991823,9.90373762784742,542.108810192479,121.729237175524,393.91379940445,3.02778504703946,1330.33990590612,80.0827795361003,89.7904346676663,1.82024655175429,45.6710237445025,-0.814130269071632,298.448603990791,-51.5756237658366,405.993533248757,38.7136748715238
154.221871109714,4.83924888805757,752.983420371077,52.5895280609821,580.231905843378,-3.3286759908993,314.141293924206,-4.69744875286141,473.908349094755,42.3143016978297,707.206953286791,83.7972828800167,1192.1573357397,118.614837609758,214.40975818694,9.48646522974145,561.205790174722,117.779242573794,399.121703249426,2.94142128324075,1375.25008288116,78.297619905358,95.9122882514736,2.73165100472873,45.4152471099498,-3.03600691344072,289.860776772133,-48.6163316187274,416.198247210773,36.8762099661374
150.74478486774,4.96866440441564,734.207700665968,44.9745937122394,570.144117734779,3.90342030644409,305.282239380127,-2.83474690493773,448.255805219863,42.6377869813864,683.908486255916,85.7237199301193,1159.6395397818,118.429270481552,205.301205217169,9.11415512630658,543.518314794803,116.203218607425,388.464873801696,4.74335287743,1306.77276376874,94.5797250824649,87.9144151741975,7.00890485259482,40.4166066493117,0.951333245721038,292.84753103038,-44.2302215876366,405.016769297098,36.6609582072015
151.755800784202,4.75792333629326,724.510728741924,54.3875740794025,571.949844355809,5.57723126348481,306.61776129276,-3.14364922555737,456.632214337461,40.0863677205059,689.397911847969,86.2706940202536,1153.14609051101,122.539473383968,206.162674863689,9.53452908886275,544.798270551135,116.944296651292,391.12783813478,3.70661972520154,1322.10076904725,83.7670310371655,86.85447372944,7.12277390660909,50.4760191845725,-6.87308766575162,310.223173091381,-62.6134480435049,406.483636427385,37.703207556615
154.301693644948,4.47956702956154,757.370903751502,46.5119092341198,567.048915317553,5.43205403652096,313.449475104003,-4.04563899016606,473.740532273735,40.0884199094901,706.027349073347,82.9621246486647,1202.55969656271,106.151442438496,213.593895002322,9.82432237794882,540.254342459995,127.311687564137,399.151983512869,3.29992853776543,1374.65242292619,76.4000261755663,93.1286360629086,6.52914220145882,52.0571885462388,-3.00264337593927,298.450102921949,-52.1075286814355,418.402477685788,36.4031137237927
154.909687145442,4.18113271374544,737.653883784625,59.1135867110718,567.85907665067,6.41742680812393,308.749097369895,-3.43206470431311,461.765499839963,40.8197068525095,692.264401046876,83.9769252443437,1171.2798797287,116.331363140486,207.061359885743,8.82125527024707,536.605363689787,123.488877936438,389.266711927104,3.82018832378064,1346.55946912561,60.7884037645143,80.0321505147077,10.6358292064177,37.3385484506651,2.75403442542236,297.012978255616,-55.358227271534,403.871614360248,36.6578722591202
151.883467899193,4.66551153664595,726.121876077903,51.6886450265124,563.968106511009,4.06201963669471,306.071102788079,-2.90698194429357,474.865170518127,30.7296789124106,690.971885577924,82.6328148080172,1158.77044866532,116.927819945161,206.639402990129,9.41725301093632,533.312308861147,124.887363170677,388.28670062215,4.02748176144653,1330.80006528496,67.5787700408593,88.7821272158274,4.80995376596388,38.8005578692096,2.37282962380116,290.988296487047,-46.308916484897,405.147822601933,36.9467957935138
153.265461229749,4.48329656497121,741.963837410467,45.9357085745336,564.711402464646,10.2209559203638,311.604633146881,-4.23495990132557,460.729213433914,43.6381621543349,702.36981417953,81.7800635920819,1179.99078268592,116.590378440387,208.72233022122,11.3404755974593,544.382174505779,120.530266670504,398.00131821542,1.77662777203611,1358.27160894286,73.8710240083528,89.7961111997889,2.51683111129526,41.2466425837208,0.271367466427192,307.320305982621,-58.1520188259132,414.169608808918,35.278249152839
156.409905124176,4.13378274965365,756.117633069915,45.0072038590736,586.746233521494,-5.09861699529951,315.204029522154,-4.55397928383371,478.422331943719,40.3021650316724,709.706386269642,82.1442087608955,1187.00940880826,124.419773561613,216.02283139355,9.32530278446431,541.601271635182,124.289784100995,393.57526445472,3.58479416410535,1329.36221989797,87.7887378933469,85.4882347675526,6.24506583818009,41.3130318904627,1.92558520199947,294.703672264978,-47.0927873779596,406.416623036617,35.0479735890864
150.530539425721,4.63053015237274,731.34350849793,46.3065041228453,567.654474278424,-0.253424557947093,305.559352904084,-3.55080457537229,448.555147186905,50.6434004517596,686.164912030404,84.824708048348,1148.32399272246,124.923282278862,204.006202489775,9.76089384570519,534.759608009256,125.750114496899,387.787072355527,4.88131699369115,1305.0625511104,90.2872324092568,88.1615090695949,6.42767872455706,42.0577977685604,4.13474370557046,287.546574727997,-51.5049008503356,403.270253761082,35.9138108694665
151.851095414376,4.62390756738159,728.577731519377,57.4976727165252,568.945873479623,3.54615780809927,308.676057707794,-4.0922376824786,456.155201428913,44.7239942785033,696.433553389292,82.621755505343,1169.70695394069,113.448371027173,207.050809221609,10.0005876334936,532.603376583586,126.723674793406,394.907816687159,2.70267144781983,1331.07296715352,88.2139171665356,88.8107376116322,6.0487004775097,45.0463984137558,-4.24148590797803,300.693024389195,-56.492242755008,411.025222736644,35.2405533816514
154.989123242682,4.22269993468557,742.833363650146,49.2518012138615,566.752690916567,8.26634064782006,314.340806186109,-4.47854934907012,474.158172846012,39.5656133176822,710.688151655357,84.0355960359275,1189.87534748796,114.851263861548,215.082183174205,8.8218859729932,547.855033459702,126.374189839297,399.352051538649,2.73197630670051,1364.70834250037,84.788156130305,89.1366820383956,8.04303567709509,38.715338205104,1.75609699948337,296.854766346514,-50.658378276541,413.607044703561,35.6637374949426
149.93235007274,4.60085747464846,721.157566970614,44.6053081174335,567.721409844037,3.03765433751739,304.817009456713,-3.78146435003313,441.699478044716,48.3113112455238,688.916512777619,82.5751822558834,1145.26492510191,121.31917556771,204.163348097393,8.30658624462125,536.876171320202,120.939165390268,389.543358956849,3.35040949264316,1324.63552322886,78.6608036196074,93.3622734722712,0.694762727999964,37.4933678491283,5.05543853546078,289.518626533073,-50.4217149546,404.983416432457,36.0964612441696
150.962357294964,4.51475967474901,718.127924171324,55.1154407771967,566.627935412985,0.827473136315239,307.369406476172,-4.01059113934476,458.584543451668,43.002133837336,690.649899960702,84.8765900880755,1167.80678525948,108.290937298846,205.268789712722,10.7197692397298,541.167348385607,125.972390958374,393.495456457727,2.90232475785417,1316.92416033079,91.2160142034635,91.9356641332397,5.66068222986578,37.7145248887274,1.94824719327084,305.972249577034,-53.9688374098642,407.111095364512,37.6138224542075
154.134470543126,4.23021152708248,736.062782123721,53.6464157575684,575.423988854248,-0.364256531711169,312.999093830621,-4.43497172830353,474.63359923123,43.8770588092749,704.078350233328,84.3426226410006,1174.81698949384,119.418790288714,214.690668372252,8.04868192516323,544.244020779974,120.767633095713,398.24895972236,3.14634118188162,1367.4600125226,71.6377522234347,87.0492595750792,5.76639303641784,39.5277838110735,1.5321038711322,301.056756629156,-49.5866297145633,416.480155956807,36.077105266019
149.69269547344,4.62279421061729,724.785711763019,42.0512908704505,566.358573853497,2.35781058925677,304.154728202495,-3.58600807658885,442.368354107264,48.8191243129578,683.383984867227,83.1701011576831,1137.95569163537,121.483765384263,203.29998558456,8.98948474171864,510.072407536459,134.97651938069,388.206937307092,4.21555498652821,1303.98958575857,89.4666959515525,86.2735390986149,2.74478085674042,40.6454568068575,1.53175719813343,306.386553656481,-54.2844028137281,405.585146543692,33.9650340578325
151.190584628644,4.32816695407295,714.570652354834,61.1110326940435,571.327745722526,2.73520634668406,306.463359692563,-4.13145495412211,462.571753896903,41.1534859821982,690.239573982402,83.8855129217382,1144.37418889081,121.574778104411,206.556008002054,9.20663408101119,535.558383405424,121.937768509784,391.383894850241,3.69999109938991,1330.14121044697,74.5400534090431,81.9616282031417,6.45206410429433,38.4443692404218,5.3867618508155,281.761769048982,-43.3290047264234,405.593930331747,37.217397184244
153.977795982336,4.23096948224515,739.928317845619,56.639224043191,579.195581772003,1.60940569171846,312.962396658608,-4.83782488408814,460.945316383862,45.8066213244702,706.726463321652,83.1771323649627,1173.31346081087,120.095035666832,211.074384959744,9.79833311494203,539.119610733219,124.92974112885,399.177359717474,2.51290897442671,1365.56769145249,79.4697873989331,95.6308337633299,5.08813969334996,55.4232787733002,-5.50422848440273,306.345836231972,-58.0037160689998,414.997461311115,37.6087549900258
151.234622578697,4.3463803632531,720.641241405539,54.3399126598302,565.644481926121,2.86559728390306,303.909714519425,-3.29551782937714,445.30065352899,43.8904742299503,683.716500229415,84.9273049636437,1137.26611949607,120.412595613079,202.482903196506,9.49704421970192,533.096070758407,121.67928601316,388.274981376831,3.17151328058926,1313.3514062003,78.7566137957441,84.1587200967287,8.51683498574805,42.9279696447813,-2.58629771459285,285.57701079418,-45.6070776916954,397.891905025388,38.3067042504784
150.532009120415,4.4631985876193,729.958106883186,47.1508910142817,559.634293980025,1.86449085348949,304.269106864933,-3.56501430191279,459.833581194012,36.5387650163984,686.030630916366,83.621130890282,1147.51155714827,118.714085262084,204.379310999778,8.75296255370666,520.64054932916,130.308093012386,389.267411860187,3.96698781111448,1315.95246862095,81.3373203153101,85.4588592858224,5.09759984421158,47.1225054608637,-0.808981381997053,299.138470793528,-57.2117437700723,403.98908149447,37.127525677069
153.562019964792,4.05683041627533,742.283656529637,41.9344129012102,573.258971752657,-2.01548915093299,310.712911634574,-4.5074231388133,458.486815537814,55.0359939903625,701.863409838967,83.66837377853,1182.56120501749,116.112644402332,210.584595206469,9.14858653220289,543.259584578863,119.091628765611,394.355998510847,4.29955141992286,1343.56045570874,84.9903454779548,85.1161533089782,5.61074558985899,43.2222056425487,-0.303637964356022,304.293724652022,-56.8839419649673,412.838294652346,35.7353592507996
155.966969645125,3.91934100781915,761.003401447118,43.2762256974797,578.88529447296,-0.731428702123405,311.141235339798,-4.72050831616284,461.684971432426,43.1122942106681,701.280477971787,80.8698803735606,1170.40869409669,123.792963219412,208.118837615455,9.85583404187671,539.355270682755,122.525545453061,388.726958947186,4.46049297127146,1306.82315079913,80.6475353403425,83.5676637814714,5.320000356607,45.3471835267007,2.05935203745514,295.032006219789,-53.2620253624826,401.369233108815,38.1427672970745
150.990936003601,4.47147165899081,735.299721926285,43.194629976168,567.651386692654,3.80568548087829,305.01877079841,-3.8255495450283,442.344554483341,47.8672343655168,689.231366455244,82.286698145566,1148.21238080994,117.027105654864,203.019085200347,10.9837904907634,518.271345906213,133.105916137151,387.0914367798,4.4693102198829,1318.32214149123,72.4420078822087,88.1327369044812,1.30349526275637,48.1447378483802,-2.54620464240935,290.085955923578,-48.3372878601237,400.836698060309,38.2192201949936
152.815539072035,4.21189794096365,742.759807429753,42.5478362711835,565.480467969217,2.03807415449716,309.218314859736,-4.34009490156984,456.370392761343,47.7551688004238,699.439032622723,81.9660183496378,1146.22565868123,135.934592676672,208.167987299196,9.46021564311798,537.434559390659,126.153058092405,394.299598441297,3.21173138496803,1359.10392356303,74.2662196824451,80.1380874816692,12.9354659607834,47.5547596470334,-0.460625999554296,311.197398232201,-58.2004524553709,411.27006618899,36.0032725522065
156.042818240067,3.88602756118533,754.245164520201,50.6298499486818,572.037369838225,6.18088179228345,315.650987483173,-5.15867508299033,476.824124393139,40.4359434719639,716.101743314349,81.381210950784,1197.0912486073,112.129008789892,218.212811869178,8.43174187396996,549.317126985458,125.266490759065,398.976645938059,2.3320194594334,1371.76060292637,76.0406513202796,84.3280342252715,12.3696964465128,42.4283093395718,0.965709525738102,302.684352395591,-50.2722843585686,411.204299376462,33.8688198444566
151.565046824241,4.35016258804091,738.106425283746,46.1122858999992,560.004177392387,5.45963522457089,306.297145236524,-3.80957164710169,444.389104348936,54.5101695301674,693.411462363148,83.0710243359424,1167.97025550925,108.302973906406,205.306375190323,9.82769946599032,524.279703737192,128.321199467264,391.047600266294,3.61898487210525,1308.65181006643,88.8781145043228,90.4439444388354,6.39298622768263,47.1104674290458,-0.253788199801843,305.125264925126,-47.2613651114491,406.513751020878,35.653612139121
153.620740313467,3.89422646470606,737.561572178869,57.7096258689708,575.419039396638,-1.68287553757351,309.953249793008,-4.65303386980366,450.297377606674,49.1874601040302,696.503069870487,83.5466722738505,1163.7206906705,123.060787180845,208.509885712768,10.0411234646573,538.773192421157,124.633026790076,394.404570371822,4.06267876944876,1336.63549848824,87.8647211230287,90.6506094093472,7.31501837848732,46.9486929681211,-4.20699964844461,305.399375305164,-56.6015775195397,412.845180690022,35.748834098737
156.238416092294,3.96983018492471,752.634803515623,51.0501424707901,584.260145852866,-1.80631285250771,316.264681782323,-5.4470174402692,477.366322877888,41.5769511193484,713.302688798257,83.9186604693819,1204.27584411754,108.588695649818,217.54326901645,8.91120294815846,548.254567661583,127.32533562366,401.640601358346,2.84820756468214,1377.22313622704,79.8701223940886,90.2620927597532,7.46834697886339,51.3645354868413,-3.07273068661001,304.266194970071,-52.8043939094147,417.486172650146,36.1567871018589
151.790623895624,4.31564617913982,723.048083235073,52.1940237912043,571.52653211109,3.04410094654226,305.941071109429,-3.75663960862244,454.385879967316,47.8446720233799,691.337919974791,82.3745116941969,1152.36308704539,122.132474325965,203.663133885951,9.81073456262409,535.157829890155,123.540319750666,391.233399897724,3.63112574655396,1313.04294767271,90.5139727119077,80.3529334881603,11.6758392183652,46.6365149795432,-0.831773432288883,299.637232909367,-52.3801522174154,411.261379951116,36.242290837811
153.2024105458,4.02961501005914,724.253330756276,59.690640004968,566.793768943408,5.59289076587774,308.856947943576,-4.50447005741246,478.188417559562,37.8206581504552,696.251174229196,84.708323458545,1172.58679944871,118.997291583929,208.774597473638,8.88949526788801,531.007002324366,133.774275727453,395.58437608024,3.16826818541751,1327.32880011933,83.5466926695935,91.1125750201825,8.27663464177105,48.0066501441112,-5.59449986744643,304.135002185766,-50.782852710468,412.62028774245,35.8462083844917
156.311597601255,3.89195679423226,752.394503718706,50.5965756851421,575.919862249578,6.25285621981759,315.866396046276,-5.58712011427672,486.139266144617,35.4343425535985,714.764534194192,82.3723499069073,1197.16695388505,115.548534871359,216.317278249158,8.96717849029405,549.441339370476,128.780550723263,401.52995828547,2.94794134208531,1394.71474211201,69.4042935707284,91.086600130962,5.62739808001271,44.6390547127376,1.83894323601089,298.336829921134,-53.2020231394468,422.608373629438,36.6498160679823
151.371990818364,4.42141591075071,717.856743156059,63.1028369704817,558.034464235664,12.6583496772301,305.141125773907,-4.27539607805638,458.54039058066,41.5442473156356,689.954353925015,82.7870716191384,1148.05678913846,120.13563925326,203.742731939596,10.0628596208297,536.723612975602,118.726152230023,387.637582558613,4.78367401135707,1309.83040632363,83.7716849131801,79.4615887627643,9.932376846064,43.0782074763361,0.395505855863374,300.576843267967,-46.2804057322136,406.665330188097,36.7770507005261
151.975346452129,4.35652508215271,738.713704973747,46.9421576156354,562.989367497566,6.38443865902779,306.183732243677,-4.07041819100779,456.982215168717,41.9807492209278,692.509051961898,83.7895867376693,1155.13585546383,120.634520792137,205.954553959169,9.74337847237051,541.229111031181,117.299805147416,392.943215105165,3.08250900706296,1330.87837170615,82.0432533628206,89.83521158329,-0.0618102073141131,40.0032668195999,1.71992223852064,300.126020081364,-52.2376494649236,408.82419738187,36.3258857491501
154.633886444707,4.22396431196045,728.165592728073,58.8155426440973,571.807662327384,5.37772112911501,312.388199472553,-4.7462795744691,460.981065769941,48.2948556375111,707.732326937729,82.9009493395941,1173.19829849145,128.399864920478,214.702960737989,8.96738551779706,551.89022969808,119.667412931453,400.189883603938,3.31594711552481,1356.18606153119,84.9530484493118,86.4569497455681,7.49035852001825,50.0980275794193,-5.57210977656625,307.08807246188,-62.5220464186162,417.928474522908,36.6669422422363
151.185671451524,4.07451777067684,726.107367640701,51.2684580923895,568.389998106233,6.55393460827474,304.467905722064,-4.15778616900153,443.369225707537,45.862834294058,686.731794199498,83.3829509351903,1145.22886758033,119.428074792032,203.476794960717,10.5151566086533,530.066281297921,130.480406979805,385.249962371124,5.75402827955636,1309.22067664219,80.0958324110128,86.0996612633145,7.63361142960543,46.5993329907713,1.11958905971405,297.871758611694,-48.284737275739,403.096437095239,36.9293019738361
151.227749151994,4.08525448997804,720.17837155707,48.0407736386746,563.696398155036,1.38401100980884,305.09755522155,-4.07961161318798,454.40164482691,45.622025135977,689.501369356011,83.6389840761442,1152.35941511145,117.427805789384,203.19085469974,10.7765157476688,529.426532905737,121.851256608965,388.974684038945,4.81488944749746,1305.29677769759,84.426309503053,81.277987125537,13.6372995865263,47.0539533587134,-3.4677478015202,305.08058043072,-59.4286848069372,405.695288176821,36.6777992992024
153.30079463612,4.1586247846454,743.813339041684,56.4503040260509,566.709269813559,1.9439130016867,310.485770059152,-4.7769093486855,467.315123992659,43.6623560886888,706.466920123172,81.1965013963906,1165.74886075054,124.456238301403,211.133929479019,9.45854018261972,545.019306855257,122.707274772757,396.468857478488,3.59119625915105,1365.4306127224,75.8532183598848,90.5612620328994,2.74635105639241,44.5947184989993,-4.15248203392461,289.364648760947,-45.8423690063697,412.707900913572,37.760724172502
150.768288451575,4.19992637728741,733.503894334094,44.9397641784621,561.826104840994,7.51516842441589,304.175182601514,-4.08242871429833,448.323886395085,47.0627768609235,689.020219843702,81.3159391285626,1154.10065164989,114.951991261656,202.468637593146,9.96695509208844,533.367924132845,123.032744666839,386.405399967048,4.46332645165156,1303.8982399407,73.3780519343431,77.4689550446866,14.5479676829381,42.7071862053831,0.178171341508887,291.299349955901,-47.6230658537495,403.589764048598,35.2257871380308
150.501329659422,4.44968527233035,737.380204430742,46.5226232424511,559.750303650688,0.750178402425094,304.289350477398,-3.8742264266846,447.358429962309,47.818173849829,688.79999626983,84.0166960583958,1141.26029230246,123.838129201149,203.849278832571,10.3854613818085,529.995072490699,125.183805335065,387.489065911021,5.87139839998855,1305.9438533908,82.8828206371001,85.7728641960598,5.64689809328168,50.4475717330307,-3.72938078077532,284.795737937312,-43.5241970991757,408.057315471966,34.4554428398494
153.056123924121,3.9683778710144,750.697320931346,44.0844233265992,567.795102804889,2.23688105272673,310.282552347164,-4.63658025466618,456.241091513993,48.6817163496026,702.453511189988,83.8379664296972,1156.43802878752,132.564096683527,211.51606891736,8.59827472042158,522.923393995881,138.554855474952,395.603358938922,3.47746338381653,1349.60220005592,74.0426540761899,93.2409401998741,2.15332280950584,42.5364035938647,1.91808097778617,304.796981527119,-48.9631275285144,414.622832508856,35.4432411798065
150.62209154279,4.06341927335245,732.391710839536,49.1464463832001,561.973590457253,7.78217985454392,304.080360530366,-4.3538011161861,446.740846464387,41.3000964719856,683.362390863576,84.7432413156296,1132.77912825111,122.466627502333,201.806279452898,10.0806988113461,531.117463839353,119.052913723059,386.486021951169,3.69996743950995,1306.21416824617,72.2945171119715,86.8575076434612,6.22390688752344,45.1249394112109,-2.72954866227703,297.904690885633,-53.0486466617138,400.948365736046,36.1256601881662
150.345943713021,4.28892645579955,699.689161462511,70.5952328370067,562.040519173813,2.74935085012914,304.331256387262,-4.19504156148678,446.044350204639,49.2809487988238,692.255460111872,81.7708614038768,1141.35007313525,124.021676081299,202.216451407954,10.7906842405066,527.616844547632,129.254249824147,388.34973083443,5.36108499260232,1322.28176191316,77.3369808083897,79.4343130116671,8.63547796329962,48.5194675914271,-3.8140990514962,289.70648737302,-52.9045096933571,404.952991473236,36.1494273131186
153.077084621241,3.88226983528031,753.982932326864,45.1697470458476,566.677450823709,3.64970078926287,310.279082814331,-4.67970824249135,456.164005789123,47.6016659879483,705.95420265389,81.8884869207322,1173.95398565051,119.888061050331,210.756681496423,9.18811974225308,538.569317796084,126.095339590465,396.115186464523,4.39033203025505,1350.07075944339,83.0476357417884,92.3244690054989,8.84729306368721,56.0167320972935,-6.72307614142407,307.267780455798,-56.4975043453332,412.656055250783,37.0478976867754
152.963845670233,3.85950802392193,730.664405934403,51.3315670795201,569.235109800586,4.11942753577785,305.160780677236,-4.27610826413707,444.413821020039,50.9833011307378,687.877716142049,83.1126802729824,1136.13958051337,125.266996409044,201.240207314578,11.3185585808289,524.125128719363,117.111189794367,386.927026841065,4.15608210264842,1296.16141473937,82.8095120383027,82.0131760537991,10.2926737167,39.2839753072799,1.68797530205731,282.251897366637,-40.6559099981148,399.635167997254,36.3306540714084
149.978710134301,4.179538104954,731.580243481325,42.1924715232393,557.181272870489,9.70810784190965,302.766387983074,-4.02734258552712,452.019165284216,44.3424083424295,687.669032980235,81.8046170143283,1150.10283370367,115.697113222524,202.066458227299,10.6073363739832,519.672589034547,128.404159845122,387.910644059395,3.91842548792373,1306.22401122135,86.1699842563842,80.2457868300549,5.33165812040687,36.6806500799305,0.856749295889339,285.218666558326,-44.7765209154531,400.215319493882,36.8779805871817
151.564707259656,4.16614325686559,728.977372427326,53.2101144201777,564.167155146662,8.2719896587463,307.835470206782,-4.64967541319755,455.97474831483,44.0665919110576,698.511103039837,82.6582253764652,1157.57687573971,120.311154102641,206.161023600011,10.6607710190885,537.37953170348,120.875363053166,394.204116351041,3.32343437683944,1331.51239431428,84.2855802398978,92.3914112076953,4.27762650469515,49.1642502123582,-6.37036468813072,304.11724566212,-52.6624438789617,410.658317886536,36.9792508973461
155.100576929895,3.51542591296911,761.384500416044,41.5347707606458,583.122399915504,-1.22538022557237,310.746624000728,-4.86089471005298,462.915962564245,43.4807848875583,706.012840519429,82.3975449594232,1173.46445235892,121.308890668514,211.879706600214,9.03711068764586,530.609167461333,127.827051795698,392.483514775467,2.66727861655551,1320.06909158457,82.4902456809361,77.4204630341867,10.5605494023807,42.8745421695631,2.96664285781058,312.849888051829,-56.7383462085623,400.71639703499,37.3865006178061
149.501093771588,4.03568318197585,712.967121551525,60.8834577312057,559.451683455821,2.17015589969904,302.351413467234,-3.79444939873816,447.438538704317,44.7206824156696,685.777775724597,84.8693027418212,1132.72056657302,125.28592931262,202.237682378538,10.9164184309162,527.241025150179,121.938052443472,387.868473618907,4.01723703340876,1302.45799989556,83.6619884957602,98.6189032080595,-1.63314824363328,40.1281647219938,1.47461574483841,299.153962867547,-52.5052975694279,401.684126900564,37.2931820982483
151.033244006994,4.00217424768104,729.319442297489,57.9174900927,561.109792620481,7.45503819324838,306.046683037023,-4.35535291641825,463.133363103321,45.0325443363232,694.632611612725,85.7461684373359,1165.12936114919,115.696744408057,209.141305535981,8.27096481539216,529.804434405174,127.254598505554,394.468179972613,4.30133195174291,1350.03136625617,74.663820422642,94.3239765610549,1.05693413122658,41.637819345784,2.79288672548738,294.128558700577,-45.408087804384,410.372606161197,36.8759401401225
153.698945378761,3.8926279965016,751.474208056716,51.2424886594428,577.142587817046,3.75881050105795,312.181971900979,-5.29415699279038,489.567925679907,34.2642587015175,715.054295458764,83.2941183896034,1185.09825221403,123.284998368181,214.935898433343,9.40511631218003,535.391933305805,129.097176767138,398.932575058821,2.56050711555758,1357.9737778331,86.7403218791293,85.7656481975376,8.79450660921521,43.6203791584668,-1.64419254156528,293.978441970274,-49.3386656064023,406.517452160307,35.8790089972455
149.084049591188,4.0438332555315,737.3733011789,46.6113996265106,568.968142726828,0.286516651010552,302.77633432128,-3.98726153971193,445.875537808367,50.4402627954396,691.821758959162,82.7179801618732,1135.15882686805,131.076621329057,204.492953410242,10.1966574940002,521.958096293705,131.818706824383,388.266175723239,5.70567553927418,1309.4774180428,88.7197780921423,86.3145370365249,5.34984560674467,39.4835677773082,2.31944039590462,302.21268674831,-52.3588529787832,403.728641476249,36.3643954855111
150.396849045602,4.18647531600893,732.902591395352,58.106080204032,569.085567093635,5.14589983541676,305.546749575145,-4.3322653445979,457.643090992044,44.2170966728345,696.296104028563,84.8254950663495,1164.30333509758,124.890202079947,207.964784679339,9.68796629132115,534.79369812267,125.427148906498,395.259212171054,4.47110753175965,1344.36282670307,74.8861206735448,89.1629688470062,4.08795230258421,46.4360508512408,-2.48956869725829,310.934657764409,-61.3441662049685,410.136927454145,37.9402132153592
153.692802592644,3.75176361523456,744.464238605716,56.2346629979663,580.457012756726,-1.62870969041174,312.316187855656,-5.2308656508047,488.872768145421,30.6074310959363,714.886971395004,83.2385884006391,1193.97098518228,121.674826672095,215.927309507817,8.81473121023616,538.067019679717,132.557214926284,401.042209788901,2.38690635380779,1368.39528820546,73.9600148808907,92.7911743945907,6.35351480796186,40.7773075647881,5.01945818327775,306.394342017006,-55.1294398498428,409.475119922588,35.8113098894294
148.924257322706,4.13871356932492,728.873406577154,56.2325371900745,564.248596669931,8.66311372713991,302.896066544856,-4.11557882760779,459.307430580841,40.6044436569083,693.149968176762,82.6658907308223,1148.68185694455,128.514937386,204.79362159239,10.5238686953967,529.457455063235,126.211199073989,391.720564236891,3.04406371567817,1314.20487486632,86.8740239539827,90.9056279803217,7.0670543158543,47.9704932424725,-4.4355124410484,302.807906573763,-58.0828872024496,405.258508045165,38.158966131366
150.402684397587,4.2727328620485,737.092914966827,54.8095240609788,565.791246033764,7.3939568435334,305.728110024785,-4.4675582503465,459.061192268874,43.1187145645227,702.999044718609,81.8194044432975,1169.93773581539,119.526154638782,207.212610246682,10.6046763784172,534.064743149302,123.598529577617,393.563564009777,4.17921659906693,1347.87356128792,85.0420109947034,90.4056338753413,7.12288868241278,39.7460370723182,1.75284461763737,297.339514199724,-47.7481707702723,414.609831214549,37.1480701460811
