947.965290068826,-110.737155633519,11.7195719514733,1.90984035668006,15.7637381783218,1.22065837817093,246.240053565375,-17.4510320641802,2.89495294160021,1.78670430269732,27.3602157770884,-2.95533148974762,17.998853910179,-5.79164387846869,2.98447816411455,1.03755469578289,406.662157208192,89.4845298147858,893.357988490006,-100.711288197736,946.151362720016,-33.1362119683633,133.802141024664,-17.0287458603825,65.0367331885983,6.7375942628119,586.358496103067,-93.7842304375185,1286.23722887672,-78.6345776580423
972.447922147008,-118.958400793016,4.37788514707106,3.46676080310018,19.5584082941154,-2.65335932529139,257.454304955282,-19.3533867055265,2.80373978691219,1.69994130808486,32.7488397314918,-3.85310885863096,14.1155402200152,-1.22621509694508,4.95415681416042,1.25322694386676,427.4385060706,85.7879227249004,926.613427353709,-111.054761164154,991.812119098566,-54.5657082471505,137.106588239182,-17.0447565642365,61.0508848970346,9.5053805036862,586.710819967301,-94.4194191021498,1283.26702100126,-77.5650103690461
950.731992575409,-116.682172337413,3.85515059974871,1.32705109744794,25.410124321518,-3.36092944986904,239.219417081351,-16.6710630158446,2.15306551316249,2.44140800122391,23.5308974955509,1.61537508024823,11.1263554235363,1.9799874140532,8.98975453549678,-0.91367682632956,407.283838745861,85.6163495934975,867.431032479894,-97.1903503717304,928.029156630506,-35.1043777575462,123.124974743875,-8.62173132153337,69.6508672291401,2.62247247555562,582.865581390527,-93.3372086348405,1282.51474274535,-78.0175397067346
954.489318531106,-117.907532624396,12.3005134617486,1.433850852105,25.3369852632788,-6.51487438172375,244.234052694159,-17.6374289714853,2.31783619769077,3.90467473674068,29.0927986025446,-3.5049914044227,6.50019943076008,0.691207058559801,5.82881398948247,0.20604373755167,413.146998045726,86.6817816806045,875.564860695467,-96.2466820989574,938.733182780519,-28.9110159140253,126.831197029729,-8.73537186546297,56.6362511477569,13.5570962526343,585.444925478159,-94.4859529009269,1278.9387498839,-76.9411178797067
970.530260803748,-122.607288229623,5.90353173285123,1.32429923890539,14.626138412425,0.160625300244645,256.503676618684,-19.4205158560225,5.47731531039436,-0.648651414944455,31.4035233253101,1.52185185605934,8.43652900422759,1.43904862523522,3.88459868332003,0.24382895051564,407.45904710935,96.5398160822973,912.876533152455,-101.657848177686,979.288669806721,-36.8735266110278,129.711988826124,-10.98337388118,62.2067871286055,7.50942612094379,587.504512547478,-94.4175668456833,1275.39196100997,-76.6772812844312
939.446687775831,-113.078489199044,2.85197091160914,5.37176359865357,23.1654263824834,-4.75365987958151,238.904975560841,-17.4469338405855,2.26352733470099,1.2581301863263,30.0921874187444,-2.29906195837725,12.9528445570266,-0.19112093956335,1.72784986996824,3.55448290529693,407.109401578767,81.0143587906864,849.84843761701,-97.5365981168053,930.497022629575,-42.9037869137708,130.936051792086,-12.5521712269771,57.5691726811466,7.55043209869073,583.268486002497,-93.7035756326421,1275.41015234485,-75.5487486352132
934.906857914371,-109.546550535644,19.0132320245325,-6.23854262022306,23.9491404791628,-3.76367024606738,242.036950805774,-17.6726724543282,1.44198773301275,2.22093294595612,27.9859849293237,-1.49112308990195,9.55283933567628,-1.95037877484764,6.88012690577437,1.68440693397961,408.844051437197,92.3224985546227,867.199360885193,-97.9493188820276,942.186542493997,-40.2810598139048,117.583307415158,-4.33817834425949,58.382670709302,7.48691027613268,585.171310389324,-94.1457230925684,1271.6817357428,-72.1464328420308
957.838801368608,-117.209171833216,7.95697711949989,3.81838737383266,20.1909359526874,-0.813115120712771,252.823147611701,-19.6543153642752,5.03021736038529,2.12427842352837,20.5019872802011,3.33217392507937,18.90935836717,-4.66403202410832,5.80240199401581,2.35265785043024,415.171824562858,93.6780576334173,908.269396620849,-105.274253116068,966.810226104775,-32.5296850454651,131.948982896564,-12.6698991226673,59.2110431707127,9.99555233266592,588.865676645795,-95.0516911238111,1276.02772803368,-78.1222570292817
952.740448758488,-118.1651179057,7.53595195725589,-0.389222464406526,24.8148670118732,-6.18457857302429,235.474607702404,-15.7246468226819,-2.99574582837009,5.75527107470645,26.95990115952,-1.03982588663752,9.28587776238735,0.445655304046057,6.98299380022626,-0.525156430928831,403.106485727182,86.2815311790258,835.051540432596,-92.9815540564535,920.450606604457,-35.0689318165405,133.54476873316,-16.3255157609772,59.5473147469067,11.0386854947965,585.362644600503,-94.4759948840042,1281.89322248138,-78.7051344686521
944.679390111551,-118.786269460834,16.5838430589838,-3.74893880249756,26.2420076274778,-3.81674291098271,237.599856745846,-17.7087946777268,6.91438881848487,-1.09356814165277,23.5664401435848,1.38210388535646,9.01522096319198,0.699109950814177,4.06209380152362,-0.652306335434228,400.979381762915,88.3367883875321,837.166002053387,-86.58184815524,922.731273122782,-37.0398597309389,127.624587589041,-10.1006313002293,60.3726130254562,11.9237353163196,586.524903271915,-94.2461399653873,1277.82592033696,-75.2916669637091
953.576525978869,-116.636758791869,9.18284331866075,-0.481840800993548,21.9006280881501,-5.25710196635545,248.072655183963,-19.3034911325884,3.12434663010251,2.90051823338653,30.1345750580301,-2.18467431183261,16.3143731802573,-3.99957951529424,1.24817107826923,0.473309894568692,407.982643899847,97.6624721392504,893.748558278207,-102.254163403047,955.519376654716,-43.2210692286682,128.35904684315,-12.1387556561216,62.0644173693042,9.90894865931577,589.409380861213,-94.9183280361406,1283.80812313941,-77.517965515328
974.144627307551,-118.284382158937,2.42358437255403,4.32631679077761,23.8062680336589,-5.39737820401016,243.249878691271,-17.5506230881197,2.08135147473027,1.83931333905224,25.7503879016079,2.68923281402785,17.1617536365419,-4.58434180119004,1.1947552349554,1.34739001728303,418.627970093767,84.8968468752342,829.080233809734,-93.3134907623421,929.552785416381,-40.5864367317623,130.299336858063,-10.0770853878039,54.4988504564801,8.98903871522136,587.160296664541,-94.9031134055684,1288.3265197095,-78.7967616397753
941.457646748,-115.099724724307,6.83050353281748,1.12066465234487,21.040222332564,1.14483469096984,235.232960061758,-15.8195636310418,-0.0667716569999593,6.1149544245057,22.1976004984157,0.396607897478989,11.7021036272953,-3.22583370329902,3.07298566943928,0.491434998532584,399.416355241693,92.6478662496818,850.856274555079,-102.330655459469,912.817201740232,-27.2947879619839,126.385273818367,-9.59315622918069,59.3406987181767,10.5572142517513,587.872824716281,-95.0139704107629,1281.18814584751,-74.6647103636487
956.856703366275,-124.937753352401,8.57280883812485,-1.40955564581718,13.8627621882155,3.9545336588195,241.186762377874,-16.5288667584982,4.05247448793811,2.83429579187613,24.9010081245479,3.6100169362571,11.2883043446335,-0.35144747468447,1.7510434381922,2.67843217320924,412.512844489897,86.1257409549444,875.680030574588,-103.00497949058,939.365007005623,-35.6978780766757,131.519085757765,-10.957046894789,62.5792197891726,6.58335785957251,589.609222114648,-95.4927169654641,1280.53429202705,-76.007477988405
977.990450705229,-126.8621061997,2.66464209634338,2.81514743709807,20.5061570698349,-2.95726794758663,254.661860201643,-19.3951621598344,5.65918313806842,-0.74061241608206,25.9111549358999,0.904817769798965,11.5774755958567,2.08843255086329,7.44904536056499,-0.194489063141647,421.032666147091,94.4646101803404,904.387924596722,-104.258957996522,979.291645646549,-46.2405170996358,142.655029027584,-19.3579316558245,58.4304486427236,13.5345058617993,589.576871110204,-95.3494359853183,1281.28453127776,-77.9611604284402
939.103316749986,-113.476136271501,5.60959453548708,-1.62351542314963,22.3727841072527,-2.24635849286557,236.410506606909,-17.2652693039526,3.39968326176786,0.196188189423241,28.5819077291357,1.78483431679093,8.26587132805891,-1.95263292610803,2.81113701427772,-0.585580563117277,400.208831021648,95.1521797661322,848.462902278246,-93.224149041875,924.05050713275,-33.4493891314846,133.247221656646,-11.5002859812858,57.9614221627599,10.4633886774274,589.029161647564,-95.200628095827,1283.29554564346,-76.7225746621881
947.864291773195,-112.91184964383,15.5800443080336,-3.55989937576901,21.3058447963254,-0.903160592344703,241.741717450579,-17.4281364896881,1.39858178491184,3.24169551783161,26.5886762538571,1.92444331392658,13.7552210747534,0.838041825969207,10.0004788824851,-1.77936733264907,419.197061450827,89.9980557467604,872.294834349686,-100.36634459867,937.798473713691,-34.0498654672966,133.283923667456,-14.6701674605768,61.9100803901101,11.101470693878,589.638035903332,-94.902057417205,1290.13530251036,-81.3015873473836
977.053919493986,-128.159950962156,2.02920914649235,4.53537714964441,17.3612778433574,2.03737883392967,251.872367114014,-18.3638095984934,4.12755805290546,0.902017291334836,27.3500241569501,-2.28239154447487,13.1788153507009,-0.62943737023248,1.42299624588546,2.75882695565227,420.595062513986,89.2727777146542,909.339474702454,-107.034782940677,969.209519474959,-42.6684207666061,136.167648271012,-17.5229565146841,53.2226200119081,16.7446010792078,591.844353684821,-95.8308671454875,1283.62955922286,-79.7487416232558
944.979200727621,-118.950706969203,-4.74192717455449,10.7668936371754,25.3260738963207,-0.00135002174907821,237.575591165652,-17.0297625588779,5.41522439131345,1.01010065547097,30.0695597724616,-3.20954129749949,11.2883133928817,-0.790071143839911,0.735363025946362,1.87488743671465,408.651597403311,94.7246468290579,846.927479384747,-90.9834362475522,929.451589185167,-38.3430548969275,135.967680120777,-14.5743838236738,63.5185937363656,5.94159340549042,588.879863854122,-95.0514864580253,1287.29088098976,-78.0488105076923
952.827388574923,-117.038875735839,13.1838215392141,-1.67318278785805,19.654241190877,-4.63361813701758,242.121858126339,-17.5396399001991,2.78281980396161,2.3602285922407,29.0079716215302,-0.367643240403408,7.42804212737143,0.628442747102116,1.35431171247921,1.40438280329256,416.827683173477,87.5154749167525,866.934724644185,-96.2485040775176,934.317709172024,-33.3027328698416,135.195129360398,-13.3506358725076,60.6363880269298,6.9843855592137,589.828712023808,-95.4349545575106,1290.71728087868,-79.6932684458472
963.662032105628,-116.34993862452,2.99383369450444,2.33924018239135,24.5394714904964,-4.21898231814386,254.851644155625,-19.3248043326636,6.89531696004852,-0.270332126589803,28.159494505584,-3.65393664580454,11.7749536311003,-1.53978628800701,8.57862954202956,1.24697590618555,427.602975420589,89.8147613708922,907.890461452785,-101.022406558437,967.016833162279,-41.5147246284655,130.991977183564,-8.9871041572953,56.5123014345338,13.3967572716983,591.419967862074,-95.4441094634011,1287.06348390122,-81.0669287561701
962.232288133429,-123.575434913558,-3.69754325702942,10.7028844331661,20.2012662582864,-2.33459483953365,241.704796915973,-17.6073382009042,1.33149980215069,1.70391985335163,26.9375616204084,-4.45272912930704,12.2912368670664,-1.2650406769345,8.40004628650059,-0.558969255577796,419.378364476589,88.777386764175,854.431500046208,-100.808875805882,916.140733522755,-23.5513245009998,138.036153852966,-18.6646816354224,56.9984890481697,10.3934486461352,587.607931506567,-94.2834301959923,1287.0775309239,-79.5318323189225
944.235744279002,-116.055680697025,7.94263064429738,1.77329333972442,21.9633037216885,-2.64489570336782,244.049899444541,-18.8249427094295,3.26127334301949,0.359273720102327,24.5543299361913,-0.138349682811106,14.3610571370627,-1.69406362445505,2.24245534045949,2.45270639251684,406.382894092411,98.5376545441578,866.227239814616,-97.0623413597278,938.87313597581,-35.8715995560048,131.55198938521,-12.8874467641032,56.51512299021,13.4472074829497,588.706400729661,-94.851213210482,1281.76119119186,-79.7005352014493
961.696355220683,-120.188456811075,5.39959692237681,3.27617562264769,22.1926117044139,-1.46136177762146,255.740327051508,-19.9228127237653,1.36866689563869,4.97407934398889,27.8061951888738,-0.689640078137973,11.7923875529527,-0.203534913809856,5.91360472773698,1.61821258356163,423.862152970927,89.9404058763821,919.685606525913,-111.633832532013,963.268117062508,-40.1684308515019,135.193744972566,-16.7448215594209,55.5224051001306,8.91062649432324,591.320355412885,-95.8160018153371,1271.28218312352,-79.2888429242857
989.010970317303,-124.468714521765,4.71434621517933,0.942992927804817,18.309211785152,-0.541296646624908,260.988236745581,-21.5581677130653,-0.917338877339093,2.55095460342725,29.3232158918493,-2.82460183453022,8.90077165514459,3.24294754978359,0.403705000772562,1.09948805077202,418.494680528337,94.8091763253924,882.328864665564,-104.262503958111,954.791229111788,-38.4486564425841,133.144309996562,-12.8854324591636,60.6631621037674,11.0021280340331,589.261709414268,-95.2236063404048,1273.28050742815,-77.7992414864511
948.2540556589,-122.847845948356,5.49435560899491,-0.0476301510273939,16.6639700796026,-1.05853141046924,244.782057968162,-17.5294648970233,4.43271650766998,0.0741012233137102,26.6446891054118,2.86468651503869,9.22328820270726,1.19878534946811,5.81698184819319,0.0604339448303174,409.366740144473,91.8965353774415,877.36127675884,-99.59369597932,952.601246140926,-46.9260105119289,129.891515126593,-13.1169854566093,56.6183803812539,8.32102681004269,588.858313896792,-95.0340422767643,1268.88580943563,-79.3915039452517
951.063059295764,-122.743417782281,3.79742874787865,2.29471377432944,13.3459164747678,0.69187562702136,252.249214582327,-18.6113910085051,3.47224507397678,3.41732776177339,20.8651529376563,2.70963819600079,12.9265148345095,-0.0461315273212025,0.533802164972672,0.0186445967688183,421.060384228373,86.6296193418822,909.421903828209,-105.31703957593,963.122925049337,-35.8631391054748,127.187132465652,-9.88299721240757,62.3585956108968,8.61316202834927,591.881800550071,-95.9653011515484,1267.95447559351,-79.4928963053208
982.435481471726,-124.366016043938,-0.612184365207363,5.03501700341283,25.3450025802188,-5.64648315063018,264.992155464636,-22.1333684037305,5.1414253698445,2.68154797561035,30.2413404747845,-3.10018919780913,12.0237576578626,1.71990415573941,8.60802753980989,-0.445832573282924,429.945836878516,92.0543529051604,925.560020258469,-111.291154072806,990.112773373225,-45.9311602177137,126.454840545332,-7.08309230760344,53.5959837908332,16.3922764042209,590.458721835347,-95.4952631571408,1263.96399042666,-75.2986265005559
938.037080056293,-115.063392377666,8.4378027849146,-2.74069907073624,15.4062473781968,1.25906182049509,246.962865351177,-19.1815788156977,5.84172533282089,-0.639684007107708,29.2238456178002,-2.00698228116749,13.6459542235872,-2.80282232468566,7.94959989366808,-2.07670442688165,406.193797514521,93.5191073642226,895.713277370938,-104.506660495613,944.272206695751,-34.2111917640873,125.124277131953,-11.0735587085518,47.1909320991102,13.7025724784368,588.916272970525,-94.7041036115544,1260.72097030422,-79.3217928088592
966.036611222321,-125.851839224155,7.02362292914438,4.22256934459536,13.1686392842865,3.11336928974665,253.465984813285,-19.6094816362664,4.45356196456758,1.22117308337433,25.4485222146512,1.01842181922995,10.194761731995,0.597456559137119,5.33359640606533,-0.779134731614798,421.596896623553,86.00610288703,923.002985309167,-112.293206203776,972.988686992079,-50.934860498775,119.221534190229,-5.67353045413403,62.3152495269647,8.8391558904123,590.436343404601,-94.9258555690953,1254.48844366768,-77.6441124678385
971.227100593534,-123.663708080012,3.52614668536434,5.76498843681847,24.1024349550884,-6.0037275264797,267.248078043631,-21.280603504244,8.70430832756949,-1.39014696879489,34.9301262996426,-5.51987721926102,10.2677452188423,-0.74806627624335,4.45918181464271,0.888225911792488,436.202890661859,91.8992896197384,963.646711152016,-120.753332083137,1004.78947000564,-48.8935131260641,129.311091920918,-13.8060889667604,64.1069413057497,9.70477752264996,592.433939944548,-95.7194496421985,1255.77430078595,-77.54418530491
950.479749849384,-124.880719449767,11.849014446854,-1.9312629353349,15.8152149804653,3.06056700412931,247.639945498614,-18.9870087660013,6.62371463891782,-0.245773970058236,26.0074613644771,-0.563357790877264,18.3477140263022,-5.49942928999598,9.43003339591079,-1.4436712745102,419.232343144987,88.3715488837775,891.916701526848,-104.178499973691,950.718622663776,-41.7499164723021,130.343404813338,-13.471716429832,57.4592623724193,10.9568425707125,590.287256286281,-94.9828882719824,1260.86622646672,-77.2358839550054
948.504748307047,-122.169173365542,5.65112347738309,2.25826960539576,19.2082523885802,-0.0780240080983962,252.800171637793,-19.2987769353827,3.43885220731132,1.46434843497948,29.9361911118292,-6.08561829991345,13.6318140308675,0.127373122860676,12.0581340200067,-2.93291091863062,417.063656630275,90.1187701115016,909.843150973184,-105.844679230897,955.851920142048,-37.9094695430544,131.877065577804,-14.4575308070681,58.6633404908244,6.95511049726116,591.20900312893,-94.9572876303821,1262.69618687047,-81.6258778330916
983.42288279421,-127.311396245965,5.45091561519939,1.23790085035059,22.4758321943148,-4.40320144085891,266.720695014507,-21.7101825598389,1.73772468550759,4.18840669922171,25.2457750970948,1.99043587444816,14.9207416170961,-2.29220949248561,-1.59984482258451,4.19250338100042,436.773744588602,84.9268773526677,960.115817537126,-111.200722991055,1002.04237022124,-43.8547470360257,128.32671591572,-13.678181852923,49.1139974642343,13.8519935257481,593.64264245852,-95.4358298303397,1259.81004530615,-79.7297712390444
949.816553291399,-117.117439290265,12.6071763451467,-1.86927440439953,21.3282187748884,-2.8176316214908,248.110001225699,-19.6894123903588,-0.390087597446538,3.28803870134015,33.1938990612922,-5.85025031460049,9.3645916895817,0.456392615655363,4.7284820938386,1.55621265653157,426.659566038146,81.4247374720389,878.592174451121,-102.328473380891,965.232216055785,-47.47174052538,129.807944664227,-13.7577162772692,55.9477557308361,10.1217909260404,590.857555172051,-95.7141883629155,1263.47304372166,-77.7063591158176
939.364681524285,-115.389260408236,9.19086128053651,-1.60726280384968,22.7514917208706,-6.1828508951371,250.629102564521,-18.8427619002192,4.61080592564239,2.86533971987484,23.3563552558877,2.53678693539035,15.8611810232285,-2.11242088520479,9.14530810931341,-1.01805120424326,426.46682939189,83.340270656057,900.691252471738,-101.778674318603,958.949825541261,-43.9074990359044,130.258159415796,-13.1948511532544,59.5328034139653,7.41788994791373,592.029918205754,-95.6096588897608,1266.38542973682,-80.3011278255208
971.512907950218,-123.729636587319,10.093770272011,0.175559964835116,20.4732081278199,-4.55427326980626,266.138014856253,-22.667281330406,3.78166543232053,1.67248803739191,23.7231606310685,1.87549917541023,7.75565077333998,2.22514918735676,1.69033661725979,2.75074480203606,441.915633738585,88.0788220173554,967.230892286952,-120.151938877007,1007.0806920274,-49.3285772026667,136.791228099582,-11.9308541815049,63.5696763969903,5.17042498431303,594.096827557483,-96.3073617544595,1261.55131285182,-78.204833362372
980.97651755109,-130.716443281339,2.34952612887348,1.30512867524061,20.156549688489,-3.51747927171211,252.328979786829,-19.4079697499844,7.66063566122535,-0.428555012210033,25.369635707943,1.635542069102,17.1250906092657,-5.2094126219403,4.42517990230894,0.347171846604446,422.509824971981,91.8666098785027,891.93907644715,-109.840359093221,952.661492722453,-35.9967854398142,136.678817169043,-16.1996550309792,50.0941036851771,14.8602615804669,590.746804649053,-95.4661828861383,1268.61401539596,-79.9101989892569
952.224053691376,-121.691210732935,14.9872509134798,-3.19996420883262,17.4460558388318,-0.572151132277809,249.955800817601,-18.4906567598535,2.78357997585901,0.456918742144801,22.2196260214071,3.985435640844,13.0152660014514,-2.25238586847802,-2.1426718936272,5.5396292265719,419.030514086816,90.6951738856479,905.028085392142,-105.590530001811,959.237630504288,-34.3660994493337,135.863822091489,-12.8044238635601,57.4734546030615,12.885966782887,590.287273530462,-94.359532897865,1265.08977913676,-78.6154879162034
968.669065009177,-125.081050506293,5.89667831128761,3.2496585369965,20.754612339579,-0.424821286157248,259.731385182308,-19.8425379566428,-1.76999900720215,6.69261541601424,27.5402469937326,-3.42555689286812,16.1272481669148,-4.85606698213303,1.82939716034134,1.99717662020862,437.069767211033,84.6824683884875,943.309285770012,-112.48082737413,1003.42133342197,-49.7276991563124,142.386515946663,-17.9126855675471,64.2817798961886,7.85740990618526,593.769907544652,-96.1396782673749,1268.3383107218,-80.1224763800491
988.25526000069,-125.079285579926,7.11199998216263,-0.152278040671813,15.6642861150925,1.75596647746299,264.022286190618,-21.7755394766445,4.13789378554991,0.985905951498108,24.8256614242608,1.86676650405678,7.73153365540083,0.00626877690929376,4.96331189358307,-0.619855928767369,438.779477877974,92.3526528254338,909.142340280296,-107.533205328659,980.369095948655,-44.1914649715576,138.108200370537,-17.1368011345763,62.27985066549,5.29438391949103,591.763904709028,-96.0248483198049,1271.64166997785,-80.9169330129623
962.92717491926,-121.954023169712,8.49466674573371,-1.14991320400926,22.4469331759001,-3.9364799039989,252.754896410004,-19.2935626471404,-1.44321283173009,2.61902509248999,30.856736986327,-1.78887588193133,20.7564205488969,-4.91519317940625,0.97364434358295,3.5062385705271,433.612404070698,89.0073597956083,910.84936140693,-106.243829964239,958.597416641951,-29.3804474440691,129.36709496833,-10.5151860886354,58.5198107817958,13.9510876233188,590.515167943697,-94.9954422473381,1260.00135193274,-77.8963055620312
961.469229893737,-116.065820549708,-5.5854080621657,13.536304482887,26.7166499196234,-4.89465935061268,260.703962850173,-21.5209133896075,0.179359231551926,1.84457156826181,26.8016919786319,-0.299974872466573,13.248597767438,-1.41874779414594,4.24228254379407,2.11752848034969,432.568442399118,84.4242693979398,943.256052567009,-113.009250657746,1001.97456110946,-50.2877039955305,129.454762360299,-13.579687132381,59.2497767635986,12.8602162297553,592.675001540448,-95.8986105874885,1257.97671336353,-74.7014674274807
994.202510844966,-131.287186539241,0.863150923231276,7.27401997367225,14.1121254616325,3.65595638302107,271.016221888425,-21.4753309147796,5.03292466827746,0.742434681398896,25.5459071336995,-0.140181995843601,16.5390321233226,-1.1732033090188,0.307335060351449,2.62587489373007,448.829261379754,86.1147528494976,959.164845831915,-115.272091648485,1018.14045285732,-40.9690526399754,143.430123307261,-17.5329857535597,64.0225160620804,8.23963773302832,592.292702729568,-95.6439556499656,1259.74830961053,-79.1894440459937
948.202662775059,-121.041441965646,3.98968138467017,4.13281661154786,13.9327249396134,3.32222417426075,250.197139906995,-18.771327990027,2.14785931404341,2.71022571008498,25.0097652078412,0.866646434602941,14.4264849346638,-3.32704066911706,2.05785533850433,1.00537115449397,430.303904344109,86.7966484652479,911.637829236829,-107.611546882934,984.919100434048,-54.7594846607738,133.357767078348,-13.6894117591896,53.8913450483695,10.2930523722744,588.623259670945,-95.2538620399861,1251.8899765527,-78.161889146139
960.313366866322,-126.541710145631,6.21992669710293,4.46409325066876,18.2037116619818,1.67113528517419,255.643188355135,-19.8094306044309,1.24087089985586,1.92293320979015,28.3468456609912,-1.00636019642774,7.7982616341074,1.83612881903729,5.10949202013852,0.902237209955588,439.127182443852,85.1801618102674,934.174349244607,-113.721170909371,991.172684273874,-44.7801192926556,126.192681594551,-9.16817079904285,62.3352648670182,10.496035757398,589.36831587812,-95.3398720588983,1249.83888613755,-75.4423208191483
985.351429054876,-126.335301520357,10.0576647232928,1.42682721183314,28.8203931981004,-4.70214304130463,267.443312485329,-21.7592214141865,0.299525344154527,4.40337032063872,32.5040084202267,-1.65589848961818,14.987107062941,-2.09018126594997,6.00653769221641,-0.680831108138524,440.655109788107,93.2797735009121,974.367919546001,-118.67430251867,1028.74364204201,-51.479215274959,132.027579733826,-12.315853471394,63.7478136920385,10.9194902544722,589.033206726853,-95.1205384546785,1244.57270815055,-77.4757135135058
957.505041475995,-129.046931672666,6.56395091930262,2.20885737388775,22.4655312763209,-1.93291952107741,244.491295871548,-17.5099324828581,11.1360493180722,-3.08701961364058,25.1363051692,-0.260677851376027,16.291052055874,-1.67224776767753,3.16626838725974,3.03114046628101,442.102481984999,75.2684603068275,907.665905095473,-112.342567089867,976.835345680738,-47.614227670723,130.75732083586,-12.1162568906385,65.0806443540501,6.75769835115311,586.093245368975,-94.6930227321895,1243.45530824749,-77.0215329124005
955.47173217973,-122.218770682632,4.46107419561179,1.68285723036039,23.0557271396665,-2.53814587375074,249.294638642689,-17.5171411486928,4.95069103522878,-1.34705273176931,26.6924653699347,2.13308261995787,10.5338406703753,-3.00108479516048,4.85652888150719,-0.070651021470028,424.588087869082,91.0028380586864,915.645066688761,-104.480327720381,981.516075537636,-48.3599046183664,132.337942118324,-15.1505964779488,63.923006473522,9.51841744769297,585.060887642625,-94.5687638505263,1234.66099302309,-75.9169618303852
963.998301868515,-122.600842170828,3.66399833930867,5.06979464953215,16.0421334017814,4.4822292685544,263.130853080534,-21.2688628034793,4.47364769979488,1.92853661310788,28.4714209166832,1.10988609656903,10.4126627667838,2.43719591145092,4.31980607026379,-0.487427400149689,452.235559213049,78.4577253608688,960.59693344779,-116.277807872644,1016.60988540548,-50.8217314708608,135.783734006164,-14.7231693019472,56.8624954255486,9.4027335743373,586.612177298012,-94.8968312856938,1235.08700672582,-78.7717536741249
951.126504217077,-126.667939968218,9.30137885159754,-0.737822104034045,16.9735920081047,0.169675299459319,245.8924457251,-19.2663764241143,9.22763020621462,-2.31425905874223,28.1502743320612,0.941358196732231,14.1483047051942,-4.92482896514117,1.25631108414343,2.15689295144064,431.27312294816,83.1592045609851,893.939356141509,-106.673818582444,974.860419412474,-49.9546770414814,120.604537739277,-5.0771307982043,54.4464635440589,11.9363646363232,583.010003839661,-94.386912389966,1233.14451973808,-74.7602530034065
950.828448318389,-125.192413869816,4.79449580253873,2.23056567453701,19.9657802252523,-0.425988833125857,247.314721361112,-17.5241516168401,1.37012426920935,2.15672709855255,34.913577780525,-5.92763079683148,15.2165487962888,-4.98964324361818,2.91991812266848,2.71930605950561,417.791810504411,98.2527734839248,914.608696593196,-110.061049560382,972.383875081431,-46.3444772699161,127.06951945825,-11.1822890977724,55.9832156384804,9.79610637163175,584.183829481011,-93.88734373541,1240.68810971185,-77.4320989202229
962.088004845807,-116.833047532727,0.415230797235751,6.42742071938618,24.0707942405989,-2.32954512078021,261.186150148664,-20.784173031482,11.8058694952994,-3.72770547224282,29.97903406273,-2.67911190364057,12.4389638618818,1.28966337215899,5.43357177662833,-0.0272279647394057,439.931502710032,86.5610517080627,952.322626899647,-117.234130321801,1006.05428028462,-48.9699020735842,139.123906483153,-18.4469250645289,57.7659630363767,11.7449148126267,586.4539507326,-94.6982367330539,1238.42971155068,-77.1850749984657
956.717798784886,-124.426288665322,3.82351943480469,4.05648080330383,29.2080429800027,-9.60302569847114,243.897809851368,-17.9674509982135,6.28770259831832,0.363362128477099,24.6311311552135,-0.264468195067977,13.7907640563239,-1.13098057362992,9.2744256062858,-1.41918507735235,435.203469552478,79.5052358443574,884.789937829772,-101.938109356458,966.89245737546,-46.0297425706341,121.630300891093,-8.064568534408,63.0614922093788,8.55621702308689,583.301603663824,-94.320768016058,1240.77119921095,-75.9685132571786
947.407690082334,-119.244703295614,0.44607475163551,5.71551933281197,22.7262065029984,-4.01105959646376,246.584946862756,-18.3160161611137,-1.59248880831484,3.51796563958647,19.596938403774,4.56127325805809,9.42136159216067,-0.0507909903220294,2.050134494058,0.92485996718169,428.660164468014,87.4258335450044,911.467035369138,-115.045125104504,974.872361054555,-46.1013634197751,128.157170639957,-13.5857371295543,53.7510944444637,9.73810661943519,584.100900733499,-94.15853896548,1237.19107717386,-75.2192898744955
959.55512673466,-122.267330488814,8.75849459104833,1.82761110745689,23.4787742335319,-4.60299778567203,258.639559923767,-20.0341686084896,1.29759575071708,1.57715879883096,32.4477938602985,-1.98921654174988,19.8209517312354,-4.44829736915097,4.09375427512749,0.0409470000985478,436.208427261875,90.1851962695529,946.620459013092,-112.825683381299,992.13398278569,-43.2334491054098,130.9145182557,-14.1027338013049,61.7914891493148,8.13529980982986,586.509248497929,-95.026446936604,1236.95186412892,-75.8500147653644
973.21040352191,-128.756882686801,-2.39684246606439,7.78102085078127,15.1857998833781,-0.419608881555009,247.492990183394,-19.2560203276902,-3.19298903456633,5.56666632580668,26.5078661819341,1.35473058252834,12.0184869249715,-0.712988492653758,10.0111274460005,-2.28836176520241,422.341595963664,89.3938177051537,885.347600375672,-105.010517272769,964.673016264929,-41.383047487688,125.572716195603,-10.1538537361117,58.9689522299685,9.20035312833116,583.240453825606,-94.0338163198551,1237.56030142686,-75.5132695056777
950.597925093718,-126.51214486027,8.18345135251572,1.27317471468384,14.8257557153165,0.398204131536538,245.18086098093,-18.3907563593729,11.4676369846797,-3.02747746479205,25.4503294782327,0.248279484930138,8.76170823402498,0.4335586171438,6.98855535551249,-1.38503458238018,433.669192488832,83.160359324426,891.63376080458,-103.282117900794,960.250395292498,-43.9495726153813,129.558385159598,-16.0928325030763,62.9481563590413,4.28837920894532,583.647783330529,-93.9697279350729,1234.60138236588,-76.9404831005453
954.194070137269,-122.069756563411,3.91230029162558,4.70858698876497,21.3049837195001,-2.44114157222043,254.603381758029,-19.750950741148,1.86939418896013,4.77562732036462,25.7171114121506,-1.03436422544557,9.76510356409343,-0.703861777785846,5.38297007201593,-0.94239015568157,429.041759846382,82.7133752192718,935.331473004668,-112.514421215512,982.484559458572,-41.2960963981331,125.944650237052,-7.81818300360873,53.6717215451034,12.5620228441493,584.201144890789,-94.5982593629029,1226.85752189402,-74.0331146706409
986.056918611527,-129.904242725863,9.92719860904102,-0.237246912919913,12.0987335541764,0.408208582171405,257.35004068644,-19.742845161291,-2.46325894606569,7.89310479715804,28.503404708227,-1.57148380683071,12.8569734406991,-0.623173510849408,4.65076577396874,0.869432201348182,432.027021902259,90.8296908912805,905.978022868624,-108.178493653,975.257682630153,-43.3965127243628,126.167936781157,-7.64413934955908,57.9238116589715,11.3192318652631,582.001342741018,-93.4821695540585,1231.90646953159,-75.0486078690039
942.421047233161,-124.774055676734,14.2752318348213,-1.62686976764233,12.5262653823808,1.66702668635013,243.62063673127,-18.947959331666,6.25185792956263,-0.213999288847267,23.8153996582502,1.68990296965781,14.9384027201079,-2.79770424891299,3.19306965984966,0.583438136308811,418.55748341458,85.7209889926205,892.960953768803,-112.933689558871,958.084861742093,-43.6858758951779,128.571693895221,-12.6273185493241,63.2526591750983,8.35277888455901,582.110912205573,-93.5976987245567,1228.32743764546,-75.2178264722066
945.47883886763,-123.432178031802,10.0440336044245,-0.823075565358261,16.1927032876014,2.38661577480678,249.048265387624,-18.3836443336188,5.49973306036726,-1.69993188025248,29.1878105671751,-2.69461023585753,13.8411514118173,-1.33223931421411,3.76023518429647,2.56694844005775,419.876096208036,93.6003025639712,933.096947839486,-118.641179861281,977.537083418476,-48.0098635578078,129.321628406354,-14.5722622418941,58.7104138804841,6.91257530639742,584.394613548386,-93.9549720917867,1225.35500815062,-73.3158674655708
971.665204691531,-125.756168066288,10.8375120191585,-2.33632110510822,18.3129198393347,-2.98643954082929,261.042651452426,-21.243834946855,-0.571936523278692,5.17177079166579,27.6774826387722,-1.86092961423333,18.9624624036121,-4.43808516382029,5.11352861776422,1.62249281946474,448.265644153021,80.8947510831512,954.440338736884,-112.853462933023,1002.98844713638,-43.1813129925199,134.449874814955,-15.3122874642401,62.1403171490175,6.27306671922762,584.364995112121,-93.6893656684657,1234.48469057162,-76.7013305002172
939.234763874797,-120.238989784129,14.8050774338596,-3.57474717638113,19.0168338358864,0.413537220709142,241.863646987364,-18.1759680075056,4.03508697909913,-0.362137664695414,24.1129088659631,3.32371086244633,12.1858395018316,0.539711972927608,0.87349484287983,2.03966305065243,419.564705862885,88.9304372847327,896.565088572603,-111.399129878475,952.888836347632,-48.562602027093,119.848498230239,-11.6788183899522,55.0657855664355,10.7876661473116,582.595651150535,-93.3826951391898,1234.30304940604,-73.5129364809795
944.219969089254,-126.78059841652,8.36277902294492,0.191554505347098,22.9554700127038,-3.32426930827285,246.675608514293,-18.7013402601559,-1.13817960936441,3.73532046714407,29.8571747011826,-1.03414464720935,9.12783938642755,1.9333607132217,3.85072717907268,-0.429051031636366,433.738585822342,80.7405879188338,907.496965195841,-103.707476397945,960.805881759977,-43.6578372745026,119.337806074652,-5.67738512971907,55.3004537352603,12.1022975146408,584.098042242984,-94.0137855114279,1229.71394997827,-73.0741939962546
967.752181975798,-121.883194550238,12.6593460182186,-3.5493206378823,16.8853573237068,-2.91211772938979,258.127890922389,-19.7267131096075,3.1333687078228,3.4772273986336,28.3560475969059,-1.70829751101575,11.491308982348,0.9527200341721,5.04905113334509,-0.826752596542833,435.109702906465,89.5460628204378,945.790301635639,-114.427309256848,1000.08292908805,-50.4417614094963,120.610489333384,-6.40593006373655,57.8496307700878,8.16888925123967,586.848831276245,-94.6761306508828,1233.33374015488,-75.8516136789447
939.032710009846,-119.225284407158,1.13022182874016,2.47372143612489,16.7919701389275,2.53018926508703,241.899129466257,-18.6450429232949,2.04179207454653,0.155591750765647,26.4655609133507,-1.74957650898041,14.2311156415681,-2.32989399258537,3.70380540150035,0.988673308910427,424.426632406775,85.462759855499,875.875326181077,-100.528142939716,945.033379561063,-43.4420246254525,118.548809999653,-6.80513905639291,63.4483830237023,3.19846354525691,583.363964121939,-93.6715868057675,1228.2029729355,-69.8930392115622
935.688191193036,-117.636103796287,9.91224801195433,-0.332189091517008,25.5910990301381,-5.76225652478486,244.506339131612,-18.6483586188034,1.30761324591733,1.87124425291417,22.4220911893903,3.64106512781362,14.0232519320491,-2.52170979998485,3.15609452087712,1.54836696834398,437.074343157334,76.3733442101983,899.346437813476,-107.023846874301,972.674280051587,-48.0086048273523,120.918869183552,-7.65226343507607,63.5955833064419,5.21060529120537,584.282603938892,-93.9613836052281,1230.6031416515,-72.9133764948276
965.948217944221,-126.922875007362,14.773473232371,-3.06357738652413,24.6013915409626,-3.79110812059108,256.256370145426,-20.3305960202986,3.26921581848878,1.04403450270301,15.2001555469927,4.70145204681936,15.4280148759907,-0.876638420280954,4.18937229011847,1.30766517210926,450.487125032583,77.4759143105776,938.960189544509,-113.40406626343,999.177667163561,-51.0232110407384,123.33881219809,-8.17943286753307,59.0899856121024,9.5005603895013,586.891210251009,-94.9940024328656,1234.30073336551,-74.7196612392591
942.516594859606,-121.314812246319,3.15595583899103,6.75047803626494,22.9703496645452,-3.81654127218421,241.175013779134,-18.7640062210891,0.374106344086206,2.33199723676882,29.0854194824227,-1.60443422581432,18.8705452990777,-3.23540684402596,0.607452022152704,1.17500056287245,423.156906349339,86.9316850182163,862.072690764798,-99.1527300157997,949.16556666508,-41.3320318961928,127.761893953823,-15.3554296266336,58.965801910466,8.83776172115645,582.891966213129,-94.2442746451473,1237.54891967496,-75.3280246730734
941.63939039473,-125.741834038424,5.84363990740248,1.02793143784257,14.3674423663748,0.812930146277774,241.540656287646,-18.2240118111118,2.11686348723034,1.00464617342398,15.9476941555677,6.15627331671269,13.3628267660344,1.41510818332305,3.20298582316818,0.502535020535926,429.658679362834,81.7013489636056,879.721105044484,-102.78582439861,953.510070738631,-40.2163124097631,121.421291340455,-7.43869732669239,52.4313284285771,9.44104184703627,582.351778753113,-94.1197401800702,1235.0669233063,-76.7975432178835
956.244285085637,-128.21242438097,11.35546167246,3.50646256530402,27.5116166235987,-5.59960567115524,251.17372210889,-18.828017446153,2.82570706735751,2.49761058095573,22.1816020452295,2.27011846804497,13.1126746229762,-1.26412623086216,6.5360626612809,-1.84096417174346,432.817984944244,83.5524599884117,926.077148969798,-113.52610577025,978.944739176629,-38.6217140615313,132.01163382935,-15.1428219274565,74.221428289405,0.0131690422801818,582.302908084442,-93.8987434330584,1226.96749040773,-73.1533648976895
970.799347286959,-121.519439668571,10.3405191610151,-1.43809227162396,23.0585006146824,-6.86729046655,254.07572948793,-20.0256508116516,3.68460736403382,1.60977197991003,29.113062932761,-4.3886234022174,15.1040971669905,-1.84243714996188,5.22297411127534,-0.19882721287227,444.212291103608,82.3309086305773,889.85583230631,-108.568183286953,963.65359800115,-40.5955710942422,121.090900749022,-7.22699096127673,57.6091076024676,10.7984547016669,582.444419109895,-94.113925556664,1237.05396442032,-72.2818101177282
936.982797290437,-118.1739908641,-1.39433364229168,9.37746315197972,18.627290844808,-3.70982935399411,241.60447386908,-17.7482439283249,2.13018351748245,2.6566192475446,28.0334983328274,1.49193768881137,10.1006810912422,1.06886986554916,6.9173501891434,-0.219447229133008,429.60705070399,82.6072366160666,877.268646667435,-101.878330404343,950.417272979766,-47.2518853184095,128.777113075412,-15.1167771937224,56.6579783726734,12.1083561351076,582.467654573954,-94.1181358242593,1243.38618075494,-75.435187779986
943.22878789119,-124.031633141379,7.91494315434895,0.423823148687912,19.2548114120684,0.582933808688714,246.831123921353,-18.3994704296489,0.619531480498075,3.77462548516957,28.6865416676666,-3.42217149677051,12.1905426452937,0.107825528505757,4.24288496304304,0.511005446922627,430.779372775205,79.3521562462534,907.033700627717,-109.2615948004,972.547780272489,-51.83839709445,131.211469731198,-14.3479865719944,54.2654861451962,9.16207023300203,586.000780751052,-95.2961323677001,1241.94073666751,-75.8250441924543
965.981437415825,-126.5528515999,7.17568392079725,0.526919166849593,17.0898418330766,1.09556483380812,258.134069404964,-20.6011835422397,-0.387217722939285,2.79455266825182,25.9996794733007,2.23315192677405,10.1572770245716,-1.46575977246688,5.54673957461817,-1.36721001462418,440.170206133652,83.0722646215785,935.14309219779,-116.735728573289,991.572661108815,-44.9826942550076,139.897846584846,-20.5653510304028,56.1605280647802,11.4913541028188,583.698309956916,-94.2043561077175,1241.0423612415,-76.0894718921704
944.737805573308,-132.060404338115,7.45819030336043,1.01855812502348,22.2996852476244,-6.37169312889968,240.636497748585,-18.168507478806,1.97323519399078,2.28467413590639,19.7820123511369,2.24364827959833,16.4358497444589,-5.00034869820976,1.5053328962814,1.01503295104663,434.01602607957,76.7960526264351,875.173204707345,-104.691945714268,950.627900440621,-45.6564686811593,122.406789740528,-10.8780467715978,63.0476630654556,6.18657157945029,582.701932942288,-94.2292105590133,1241.93163431126,-73.8596347907401
947.113186273311,-128.798611164087,10.5976794014934,1.29095178884376,23.0651374307525,-3.43859642397917,244.247183267431,-18.7704488218602,7.94348079561504,0.0196327875266337,28.2158530549562,-1.70275011382309,9.30598356011044,1.37181748952143,4.32355680061917,-0.0945130576429937,429.311433174542,90.1544512541785,903.793356007466,-111.561835684989,972.437139944294,-58.308906026915,126.377281364657,-12.6441012298178,52.0378146101448,15.1217776425538,584.232061212958,-94.4055982518003,1239.9927178875,-76.1245328212971
960.46198102618,-123.921592046326,9.09397981318429,-1.98707479571698,19.1822629597026,0.0717400849222857,255.467550571875,-19.9472057918957,4.83832225565387,1.4936539861291,28.0133067007531,0.284433779152005,3.22985741995727,2.16725472350013,6.11246312172183,-2.0840373564303,441.100346807373,85.1050175196357,945.403278483585,-118.813518930565,1006.99454114318,-58.9503813381997,127.63272738072,-10.5621512643233,60.3804689482938,7.71920656267994,586.515307445005,-94.5901694656004,1238.78102106139,-75.3747560260559
935.989692201817,-123.380606373236,8.2277812626966,-1.84532496477585,19.8115257445073,-1.62963039649576,236.326375203564,-17.8974068236935,3.05015732004955,3.52220085277982,19.0699517871296,3.11408484408774,16.6023706607317,-3.69889117391409,4.27780741662714,1.43317367175583,434.012608005441,77.6975733018031,857.419958969701,-95.3360549324974,950.775460849949,-41.5186333177747,129.136058387011,-13.3453630595877,57.7776607078166,12.654638688316,583.623367604295,-94.2885801221577,1236.49358458347,-71.319076879529
930.921448886497,-119.289026137471,0.8327663173524,6.06812451836909,12.6228157383168,-0.0503176290175925,240.370498171709,-18.7002359548102,0.690180139237864,3.02158680119366,26.9089222127934,-1.2501457038048,12.3729954015148,-1.39073649574152,3.27262745087776,0.466144357146071,421.831534198005,83.5813506687884,888.204276808139,-107.445404856403,952.318281784635,-45.3792238178713,125.337476111911,-10.6743161788639,52.4219128261838,13.776895544035,585.224301670778,-94.1957492582324,1236.30720244917,-71.0799954749789
965.434512934987,-132.75510774813,5.65510082271045,5.65893482215158,20.8365918093329,-0.981138148529804,250.932339095297,-18.1376555606874,-0.408297940559482,5.03254190982688,27.1463619647333,-3.23657187013028,16.4425310889901,-5.89084470739246,3.3048289935544,4.20330825412866,433.278015862233,89.3366095569137,927.597666773186,-111.538673669277,982.469462949098,-41.6493320297789,126.66357256766,-6.68091518350091,65.9120732568216,4.61241717990165,587.524158441148,-94.9023382883367,1242.02685358458,-76.5630398813283
942.92523683603,-116.190904797822,11.3570409832239,1.96790491180318,19.5917634216588,-2.73673426051372,241.215884378684,-19.4814183492904,0.358243077162111,2.87728824679289,26.6439701588016,2.75155754140213,13.7903001625565,-2.86068172444225,2.68399979309295,1.95441101048334,432.34456095971,80.4486897624834,853.686004444824,-99.3822514912193,928.60129623441,-42.2438850222185,121.681018327354,-7.24833446975928,63.7964298445178,7.16166461427214,584.391425377993,-94.2977107667544,1242.55859700783,-75.9573714171013
936.22452870651,-121.630000777582,0.908845850414388,6.01939453025932,24.9407110400129,-2.64903950565981,238.092124502726,-17.7016527192044,3.5969586803661,2.94982695119223,28.2943875694134,-3.02568418558678,8.76227136774771,-0.641325169172922,4.78607479013927,2.727532324274,424.818645658525,81.2898668321291,873.392861401179,-101.895907345971,937.904517861872,-43.4733249799652,121.526813268945,-7.77632087263749,60.2539930583846,8.52774769262692,585.10929458466,-94.4078641944297,1234.36306596295,-72.1164965131932
944.464761278796,-119.658126977413,8.56179268954714,0.786517424843947,16.7659345622612,-3.18045897572617,247.637192026017,-18.3471919945466,0.931202497166083,1.12005881141866,31.0409570929212,-0.689758526378347,16.4686750017098,-5.76971406336605,-2.94214949786345,6.96411178370131,435.323101869025,82.3571391430718,921.523161183813,-111.057882422507,967.352800035507,-39.8586730490808,124.180898389759,-13.4735015997734,55.5152146535004,8.64637443454995,587.161282543986,-94.3297904179595,1238.48664246463,-74.5739103199435
971.215631525437,-126.750392132991,13.9905259004485,-1.79683946043449,23.3617610099014,-3.84405871904369,254.588323792423,-18.9027473817488,7.41624528906328,-1.35312598746839,24.1352329725946,1.60947960772105,9.96244618776928,3.66512786646494,1.8318582017073,1.59218156872572,447.44758779077,77.184887839202,893.421897658437,-102.061056832147,977.478029377829,-51.6769721095365,126.255978792184,-11.1380250071053,59.2546341598588,7.46487161650812,585.566531947225,-93.9771018131671,1244.22132555348,-74.9411180991111
938.853600597104,-126.402479135086,11.30022351284,-3.24332099204508,19.1001796584657,0.774992681218333,240.3660858593,-18.4667411193779,-0.728948224892568,4.26140448133681,27.0146528665751,0.420479066413026,7.99402901591735,1.74629523615548,1.35051774493008,2.20475228432059,434.706400198985,76.1046905588965,882.682555590745,-105.014674867426,938.72799062019,-37.3496177618047,127.652788266472,-10.7797607722088,62.618055902101,6.30060547059871,586.387309481175,-94.007545382254,1243.74268399764,-77.5867370469392
947.380014791815,-126.219620312635,0.0290233365703628,4.019958916175,19.4009851179772,-1.3108686186971,245.007161583881,-18.9199538060097,6.36560060983469,1.65616942155597,19.4910501838998,3.22060979380976,8.67945485960278,3.19567537018371,0.548974533402877,3.17676642100074,427.490884891655,85.0582379478802,906.312072240708,-109.698777364528,963.757601109901,-44.6277535119063,135.474882387865,-18.5296959165739,50.8749035659367,15.4898544135372,588.237139376592,-94.6609993796277,1241.33524753289,-76.3258562331399
965.784290153568,-128.678131027939,5.3301850802529,2.05058347642279,19.6948249818588,-0.660293950205675,257.504393804105,-20.990349725902,5.53592652813646,0.925427176362772,27.901347042159,2.79719111574168,6.31097173879332,2.60175151912545,6.85155471684532,-0.160455165443475,460.34289354937,72.6442374032981,945.788114862002,-113.125753920447,1004.83534872043,-51.8976250454999,128.583343955919,-11.8098204927029,55.8291603662182,14.6449436606804,588.605185871786,-94.6782805747613,1243.6816692879,-78.3140802919225
938.192788062323,-126.691022949862,5.85339179619957,5.14387345794562,20.8600790756969,-1.2980028968471,237.415716221931,-17.9369165812447,1.97952447019052,0.707717362055132,28.991409209332,-2.25139295579157,8.98436112144209,4.92552682625412,5.55865136377468,0.2045445197976,428.212480376521,82.9635994789212,883.962952285763,-106.145197461959,947.223391759144,-44.037001382864,126.370382351492,-12.5768759375802,56.921251291948,11.1583647178171,587.671108487855,-95.0661972001885,1244.28173870078,-77.9333115119435
934.052828332153,-124.8999834583,8.39655010287938,-1.48721334312973,24.1698336983537,-4.08432738691108,243.382700287801,-19.3941040364741,3.40674488908521,0.638951329848018,22.6787535299627,-0.890111373109714,15.0437329333149,-4.49975757065056,2.35840401806696,1.06470743026795,425.949748362126,87.6343905359229,899.853102189452,-106.393130519029,963.204334046927,-45.3303996966592,136.870826202628,-18.091144653014,58.4353088894063,11.0382409376569,587.819298989628,-94.280929727523,1247.29291859764,-78.2758125613775
963.069015530668,-126.011244225708,10.624237970081,1.32872011268255,22.7014795996293,-4.05329438426405,256.439916260152,-20.8073448426647,2.50300359353556,1.44576925582313,22.6809598230026,2.21072544152269,9.61963051956123,0.541303968591544,4.20944150547457,-0.536986821334951,440.778359154722,81.7155202051583,938.232831842048,-112.994646638769,1003.59533540858,-51.9661580072421,134.185705262889,-13.7503218825696,61.3505920472836,11.2649256532972,590.337520498783,-95.0048820679092,1239.27895125853,-72.865915833836
935.568016376733,-122.090956319288,12.9230974595233,1.00589119213239,20.3190306406005,1.12022684197969,236.182415478553,-17.5029810250255,-0.216683184930355,1.71549165178374,28.9046775464034,-1.21626629997566,13.1164644193261,-0.696682189497506,5.45591382303122,0.0122011543450438,434.051855624636,76.5550957656648,865.474328280582,-97.7144626909712,937.689384867872,-42.3903866267802,125.238578180429,-12.5691055531787,58.6450470778216,4.74306169253178,586.67503452789,-94.3552202973767,1241.67785328798,-74.6302878033864
940.638098383549,-124.331130138188,8.18704018390579,1.48736198201026,18.8404526632346,-3.32409287432416,238.555998163856,-17.6424747810031,3.05272147496515,2.8900054306575,22.0746563348592,3.90084328569597,8.85045335882385,1.52947338029145,6.65776647643419,-1.48012158337025,433.844998464317,77.8675061175018,882.603893748815,-108.0624343906,958.455088635775,-53.8247792947499,136.453835517549,-18.6665826226901,60.5313856471504,8.01288708154313,586.915548932083,-94.2758127718338,1241.54282562543,-77.1344730481369
951.586740672944,-124.463217375179,10.4597803281209,-0.574757321676247,26.4071239070317,-4.35035749433279,252.095509521924,-20.262754256111,-1.60847170481168,3.54362723731665,32.1025725810223,-3.56716860601023,10.0886073627732,2.84426595287611,4.2921962513761,0.534559250698003,439.238221686924,83.4361895707394,915.119881073463,-106.879297760376,991.734056135487,-45.769854252504,135.757667075497,-15.8424416925067,65.9151389337323,11.81168153977,588.488062186853,-95.0613813333756,1236.3584963387,-73.893875173571
980.445281225202,-137.269880007922,8.07760680659129,1.21244870789825,24.2469216191604,-2.76314706837685,246.676724570389,-18.9231159891778,8.23662300468831,-0.411317663728339,26.2607830242317,-2.0694977230371,16.128787733197,-3.11008625385045,1.54568887518793,4.5756562612978,442.493035419914,79.2403066846572,869.050959876701,-99.9128543364047,962.501312399556,-43.1743748976624,128.046908412449,-13.2577662078694,58.1972753052112,10.2206645577105,585.34021204841,-94.4100371354331,1236.0580349422,-72.1461351958171
944.031028758096,-128.620601106829,-0.908666840260175,5.19692711544269,18.6401758889875,-2.02842382158703,239.268531738296,-18.0849418176115,4.40281448257792,0.796014399680062,28.9929548647945,-1.51708463509254,5.32237203927262,6.15024100867317,4.41615408039235,2.14420443588268,443.947524294967,75.0598652585322,877.08495922229,-102.837801127745,958.250666368831,-52.2999829187288,125.077922271915,-12.8360267874393,58.2891797945112,13.895810273789,586.020824592149,-94.6418366900581,1242.22315015571,-75.2284157971513
937.822689315763,-119.94189166423,7.47533520457915,1.50180646370878,14.4500013060412,0.0885123501887581,246.143566578063,-17.6908700808316,2.0590512686627,3.76923853718722,28.3912138916914,-0.606665375312445,16.0617437114941,-3.08948267419011,-1.37036630667931,4.41809582520622,446.887747104447,76.6140915415904,906.737213486464,-103.758395144503,957.769491742589,-31.1269544551478,121.388388487904,-4.84780290989665,59.9262847856177,5.89171554456249,587.700660162016,-94.5970708705505,1240.0397097213,-74.8949296887195
