965.212271946955,-130.91712487325,16.2007346147488,-3.45869986283591,15.8829257139442,2.70017556323041,252.624575178858,-20.0068081339907,-2.32804188781782,5.31105893416541,30.405457135516,-0.461869029425997,10.8141370909761,0.0467889791969124,6.41542497619856,-1.78573496760428,439.518734230665,84.8917696363097,935.411047228623,-114.782571751802,1026.11072395883,-56.5412219610343,125.539697150777,-10.0278890621462,63.6868397846029,8.7113223746598,588.455440457474,-95.3449258730154,1226.20737329927,-76.5515330881046
994.433692777476,-138.731297434621,0.896847470736842,1.46328724162297,14.0886515142611,0.116100203984078,251.167200554028,-19.9515571611882,-0.341352234229399,3.24691815216381,31.6784561915051,-3.10784493091934,7.67864114528021,0.560342278273958,10.1785457082926,-2.79324527802609,447.805626059086,76.0652257004978,879.508968530064,-104.025784845156,974.345704951492,-43.1711979168194,131.622446359969,-16.3964095045376,53.0747708570117,8.82898115119017,586.952602552865,-94.9434173243184,1226.67377744363,-69.3329342502491
950.986652492098,-129.164822478259,10.7947487990317,-0.903890705963556,16.4597098392371,-2.11634292043473,243.002428609142,-19.5238262402319,-2.52999436170834,5.41659639874792,32.3871076825951,-5.80588118591719,8.11171789616729,2.36845808846292,3.95816591805551,1.53674283582189,435.87437170054,79.8343598880357,881.475841286024,-101.813578850216,967.550389063725,-38.4030479093742,126.794435031377,-11.0342289359209,53.0674969777465,13.672256717737,589.651607988329,-95.9365518294762,1231.62818841385,-75.2724174800832
955.984281301467,-127.045226455436,1.47649561429471,6.4323604697432,13.2523361625136,1.67469208526144,249.654151792574,-19.4871030096064,4.89588636830598,-0.0759681265308237,33.5737270208695,-5.70554654649036,15.1349344821942,-0.391301459071364,6.17340645810809,-0.984087726680866,442.228070588906,81.282015680803,932.120755423744,-117.317081189861,1007.74836246522,-45.8936041327484,127.221355431586,-12.2464570208953,55.8702635664817,12.1334296562652,591.710080599567,-95.6287040053683,1232.93047815779,-74.3993307943324
982.622353650823,-132.260610718819,19.4005006263229,-7.13052658147258,17.6523837434289,1.47184616192549,263.778633922545,-22.5668757075572,6.5329556055994,-0.424186270125342,27.5071917672988,-0.249397260021612,10.6207303013507,-0.373298395562032,9.76247640934569,-2.35607515106294,450.108618895502,85.0470041799277,972.129190516834,-119.401987801398,1049.28364501759,-62.7705250137331,136.559025929358,-12.4271678784818,55.5605546147228,13.6649845151908,592.437030012222,-96.04127943653,1233.46541589628,-74.0610961070093
944.650936817058,-127.521722175483,0.901434906161966,4.90242772323469,27.0022626830589,-7.3684305798092,239.519878305714,-17.5635886805253,10.6263808262881,-2.74360081394461,30.9372480641033,-3.92092346952161,13.5981702535145,-4.56365462358387,-0.0471674030966462,2.82415394549077,437.42296432872,80.6538412595883,887.068989050011,-106.746042128035,983.010592903544,-46.654705211589,124.199615336254,-13.1823955830513,58.1812932403955,11.0755409130718,589.578381929396,-95.4152792703497,1230.83457852608,-72.2520739148372
956.825045755503,-130.955144790197,7.55493169669446,1.96223352281019,25.8666414145506,-6.05166319303769,245.71739589838,-20.1060643385359,1.06739453951024,1.69606781580753,24.9232691371799,0.655379245318165,11.3556235468278,-2.53443721307682,4.82831461542454,0.334972616306828,434.086511189424,84.6458988840078,900.550873510664,-102.784668588302,1000.07010071491,-52.3433547495993,126.534609966367,-12.6130619780344,57.5362475513042,11.04617363157,592.215782496745,-96.3696190336468,1226.02467127472,-73.062683613328
976.600215963912,-137.552385687082,2.90383256232289,2.37411095439465,22.734576925303,-0.295366677863155,259.055293641515,-21.2455607847544,4.44497898140648,1.41021074294487,31.2632635427538,-1.47182928266133,14.8540112223875,-3.71835410129574,2.4541596524741,0.947336496803441,450.350936628204,86.4769391324298,957.899201947992,-122.796620965763,1022.25434318793,-40.5546399668538,133.964754375144,-14.4812329479013,60.3225583794256,9.02708551037747,592.927620569732,-95.9711711404712,1234.11333994006,-76.3824846966563
951.784308634716,-129.123570554585,6.45691131677881,2.97936711636747,22.2412541566216,-2.81220549642651,239.912778910104,-19.0396265104132,7.99313203619155,-1.60652418785552,32.1639831402714,-1.04722783263342,11.0196266786992,-1.60488129308981,5.11850026780593,0.215045778242079,438.136030030811,75.194198391445,873.837391237321,-101.144057942544,960.961399077395,-37.1054318205516,127.082709335299,-10.5960451215764,55.8482857309747,11.4556825841635,589.121290688248,-95.0075990217689,1227.7430423839,-72.1414581118456
955.314051815628,-131.155015905367,9.15241769660786,-0.762472593499686,28.810793012426,-7.30100739825488,242.700722438184,-19.7562411441441,3.74198103062364,0.503278664865942,28.5741583620501,-1.15095470993348,15.6384580161635,-1.19908318051296,6.82315326788482,-1.90003723782961,431.443324354865,82.1588116757285,885.430763595349,-99.8535096521584,982.017635059169,-48.7167197504672,134.04806616076,-15.8204786863106,67.6804089370166,6.31206697842217,590.602386958865,-96.3149294118616,1227.98577874635,-74.8953272483357
983.003731823991,-137.526595746686,0.0555752390666399,9.99979873702538,17.4535840317061,-0.145757146814051,254.288679736912,-20.2224472178949,1.14498206749353,1.4046858407621,29.5339539211034,-1.39267720815645,20.8621573431723,-3.25563840213712,8.34325170431256,-0.314682381774848,438.25443973916,85.1526890878872,950.341840634112,-122.798829053428,1022.81096607656,-50.0315379558111,130.69857279283,-12.3189732485481,63.5504712430641,7.67166727169994,591.496493867535,-96.0378473965885,1224.3785519801,-73.0461706800169
994.894365444341,-137.878582774565,3.98734067124083,1.27450068225823,11.5051915616271,4.6218341406641,251.743925622234,-20.7811658572927,1.57582843932706,1.75250647615848,24.7171748049099,1.38670369662612,8.26954198343865,2.81401504198448,0.626129023728264,5.04990182012959,432.536581780915,89.3026953027899,882.081883853222,-105.832584501605,990.918541934629,-53.9991420184327,131.801284730515,-15.6172132376232,59.8997953386412,11.0075216314598,589.032101967068,-95.5596815577266,1231.87700363334,-74.7721851764452
949.703119557492,-130.190836530246,6.17022230862458,0.989515764489076,14.8322295080844,-0.695808208505822,245.150772155979,-19.5846391490003,3.57057327138677,-0.705798509557527,34.0049771245695,-6.20000658787456,12.8739139123135,-3.88279788870003,2.58834019943711,2.83221897508488,450.570798798108,71.2029359096355,887.826140414404,-104.464253432833,982.787022435985,-45.2071692997281,124.837719944878,-11.1234609783088,57.6666915192692,7.86116190500007,589.1923167144,-95.6162237470206,1232.33125595073,-74.5476668981497
969.319343789511,-136.331101611481,-5.55395727140953,9.37589859181206,17.2599484979176,-0.661891021143826,249.072593026999,-18.7751959451111,8.10617471722539,-0.234160034987501,25.3610545690912,2.62296059592791,10.6330641370242,0.861868523361739,4.76397714393658,1.15695088156764,446.35130226325,81.1277830297019,933.156686227491,-112.259370729577,1024.4526190771,-55.4440080967484,129.211051168217,-12.7953634491182,52.9459373641272,12.4575566745996,591.709562484086,-96.5711678653662,1225.37852080152,-75.7176929252721
980.708554200705,-129.567146991531,3.05679369834751,2.72791907259915,21.4281478221945,-1.48477333361594,253.377534410799,-21.3790181703882,3.61440997522534,2.28043276576128,36.3553249217948,-6.32968603053472,10.9522620513909,-1.08892075802294,2.3688764504329,1.35655213871925,452.01893061169,85.2949828405362,887.155029925246,-106.578685560997,990.207577693514,-44.2338773345673,125.425318575516,-11.8943419361349,60.0801346235392,11.0015312126745,588.662537150344,-95.52981186155,1232.54382636899,-74.7675942453477
953.581522777723,-125.94753639111,5.33247292718285,3.82695200957161,10.866753503255,4.62646037627977,244.345487165228,-19.0519045043693,0.721415544588274,7.29840424924317,18.8549277318162,4.39170027699575,13.62361329474,-2.27929564100807,5.64051969717912,0.788009977579856,440.507654942021,80.2550365107198,883.81661430033,-98.7680722174593,978.137855201855,-40.1766968955678,135.270170822376,-13.2059262892449,60.2315587836909,8.8674500717036,588.6490130405,-95.5701487507762,1228.75701968655,-72.4120128364356
961.622786847514,-130.822682518937,1.41116437167172,4.05766379658918,31.3216178580039,-7.69841976422002,251.933083908663,-21.7632768766836,4.2369305134244,1.33149930959455,28.4719886728805,-0.189077172903187,10.0153201395735,1.57461349156462,6.94236826997159,0.341018935341946,434.435032115969,88.3405284869343,923.105056498133,-111.06919050274,1008.66558201379,-52.0326377077622,130.570790886687,-14.4763034208697,57.2397131206183,11.2968839189435,590.749629920258,-96.0852881792552,1228.19027589844,-72.7122439355321
987.216429640055,-137.9188173234,4.03549529999615,2.42531138414209,17.0704328780559,0.983136414019517,260.953401143744,-20.634882066626,4.63015976092516,1.39744103258554,31.420608744217,-2.31581511500351,13.4289645346912,-1.81911845440893,5.74201013964698,1.21273671262706,455.34026057043,81.3001346268868,963.875314862368,-125.689424216025,1045.07679165404,-57.6812052474409,138.413385466413,-19.0413420778097,59.2951656079797,12.0163164931865,590.986787917537,-95.6980695325871,1227.1799011201,-72.6486472600528
939.340473483465,-121.0709757045,2.66859901288802,3.7132745345193,17.8691259253528,-2.4950920324838,239.138287558372,-18.9508651620539,-1.85680091374974,5.79973311704693,31.7499625860338,-2.49280971216664,12.2305629104847,-0.228792397528342,6.63749989998935,-1.28727546432537,434.824202870792,77.8024175265836,891.357484895994,-110.456084481408,979.04613637524,-50.300988513398,129.333026980976,-10.9176848349537,63.1245754747325,4.79201441237868,588.922029453918,-95.866183502115,1229.46846935961,-72.8231113168815
946.146977763117,-124.70778787668,10.0149761942035,1.06088259308404,22.8828524448902,-1.32268656869123,243.899176983524,-19.8996171801735,3.8094349817774,2.83693596975362,32.710187889842,-6.08445263239267,17.7415041721342,-6.34214041401847,4.92119913238979,-1.03403195735126,434.554741791617,83.8599013761315,902.916233452759,-105.901449351039,986.63511207958,-46.3349106900093,124.788895238693,-9.31435746982644,59.7872906470146,6.54015447349741,590.236480571057,-96.0154495568078,1230.03657068367,-73.3710256465342
971.688630016536,-133.527839428761,0.933751151331634,7.99174206787094,10.8578223417826,2.40466182235926,253.979643377356,-19.9232238717188,3.6027737712297,3.2108730476916,31.4354923044097,-2.16105137107018,12.5348526214382,-0.85314141095098,5.28300181273221,0.540079342762204,445.615696010679,81.1682856999395,940.774503622471,-113.787233321531,1019.39279709478,-49.9468505250736,135.18397090259,-16.4989220031225,55.4405860262425,12.0143511065255,591.86820405448,-96.2491094549973,1232.67090262383,-76.1686062982906
947.783974508192,-126.02036317974,4.44066034928157,0.209283090603919,16.1168104891188,3.86165587030403,234.289928666037,-17.3123591074712,3.83242469332852,5.137390565431,28.7464546263747,-2.24647093965143,20.1928640087141,-4.47912812052616,6.72567340992146,0.301281776264649,436.217346542658,78.8245193658737,857.100960365469,-94.0842583373325,961.976367324667,-44.0301903032757,126.059794156536,-10.1042703806114,64.3889058180233,4.42110625198834,588.834604441703,-95.8181131699793,1232.15466288887,-74.0759631614582
937.899598611652,-121.347026767038,3.73658508979379,1.2138467290763,17.4341443725957,4.16207351674789,239.63792663575,-18.0301096897601,4.15609047947042,-0.225892980413692,27.000080414748,-2.77852226194261,10.055409652086,-1.40235083746276,9.93084273061445,-1.49260326382995,422.276774514151,86.137464978881,871.358625036984,-103.660337359167,964.638507056965,-43.0778592842033,124.250774049027,-9.18586710326611,53.7864220317826,11.2709081416545,588.667058018487,-95.1655313350124,1224.83344035099,-70.1726271248118
959.651200788401,-129.81927086777,7.24288736981719,4.02140044141565,23.1781328513435,-1.25659320334523,250.944366804273,-20.2615806777871,-1.51651784189002,6.28134720030474,25.3692767328047,1.2682312962325,10.3451597132504,0.779007778861337,-1.80410944350691,4.19088968242452,434.737696832519,81.8001035804758,918.866072907776,-107.072129977348,1015.25361489894,-55.4696651811263,125.246390763165,-11.8280410994632,56.9525763604949,9.44777115513466,590.020313320728,-95.5789257403598,1231.65486276155,-74.556021333785
971.112030622871,-132.432732150768,13.2596794417356,0.365686086793807,13.9509476002565,2.8631095027352,241.825532113921,-18.9241067638094,0.874428398386947,3.59526924743544,35.8390677059566,-8.15238273359146,10.31470767126,-0.00336080846648642,4.24395727315431,-0.662058562215899,423.234237211592,86.3510808214519,852.59659712725,-99.4716541232925,938.913437957278,-29.1310499932184,127.07646966434,-11.6369720901263,62.1963002024176,6.0709819648969,588.062666721035,-95.138326026559,1230.55716125244,-74.05247663163
941.666379837346,-125.557142162575,12.8753690527579,-2.43108881428763,16.5189608460874,1.34776518595062,240.179518839796,-19.0025624738397,2.95307449696867,2.46726258091088,29.4509965023135,-1.75886870929606,14.9106110084919,-5.00676564232227,1.54138903708964,2.818066259436,427.964130404197,76.6085358059837,868.343003400009,-98.2192027703138,968.749073343156,-51.3259839171324,127.011840138346,-11.5362047670102,58.9284244570346,6.74869233044579,588.995588800819,-95.8664006095899,1227.12366679401,-71.9363729903167
961.138115242827,-134.560162446478,25.7574033357554,-7.83956893543339,22.622937713106,-1.62628190095243,247.416609784886,-19.8977316295745,1.33477079052096,1.36718808048353,17.2646894976779,3.59819498940697,12.6571402439303,-3.19672579654645,2.50448155826177,3.94904134632885,423.982169658428,92.0718287243364,918.080959327317,-110.292339821582,996.682211264091,-46.4062384445633,120.319319171361,-6.35513270935432,61.4155185525793,7.29115672241092,590.784068926294,-95.5051794944048,1226.70502531835,-73.990772028816
971.395265647198,-129.601367903633,3.49464066710704,5.00946493756673,29.033335617683,-5.68741228554924,256.56315807088,-20.6847325266062,6.04684416538267,-0.26543523348677,36.0941515762002,-5.6652933872573,6.2050606417319,3.94636867445859,4.29509537910041,-0.47432213591933,449.833810613765,84.7837223915129,901.497181360193,-104.305192422442,1010.1852694062,-57.2266648870422,128.575061159004,-14.3283944881171,53.2211802676151,13.6436022684273,589.284176460944,-95.9193794991223,1231.81610832909,-75.0725416160076
937.473218782924,-125.839883098131,12.8156950013958,-1.13526411726636,18.2457642457975,2.29439935321823,238.599865217388,-17.8816204954842,-1.64967297162562,6.78613585759034,27.6083916732596,-2.63489115596598,15.663686631865,-1.84697944755526,0.751513268392088,2.50590014688442,432.345264512325,77.0091027396847,873.555183306843,-102.368526369512,961.097700090257,-38.6590284519738,120.244633626859,-7.4187640399721,55.5600792603322,13.1695634225754,588.943416039429,-95.4688995289557,1227.83145832032,-74.2559981383254
942.54658151904,-125.730072728858,5.6946810499711,3.0179842225941,23.1023303112197,-2.90042017942203,245.218006148134,-19.2132637199977,4.42191098806179,0.84126857234568,28.4311837244439,-1.65108423144401,11.4333605155012,1.70256132357714,6.9758428701717,0.395158936233464,427.128169628289,89.2112748555759,902.371725863901,-107.353392254305,986.832291552088,-47.8390460678708,129.822259923239,-12.0205319956169,52.5006806746669,13.7074793741632,589.910747526471,-95.0159100700954,1219.58029795193,-70.7614263776969
967.969494187969,-131.541051514166,2.92086758406186,1.04633252340028,18.9305219607403,-2.19909731642076,255.915333693795,-21.0020720393948,4.72979609509129,0.401827684610782,21.4126189856664,3.45002564814122,15.9234130659237,-1.44066606375224,5.39055389350079,-1.44103109663271,433.388305704242,91.8217921859055,935.213588075451,-107.299372385462,1007.17743531344,-47.6151085535971,121.939821225303,-10.4277796272703,59.3004417444374,11.8350445808834,593.249088702823,-96.4007263668477,1219.73584713332,-71.4194452767945
927.537087160664,-120.777529428349,9.21748921997719,-1.74320212343099,24.7717261534661,-4.45235985508965,235.42051872822,-17.3560703566678,3.54308716105236,1.28286035269772,26.2572310950395,2.02492590675114,7.55598587569914,1.52401257432146,1.91592907685797,0.245589261505372,424.528203662936,84.7075633800351,863.697686507266,-107.456577353777,964.606764346648,-46.9006654830505,125.836904182622,-7.86267706249225,48.0659465031716,15.8227429688105,588.935188194898,-95.0002151903235,1220.32468504731,-69.9168769340084
935.849958809797,-124.865923299141,-1.74864691063796,5.15769030290779,17.961480044577,-0.439981065949318,240.582053391195,-19.3382747198265,-3.86674127592257,6.99643501083333,29.7344114598301,0.00482665889246893,13.827011745059,1.14256391355539,7.97162073959373,-0.780756126380398,421.578971385241,85.702480706743,885.688970507279,-110.185190769308,971.18975442407,-42.5904646882467,136.302786222987,-19.159267237903,62.170381700946,6.44087457732613,589.558906940988,-95.0850196095608,1209.27812581878,-68.7609366026309
955.236253727118,-129.401293917576,5.59370491227271,0.976530708140291,23.9625492051317,-2.8966556997045,252.283312927252,-20.1931793846373,0.0415764137329017,2.6864521800936,20.517746279793,7.33449442673026,12.0332936648524,-0.846636165171912,2.96329638757504,0.203502840521351,443.978634036847,81.0738424707356,932.864764788655,-118.449281622267,1000.51638942783,-46.2322798396057,128.913787610852,-14.7334493394937,56.7814795000994,12.4498544162681,592.550145830958,-96.4998664113215,1215.65714770555,-72.4811529108964
977.913625276063,-131.321937533335,9.58998382851668,-2.63500866967525,18.7686957556374,0.654501417448644,248.40997447752,-19.7114089127737,-2.51762023165163,4.04810285208609,27.9541420527009,0.807677811974405,20.0496857342089,-2.70256102054123,5.85063766287604,-0.674774976461534,446.758407005306,81.6464680881028,870.573946875505,-99.5343761295576,974.422945865353,-45.0360139400373,129.554730856319,-14.9968181480624,55.7450173642183,9.21705460986025,589.323078207552,-95.2842340693607,1218.79902109336,-71.5359119966653
942.450496447514,-126.303818274511,13.1324567592752,1.08058653468289,14.192574363757,0.648765126918479,239.352605662173,-18.2488885072561,4.19533712189702,0.757615800396794,26.8762498008098,-0.581894512884738,10.8411069300199,-0.462654123178075,4.33060805347281,0.722208325241448,429.792708596902,86.5171681316428,880.175063735457,-103.850690993958,963.369762045978,-41.35214736834,119.833869502051,-8.13267183029819,46.0786752277003,17.9734317856755,589.53003987077,-95.3859622962119,1218.3809901185,-73.1109797777114
951.568586826253,-124.022504287114,12.2582288497537,-0.137009021036999,19.4990462401128,-0.0362776944535774,248.401502340982,-19.8523379449925,2.69275126508712,1.72186929178556,23.1709302142568,0.236006408500249,7.21302017162792,1.37438358298887,8.57767841996945,-1.52035514668336,437.003793619334,84.1136966150422,924.946178636366,-110.684885421192,992.718488153019,-45.9501793836077,124.492866531495,-8.70673332354817,64.5256158120734,6.3727075631682,592.163746942302,-95.95235308569,1219.10441956406,-76.0313895989063
983.441930605135,-138.698151956355,8.4057945938248,-0.109922077482603,25.8619120598535,-3.2411737094439,261.182678807036,-22.3159018458668,9.80620214567303,0.206444516630433,31.9091604419836,1.28751206133834,14.633128511852,-4.60327256671197,4.68443984016546,2.34438521611889,443.547229775114,88.7546836146221,953.706913157836,-117.003481729971,1030.3641593271,-51.1101280920285,129.770649685371,-10.3238437837368,62.3757527476331,10.1737717099106,592.234799575006,-95.9745347511224,1221.35936709323,-76.2168348565995
943.450311152567,-131.114484013928,3.64962288405613,5.79630569729253,16.9527927535683,0.998374724624644,240.753637007619,-18.8460769543112,6.33541934004356,0.440153362496618,28.5683234178566,-0.450546959806905,10.2693200544778,1.00777687159148,0.377680073622712,1.89149177359331,427.201409946841,86.8794403643811,889.905820477906,-105.147424413256,984.087759906772,-47.7145532853685,128.016433211876,-8.56313192045905,62.5749732941797,8.33314699656383,591.360122734026,-96.2805203654126,1217.30315204591,-73.7419113756493
947.813821547486,-127.716116280136,7.68116466626253,1.99539472110386,17.101749970606,-1.38312217432012,245.456185153929,-19.7781998229876,-0.805135692829915,1.80571119759639,28.9110979969259,1.51254939308025,15.6428769137814,-0.462116188570173,1.87054611230578,3.61188012607534,430.115813635519,84.0317791803549,912.192217802367,-110.54948261279,1001.60360209611,-48.2949088948044,131.815728271797,-13.8161265378177,61.2568214013704,8.30280540532683,591.277279436034,-95.6907084072243,1216.01092973794,-70.4334178570237
975.138021358816,-133.49603518043,18.3850404301282,-6.41819536569663,17.4557229152613,-3.72889880177081,257.56146718647,-20.5895033484282,4.53141829736861,-0.752760274313413,21.7869964874593,5.00204545856283,16.5443774486724,-5.36553082364035,7.53949332159182,-1.95859081111083,454.93731869392,78.5969041813625,955.14075688048,-114.178772453337,1036.44549323717,-54.9255772283856,129.981600742676,-11.9453807154835,55.6355070119031,15.1033937773542,593.976407185744,-96.9844851322411,1216.73232184153,-74.8381989186652
935.026468101901,-120.119911789522,4.50099296604951,0.854200229721893,18.3104624206371,-0.854972044070406,236.943132702493,-17.217295414741,-0.925295367569832,5.89840885129532,19.8134511567679,4.05638399877284,15.6344361724413,-1.98166300766297,2.30520880527143,1.81780672173776,429.296665244633,86.8304592375153,880.939928361681,-103.556755746954,970.628631909879,-41.1330812094627,134.826137391498,-17.5779132941991,65.0298475921551,4.14815179361121,591.300774757212,-96.6174885849705,1216.93577983441,-74.6095402170084
931.608042948154,-120.766792541247,7.250242511046,-0.812703018601533,13.1465080555068,4.42921388738865,244.190215256963,-19.4071615652396,3.77130594538656,1.32160758937452,26.8994908593139,-3.04030527388631,15.5366969349382,-1.84600342550237,11.9614471312531,-1.51672870209549,428.766332969779,90.2258759707346,901.885291161873,-101.424047452198,985.139876446894,-40.7811819794803,130.692551383372,-12.4922072228356,60.2273572157059,10.5654335739934,592.434795963863,-96.1474446807606,1216.13315844578,-71.0206986655059
979.566866394697,-139.255482747109,14.7818316090049,-4.59351262545289,21.3852656613665,-4.05611274474314,256.298254683294,-20.4751717189214,-0.581989243939208,3.61930906559053,29.2460647288326,-1.64070739588754,4.8966943693879,6.05949640060682,8.8616961650627,0.758853347700974,445.026026456946,88.0100683727613,952.211484730832,-112.059184317141,1033.17881621677,-47.4518098650183,128.774644295784,-15.3664212325021,55.5581747974855,14.6764852389772,593.850226467468,-96.3122584922516,1219.87121033738,-75.557312769337
967.520998976076,-133.95621430891,15.298983610787,-1.23853709726598,20.1750444406935,-2.64691500761648,239.32532807151,-18.7269907183614,3.0141891543858,0.420445537120384,27.2860827693108,-1.91526699618545,15.4449204973105,-2.01696122471073,1.7550835491285,2.45464525510767,426.576678730452,88.12062890107,873.469850221113,-105.469085851404,973.656279653612,-46.6386907792126,123.826951770632,-11.2869902522001,62.950554987254,4.79480161797207,590.963370885689,-96.4817556665664,1220.73352718997,-71.8080710193904
938.577003008118,-124.955452620643,7.57804923894459,2.36580938228419,16.63680309264,2.70337324628396,240.295788945312,-17.9571628919345,3.02253131607492,1.84698778701895,30.7279635230419,-2.87330373142862,11.9330560075949,-1.68773198873227,6.35999897664059,-0.183518144720566,435.329877967873,83.7516552922308,879.992989488051,-96.8636841138613,974.279878790221,-41.4617946701431,133.457591740081,-15.2542142404437,63.5389065218521,6.99900201790964,591.803070493162,-96.3064532001122,1221.06669161314,-72.3657074615519
963.758993945187,-128.362855408182,-0.300892912386618,3.63260554037427,18.4834445838936,2.07389878656781,250.640928406907,-18.7758080702233,1.52319937748653,2.78618286954548,30.0659049044791,-4.44254386346784,15.5421189223838,-0.870098965623802,5.45918280269597,0.546574542061729,431.775851215512,89.2338559221951,935.186372514858,-109.681124241442,1024.87460829327,-55.6957564723028,128.031178619771,-12.1809875276583,49.3233103777794,14.0492307492712,594.227320471892,-96.5062365561466,1220.84925430537,-74.6047623222086
988.18651831016,-136.215396743879,5.31005796194855,2.01570454740775,18.4865844291075,0.228251995338362,258.132369450357,-21.0206008505992,0.577587077302637,1.2600051705426,28.9791481915316,-2.14433456137689,10.9772204297839,-0.960445467871415,3.01609951413807,1.82199383374547,452.141783651347,78.6132541008383,906.590585239609,-100.642284745033,1022.16063884272,-52.2442257284431,132.041516720118,-12.6247909819883,52.122222452189,12.5708688967931,591.726099759524,-96.4602592271619,1219.75759701266,-70.7718215595334
943.58695182911,-128.272345292364,8.51494306031438,-1.05806910378616,17.0351067312572,0.281763557927709,241.428261551988,-18.837876658623,6.65068967223074,-0.284482533381778,29.7604946517911,-1.80268878548608,7.17953119372438,3.65243829694436,3.66667857832496,1.69830413613037,428.93681816906,86.3590196330282,883.417469376244,-100.467323624083,990.792867741074,-46.8643966841316,123.153235367188,-10.5314625890874,55.920997732375,11.0954200038394,592.024740217359,-96.4320778681976,1218.71726619801,-73.3374592304565
955.845964716759,-135.018816100001,-0.371621627016839,7.92850483438902,16.9013015992417,-0.00618456190866332,246.477401855603,-19.5893060951932,4.35877194414576,1.46903579931786,21.725952946711,2.31620616524112,11.7986152578277,2.12453382132413,8.23350161100538,-1.26545830575639,443.981500646757,77.8155426178833,913.559345979348,-102.029029409061,1007.61616446133,-51.0845349721746,138.966000511241,-19.1097074208161,59.9461045794415,7.15682614681083,593.628147125541,-96.3430314550577,1219.83079998486,-74.2398408847612
972.621088671093,-131.059355318936,3.87279458319881,1.61107620683617,20.0211218599104,-0.812969932445667,258.786664342658,-21.691073052929,4.0396641840262,0.329489465953197,27.3232714972449,-2.27005411259308,9.34586799895104,2.31748301161569,4.4988771949542,0.364638541539279,442.151748405356,90.2852452648478,956.856913694218,-116.576946783042,1033.48572148012,-55.1092358249715,125.517498785443,-9.08743029138734,52.9500344453235,13.3948782134115,594.623925974861,-96.7156488464267,1223.3655878532,-76.7793796194394
942.538549728104,-129.332081217566,3.24073956066774,4.35380048231949,13.4284425648076,2.95599583173697,238.947462794999,-18.434753466507,9.07403019471116,2.51348935955017,33.2210293014893,-4.96420616328974,13.1919660601743,-1.59219300640215,4.37115706820945,2.66251972378485,427.626580192161,85.6311038826161,896.327587237168,-110.604466831494,982.692260652105,-42.0764921472106,124.51542637187,-14.0465911440215,70.5105760928125,0.593164071825461,592.232309980573,-96.2009902892319,1216.71951137584,-73.3617881439409
945.233371707017,-130.674397493181,4.41810544597927,6.85217693958321,19.4888707256203,0.682894784915263,245.643210196102,-19.6641448577823,-1.44360608393532,3.75758554395375,31.3225773885517,-2.63586268810362,8.34132231411087,0.897089556628317,6.97118612127595,-0.438097902631793,435.816615607319,84.4421475990441,903.569027577021,-102.440871402713,998.276352462438,-53.2470750148362,135.962601880966,-16.0722822182969,62.3723451741072,6.79183793768777,594.68022247812,-96.2599875348297,1216.87459200525,-72.5585490033
974.027318417546,-138.519235943835,4.80367852677862,4.77971091967714,20.3147363507738,-4.03602968705577,256.412108380565,-20.5130636103446,2.38918740310756,3.39699558300753,25.4244563330592,0.901357541780547,14.9917549419605,-2.42243777383356,9.5571108677268,-1.73202306726497,441.025322577075,90.6574526110042,952.663694533816,-111.343783378347,1027.59393620277,-54.1768861809907,132.423126470137,-16.3773302664474,68.0940380460863,2.30260908193875,595.088673308936,-96.7682855895085,1214.36669038877,-73.1316815953751
935.824142783125,-127.612758681681,10.6625567471984,-0.755341099405987,19.4811685359605,-1.50046741456315,237.874802688385,-18.3868276835302,9.47543500833064,-3.52170002323492,33.4920258033963,-5.20578519803023,10.0458274246259,2.11509003291745,2.61897048417596,2.01188730961094,435.162826270923,76.6546859343824,868.686632462854,-93.7978628732202,990.11866976012,-52.9512630777724,123.692883883265,-13.0779768895851,58.8261071389349,11.2552190359153,593.174376048666,-95.7370773383739,1216.7813564198,-73.9900645581672
948.578731771836,-131.319570874133,10.3950185627406,2.09503058020394,20.4150036055034,-1.36746246362267,241.377296861812,-18.4496112374818,-1.2961325703713,5.76936741576576,25.0846402019084,0.97231573476183,11.2219868981206,2.42175103060598,6.64354766590813,-1.08630640185886,433.139499240097,82.231821546173,906.474528427097,-108.583339201996,987.808021132159,-38.6381152508336,128.695584680815,-12.9720592366209,51.0119196337255,12.7790095525867,593.315769798758,-95.6874132258632,1215.14292505467,-72.7339586477483
971.601246501842,-140.699187649322,14.002822668147,-2.7455076291545,18.4734693333897,-0.492806681675576,255.321898653396,-21.0649197349928,5.82979939806771,-0.236163737976578,23.8050220230612,-1.37344668734029,17.1461573514787,-3.00436179187565,0.807081031764381,3.96107587816683,441.479417523501,78.8250555900377,956.728730622687,-123.75036146759,1035.71630820336,-58.960201034866,126.235227181063,-9.26821197251881,64.1396853907166,11.4925375492715,596.193949106426,-96.4512237614868,1209.44335929516,-69.1194692660212
937.021333318301,-129.906817122167,4.91242535560534,2.04058705854054,19.8820279255182,2.16357785050701,235.160043585827,-18.1523634540151,1.55286227811643,1.92116808868186,26.15833493466,0.0644662031424695,13.963106545395,-1.17142487496929,4.66659411558396,0.469721546119847,423.12894319993,87.0147176623291,863.029785714072,-100.291200148604,972.074088481267,-47.0686737881577,132.322479492888,-17.2522237238791,66.1684906518362,4.17108704477574,592.16331705706,-95.7516692624061,1211.79913037202,-69.6070305160697
929.224762123608,-121.192285278852,16.3280127150405,-4.27837146188009,24.0189260592139,-5.44061097888032,238.813549678692,-18.5620113482096,2.73206823529522,0.843624376013652,28.8459783913837,-3.48310242616827,9.9856978039884,0.265024730753334,2.18603463147102,1.33725471265891,423.311932881597,86.7148364366663,884.050249047565,-104.55284088975,974.124766925645,-43.4775569185657,124.017229289359,-11.7519089132326,54.0423897624619,11.5186091714485,592.074771197957,-95.7798409790613,1213.48915869335,-74.1334654185329
959.945545126477,-130.64165876349,12.3699991656138,-3.95834220902459,25.7666340364038,-9.03220375748801,249.772479993994,-19.9073308545709,3.33869719998446,0.135757323068804,28.8157898860379,-4.14382638107643,12.4534205423133,-2.50946387685194,3.95276787216762,0.660172995738757,424.866564043832,92.1543170196766,917.368294467386,-107.308539833858,1016.54784330321,-52.4911148561718,134.555880209959,-16.8882211154069,52.0713912858312,14.3626473846128,593.985280274935,-96.4193487760676,1209.27517271364,-71.9661920555204
960.942712663477,-127.127854139603,3.21788579805046,1.48989405440325,17.7151687118563,-2.47258014381445,240.198621017454,-19.8659180143708,0.0768258591769898,2.32926797549553,25.1041663301923,1.0522759940115,17.542446815616,-5.9719011473793,8.03630326205082,-1.95214948513923,421.502808422638,89.5666758075397,856.429089216203,-96.8880883571728,951.250597741405,-39.0205139081097,136.262921786752,-19.8901101876489,58.3939459789525,7.4603580700143,591.503562793608,-95.7795601079296,1213.09995923244,-70.2941720779733
933.657360223894,-125.118222862574,9.97011291968355,-3.67875451402063,22.7472704459526,-2.03431134121607,236.097434724355,-17.802000828377,0.835877795508957,2.26987397829878,28.5082417153051,-1.18432824997792,18.7403036506107,-6.37352363877475,5.33247656043836,-0.912479491616575,427.542673814817,80.6823199367896,866.63742456288,-94.748541685896,961.77540997944,-45.8777831930572,127.898473519056,-13.020939355981,48.9842520990078,16.4294424686932,591.509703457699,-95.3436851255688,1207.94985902098,-67.8631772893259
940.684104983283,-123.250602212488,-1.08212789268383,7.69374784930146,14.6698805502303,2.08947538375225,244.119058921884,-19.6525839674331,-0.209084494406986,3.46202665435196,24.0926424661096,2.30149100252685,14.7787294163421,-0.152808706550707,3.99293131934445,2.07697167706907,442.56380609693,76.2562440134269,916.699356525733,-110.709688526452,995.828921886066,-53.2626663675748,131.151340483228,-11.5374345970375,65.2817491839026,6.05886834930189,593.703418871881,-95.7574434503227,1207.02070587563,-69.0186213442525
968.446840086371,-132.231773016718,11.7980268516695,-1.51633523452856,26.6331343621696,-4.98589715745394,246.423300258343,-20.1789166343357,0.111887178959987,2.4516837613101,25.6245724115931,1.79898738487714,11.7648688666688,-0.4581492415451,5.27340558001962,2.77885590454384,439.95959752086,82.5316640730426,864.383210105339,-101.128636399203,961.24352934543,-34.3528891760029,126.076795398489,-12.3640838888816,56.0379428021002,9.42577781224197,590.78454862806,-96.0360794325658,1215.93939212472,-73.5128996865231
925.739762876721,-123.225416354134,1.83847127584351,8.99533570169774,14.1469429828942,3.88340536434267,237.247009845825,-18.1903752903171,-1.39779699290358,3.84896586757829,30.123331373779,-3.96214388478255,9.12512303046312,2.35019247181428,7.9745167619055,-2.28387507901052,426.257641909968,80.2560373342093,868.649035624834,-100.939141567715,965.168835450162,-42.2844819349687,129.575338570662,-14.2190400184829,57.1233836741639,6.5103979212688,590.714064673861,-95.2293680866323,1209.75177331986,-70.8305529907713
939.26578139688,-129.528076643033,11.0692155130046,-0.512515923377069,16.1255034876739,0.596037622632403,243.309003999113,-19.462674449765,3.0080970815029,0.819842765023079,27.8042309407508,-0.334220525096723,9.99251969141915,-0.846707576204917,4.63382228525036,-1.41316088486263,427.182661848176,88.4907512161072,916.96844961693,-113.76597047264,992.499182392173,-47.2961601912928,127.181750013718,-11.293107115132,57.6007260780471,9.19834423760756,591.651299584305,-95.0979113767759,1211.92948201554,-73.2006649194682
961.433564416755,-131.246257128257,4.48495613596335,0.567311329463405,19.123637599716,-3.28593689779816,252.891461060728,-20.4532010669706,3.82317728656611,1.2986837187263,40.0373316881696,-4.93621346596277,12.7406018331654,1.2456677616633,4.59394356245967,1.16352881490647,433.194469789897,88.9896261270139,900.327107393343,-104.39012736441,991.59797403664,-44.1106389420707,125.796741087663,-7.51843359814172,64.0043752486405,6.37516463636996,590.692135730239,-95.8108668191986,1217.13857515016,-74.3358430065135
919.217075922924,-124.853750878186,12.1276149938927,-0.561799228782922,17.8350906543109,2.21781035512283,235.073297315707,-17.4122272233231,1.62367115228535,2.42837373434356,27.7155898365979,0.548980013223112,14.1005549311712,-2.61140975443663,3.20956743143759,0.744903619055496,425.222664199607,87.9736453250409,875.755694773487,-106.470615787009,963.101366144602,-54.7345277594896,124.520179839901,-11.185029135743,52.5641901801373,12.6677028223619,590.475141343976,-95.5126236680425,1215.39296291506,-72.3569979444536
935.613121061841,-127.785805198157,10.3601940636522,3.96538193673626,18.1632974725596,-0.89060399443786,242.262482049574,-20.0176968198856,-0.214538110632633,4.76346868746768,25.3167874470062,-3.96777124522773,12.086652702824,-3.2378638966945,7.87394439021108,-1.56295278706838,423.12130975818,84.1912641770751,897.805937469458,-104.945983523778,983.391241838678,-50.9315729506833,132.847387112946,-15.7015422076566,54.6587089259815,9.69283248529748,592.272130278426,-96.1065715547337,1215.21000928822,-75.5178406934085
955.308042863887,-126.987032044079,16.8529978272175,-4.62951812842211,17.6435332499742,-0.890907285853795,251.771695213534,-20.0791720980559,1.78679217009515,0.8139028458106,27.8638114917905,-1.38691194317148,8.08477329044713,1.36809128747589,5.59315954301137,-0.584310499411604,444.037637856135,82.9016025153601,934.526833203799,-110.62221761451,1018.06963630268,-51.8140464854759,129.974433716552,-16.8958406873186,58.4936078271983,11.2533782702669,593.738445797495,-96.7848227716333,1207.54045751284,-71.1355829246021
916.44447474649,-121.773755859223,5.43119500610657,0.479902377787999,25.5876447533813,-3.75225869823841,230.349730734396,-16.2980474849433,-1.40211402428966,6.92244923036516,24.7287297514666,-3.4699905908088,6.95027703193131,5.48388434818262,3.96109842415457,1.3599565482342,418.031488654423,88.2098546349494,858.938855611536,-102.03369325803,947.539690413883,-38.0727648049624,122.098690634893,-11.0948949263753,46.2534636615803,14.9127494585666,589.847795466039,-95.5468336474657,1213.58216203698,-72.270422682132
920.509811090984,-120.844295931688,-0.419600889083181,9.81817992513983,20.546304591946,-3.52388234508733,236.329136890569,-17.932336012469,2.00220306327292,3.13117900332099,23.7216339444289,0.794850765525009,9.28723403322461,2.04927300670155,-1.97065811332457,4.19385040660312,409.683513414807,94.7070384504795,884.066335014032,-106.194008633391,966.257983246329,-45.21665158353,131.08595477841,-13.7317313269393,54.7850387283422,14.1436898515066,590.45842995332,-95.7303532274936,1208.7027624835,-71.4535731822623
951.423090223068,-127.74160652872,8.38833859324182,4.16103556706427,16.3419639460343,1.21119718578658,250.699797618536,-20.7402913793114,1.96429616200546,1.42193242467144,25.2477706548935,-0.312649903213978,13.5813898751735,-2.61629071992307,3.77870588950705,1.09662583782161,432.626830655301,89.1519917250745,921.112300034818,-106.44931182698,1003.51386500505,-39.0628470007985,129.568541189283,-12.2375545012977,61.0937376584919,7.98449660219662,593.730713007774,-96.3404774873253,1211.24246711033,-71.7735790582019
934.981440611765,-130.538294620813,9.52823607444106,0.171230404272672,18.4068804823573,-3.0001820165046,233.679129583972,-17.8000194929193,2.46583552647956,1.18877327915477,21.6162032628873,4.74205477802536,14.5195405320415,-3.11646792005743,3.60196198868416,-0.766020424361538,419.574411032777,88.0511416898464,862.385036845063,-100.57753755372,949.300649053242,-38.4718104580688,127.084356457653,-15.470627663638,53.3608474095348,11.8062061456423,589.492039823138,-95.5364330174529,1213.48845165945,-71.3367041165045
926.447296707412,-123.324920076959,3.44075616811627,6.29299361914723,19.1247580490272,2.29246899500982,236.078294331104,-18.095372532151,1.13372607066158,0.410431447484081,23.4619700014383,-1.06450096420658,4.72342076596862,4.23479484348874,9.3069453440776,-2.91941738162977,411.110255387598,91.1608028983866,879.977961893458,-102.779459219689,956.890148298074,-37.9901694710511,132.263726600527,-15.6841352384449,57.5824897097463,8.62501416640142,590.754916138907,-95.297713395344,1214.04332288153,-72.7216450687573
945.020529446902,-127.280795127701,13.7516250672974,0.549530176797622,22.9466507441002,-3.43116640920248,248.007277262906,-20.6615280031838,5.52563257425781,0.621639713135692,29.9452759764109,-0.682499830059428,13.2699798513653,-0.456970959500519,6.63167394980208,-0.248173064793285,424.535987811898,89.6830255470481,913.365741419992,-103.144840927856,1002.68884965542,-48.953292771134,124.56837766606,-13.5992315145178,52.5130532844479,13.0307179409796,593.61164451887,-96.8837298454785,1209.6115154001,-72.6146067040267
963.64609727042,-131.369596418271,7.18354151129061,3.2272401231589,11.1468715177772,4.92979241159747,240.236334727659,-18.7296630731564,-0.381663309717104,3.05462481194432,27.8986016000959,0.181747920773207,14.1872773234939,-2.0507452712922,6.75456602201259,-1.90970769259569,412.842889509267,97.7255064870394,850.633287206904,-95.0149276035555,957.486013207472,-43.3916690107786,126.455589929261,-10.1827166220203,62.0803814660357,8.2546033571433,591.943013094402,-96.1649588465228,1219.22577231853,-74.4550675157756
928.759787785163,-124.388183337887,9.91483315930369,-0.818753482056575,21.0308933302432,-2.31411100390381,236.375699997096,-17.8907020973941,0.741836237231905,3.3743076005737,31.7329045385055,-2.41807550046111,17.2782929060632,-3.54679144636172,3.3401076498865,1.26949803573129,415.832947111061,92.0461158349283,878.564768608041,-101.784100317748,969.473644949367,-40.607586144752,131.027582516777,-14.9786246208929,59.391214489144,10.0831878680007,592.505331208925,-96.1050259859039,1213.93067823221,-71.9881427907141
943.441481194741,-127.852006549186,8.03161336903204,2.96630683424379,23.1345841284733,-1.95095598662087,246.256127286645,-18.8175867316136,6.37851940693284,0.578067735134324,30.0424142152393,-4.49946444332645,8.88215284038193,-0.409829415053823,9.39944866107069,-2.44455497319331,427.511438329653,89.6483954721504,925.918143655772,-113.679080486262,998.019169034981,-42.1275011138087,127.821333830403,-10.7157237893203,52.7943832809052,12.8410687776238,596.359044019221,-97.0917309371711,1209.87293656793,-71.2953363782079
967.186689009712,-133.299108461814,15.0475229236505,-5.53972757289336,21.1099237242506,-4.54846011489939,254.818541797909,-20.598936660366,5.0614196605757,0.268594711764436,26.4339841775233,-0.458459900919219,10.8821032771294,2.32518727857168,0.302899438378243,3.19503544371207,439.532397004282,89.7720387582723,912.48517590304,-115.137757058495,1005.00286186245,-42.2811402454762,127.120142411736,-10.9515314070753,61.3978871037372,8.67744562516997,595.744635625485,-97.4170655553252,1217.71374821322,-73.2462017987507
931.740673603927,-123.834241615192,6.44838496008327,5.21103874574566,18.9683595562692,0.732226716831075,237.034502058748,-17.8043189074783,6.7187262134007,-0.401476930765087,23.6181734730431,0.84753949335887,13.1122394475619,-4.38598076638524,5.43978736565977,-0.740177581363862,416.440013405873,99.5202502605899,891.539924569409,-106.591470118422,984.008003624555,-38.4409462045433,130.537579122663,-16.735445980204,59.0809614193856,9.7449639473011,596.141926223844,-97.065178817396,1216.90096885033,-71.2544394892984
933.202110099483,-121.955747152741,13.1156058412912,0.0138379172425004,16.4607793039282,2.02447124286634,243.935383266689,-18.9147594016778,5.64769843741518,-1.35147900287203,29.9376471742399,-5.59374316687964,12.4303073480432,1.05881544866865,1.81976604080083,1.6716097097421,434.694519977311,85.9820581080397,910.772911928223,-100.69961850728,1012.96606612679,-51.9700102707034,132.387066191468,-13.3223222856813,61.571880006921,9.5562485352054,596.805583208778,-96.7272696950991,1215.56025537333,-73.8841261382889
955.371027400852,-126.925675263229,10.1790902265759,-0.424688018515564,22.1368911554582,-2.25173129196662,257.845042964198,-21.8928902534479,-0.837032708824302,2.13373915712506,31.6510090701942,-3.10588668645439,14.3748160761123,-1.61881692099469,6.38433884999171,-1.04828068296668,445.78292808249,92.70485460588,973.037582032707,-124.047295646334,1062.55863145832,-63.3959573370503,138.477374018495,-16.5509818913454,61.3892353828346,10.1524551724083,598.241079444632,-97.2989852164747,1219.03093389676,-74.8988960114814
920.206766773401,-118.449216515647,10.8457850507913,-1.7032817079959,18.7188863980391,0.0750648337476185,235.440670442809,-18.0825839706894,6.28299592039188,-0.499678772132543,26.4180294219027,-3.13931175362144,7.3840260813472,-1.08094602712458,6.01169528604943,0.116993627764338,421.97893555851,94.0401113569468,885.932921559562,-103.787165726377,979.632203171429,-44.3459637407394,140.629306753454,-17.9481037974525,56.5195454772628,11.2147430373475,595.052757480623,-96.4289556263151,1213.75147708354,-71.7984724524956
929.401931795353,-126.038287804144,8.45336798111386,2.94492730648421,20.4141416746295,-2.16598418459825,241.335128728068,-18.7439741434983,0.0356096425145494,3.97529381902345,35.8765062656035,-7.29126808838054,14.2415192541239,-1.09901964644496,7.35391516471022,-2.1547511018464,437.117362035942,87.5875989910601,910.188639971077,-108.249339555932,1008.81687639789,-50.6830241720001,128.28921188659,-8.90590496303411,57.5187990597037,10.0935139651072,596.17423731535,-97.14986130808,1209.69844993187,-69.8812667803106
960.802858562442,-126.810400971883,5.79292438028103,3.13662342661838,21.0633428371175,-2.33460233849723,255.745340738889,-21.2220962738586,3.20537056450944,0.185522040114384,21.2927495203484,3.35295496329478,15.7539800462099,-3.58361174467883,10.6240810778178,-2.80700991330922,442.217578247073,86.2152707202277,974.277364895913,-121.699520888232,1052.70454993568,-61.9706109470292,133.431440633548,-14.5267566561454,61.1699270121219,10.0533748964409,598.973186739913,-97.3737784305685,1218.05594100887,-72.7842838917979
934.969453925902,-128.664083435644,9.63171357791494,0.320459761808225,23.7833068904137,-3.77946389658657,235.930912525249,-17.7515846390755,0.896099625654881,0.94862560857863,21.9091459702257,3.04979802374973,14.5829853051215,-2.76732633756147,7.30086044585772,-0.861804122924433,435.075502820061,83.8795028494694,884.287162487001,-101.365919825466,971.174602576145,-38.5768966324173,132.736812403626,-12.5115022644334,61.6950740591086,9.29354200257237,595.491744054781,-96.4324579617999,1221.20417047453,-75.006249671799
939.679338751967,-131.230056151281,1.40489704499633,3.53998380503236,21.466779208015,-3.52649698372248,241.897249175273,-18.6337745188533,1.23681819795321,0.822753463968609,29.4764107097309,-2.8056118448881,14.9176633654104,-1.24131874423112,2.81569661417085,1.60424553848932,440.369042487989,82.8112532336411,908.836208529598,-103.81244286824,1012.73783806413,-56.7024315225686,123.499711189674,-9.50457618001517,58.8273936446992,11.1542225419409,595.549604484582,-96.5323824547722,1214.77035713086,-71.7491493338894
965.173896762648,-134.853896668403,11.4460638359246,-2.27717393326083,27.7867167691322,-7.76614998667207,252.777671988304,-19.5357093354516,3.11102325585597,4.50557283381834,33.5196387907287,-4.36376872803838,8.10552006847115,-1.55123792375186,2.77533012996538,2.2925777379215,449.639410077612,86.967637693863,964.360570436521,-121.019666318221,1044.10133313278,-48.0219761542168,126.228306470896,-8.42842428817666,50.6837940165164,13.5174264387265,599.341620457797,-97.6083238659805,1216.74847727033,-74.8626564631765
930.719945524868,-123.255872660508,7.27329275341763,0.271639140234718,22.2255459109654,-2.22149547080913,235.480634250523,-17.6885440909272,0.349137353404029,2.74466712102791,28.974698488819,-1.53128965791235,11.0032195577031,0.160746449099625,2.19329173431063,2.74949763449475,421.564770018495,91.5981535696663,902.76888365004,-111.780847810876,989.075268491486,-45.8497333785902,132.24695026499,-16.5086514917594,55.3420434197037,9.39481311594182,595.006925427021,-96.5372004988806,1222.54988280451,-76.3146533681101
926.535089417213,-126.542711243816,6.12622795071648,3.48362791728423,16.8217990913177,1.93886349123785,239.974464068294,-17.9373878085403,6.32282500275899,-1.18581563345205,24.1075587984076,1.01088987949732,17.8448422356021,-2.18055492149457,5.51624047528089,-0.845340626317337,441.14217381446,86.4596219569261,909.59873212648,-105.310924923257,1010.96350741715,-50.3780397221868,129.174289994751,-13.4588677889546,57.8136583347379,9.34558101844298,596.342829891774,-97.0239153333733,1214.40771586084,-74.5947081621646
959.190915972411,-133.05362613203,10.3269292803728,1.75421680827826,17.7131472995657,-0.116412452495403,254.200051691999,-20.1156060498561,3.7975977802434,1.64707541139861,30.2893381092336,-2.81245939325352,10.7601142810385,2.94610364488386,11.1136325185787,-4.01614211548906,442.619195957777,92.6368877654819,966.127541118106,-117.511933054461,1036.45996970196,-49.4719630495726,125.177546311375,-9.00340815394709,66.2969244012973,7.16402901475722,598.367367341839,-97.3296838401885,1221.82525547503,-75.4735611076298
951.939795392341,-127.101860992719,7.95896890768889,3.54533729715131,21.1234036362145,-1.40818579365235,239.003382658271,-18.5754458160505,3.14918068349063,1.54968090033096,25.5324357673075,3.61319494103131,7.42412439836971,-0.185761905005655,4.98421672658423,1.13068417092209,433.378720325289,86.8940918130599,875.408147332474,-98.8635347992213,994.277312714646,-48.8759733682337,126.202001393977,-13.6398046569713,60.5364765333398,10.2817206968878,595.675472767161,-97.0687458496643,1221.22690173681,-75.0167576301406
928.400977231113,-121.979149962267,3.29562116370976,1.20460143602473,25.1989743208748,-1.86821450551656,241.709493495606,-18.8674243632644,3.05493479522507,0.308492336397032,33.8872828692496,-3.69563598535869,8.24550839502757,3.99747481406998,6.05457799330103,1.37792580435662,428.103277803836,92.3995027391947,898.599386039697,-103.487085286996,1007.39348752334,-49.315411476058,128.642360386857,-10.5167215014286,56.8115092940944,11.8727852615157,596.319386614183,-96.9522493378377,1218.73932209954,-74.6930112835914
949.418341751256,-129.761745980677,15.9239942334514,-0.694889485431842,22.5945837860217,-2.73257879316728,251.169832679182,-19.8676727160111,1.53660646318845,1.76551034308951,32.1483326341364,-0.994480522095842,8.79488586410073,0.924752565892726,0.220272984110959,2.73903658864147,442.05880390131,87.6985721639607,950.469433148327,-108.140877799819,1028.72123699627,-46.9406714092873,127.76087481551,-8.95198484441043,60.3837233422027,7.59256351747355,598.161249536185,-97.0663965477178,1217.55147323252,-72.5501410212603
980.074403635665,-132.690471808594,1.34493680940915,3.52261480804289,25.1971251139506,-6.46377248609834,252.586349327539,-20.2473245554557,2.57978769318723,1.15698974732564,27.4220190072207,0.0180648532953656,12.2874347512443,-0.088896473427741,1.45260918285181,6.37913768033259,449.309942286022,90.948888733695,910.793399991554,-108.46469933467,1012.01495444973,-52.6355353292544,138.596042063415,-16.5544162083608,61.9322425559557,7.39948976869065,596.155678763099,-97.0493277944257,1223.97035596604,-73.4052091923996
937.386127952691,-125.043874794001,16.7187109958587,-2.10069562485446,19.8517742318309,-1.50617662550261,241.287751933443,-18.4616985169425,10.0979439676123,-2.61978124312828,29.7512973725599,1.53948182899204,10.6040999118357,2.90110742470415,6.0270940686845,-0.479070107751618,436.354105897488,87.1417970164493,907.663701635747,-108.770093850219,1004.25889295493,-43.4511343159017,128.072730201996,-15.8915180347472,66.4930025904911,2.75248481977622,596.619071495831,-97.1040528750249,1220.2293898398,-75.3615946788541
942.620122413188,-124.110527766324,4.11398095665825,5.25318806463756,19.9998360684509,-3.76275058150602,247.206115267254,-18.6609928127026,2.89848443444762,3.26471308958946,27.0333175896522,1.70450203599207,16.3511189032202,-5.5203907800433,11.8966839758165,-4.17387379180152,429.154162180687,94.9959659933791,936.503632544633,-106.800870963413,1026.61460974217,-47.79039350865,133.283507054202,-14.2992435170243,65.812774132761,8.44518106033502,599.957736106333,-98.3240167910499,1218.75689857811,-69.8228024828103
