989.577270102077,-132.707813326026,3.49018285566174,6.22078639175981,19.8258094495469,0.799497002850162,242.345712288443,-18.4036011516778,1.91757279057371,4.64354646711675,26.897160755792,-0.712488615422721,10.3127839435531,1.68365429046439,7.22811148925189,-0.0401669912721888,431.11142503043,89.2291179925802,890.788356664857,-103.998928699955,958.566774975832,-38.1947469798954,121.038938618122,-14.4396751498687,56.9601004243734,5.99231823613692,631.505448206045,-104.170186100048,1058.86376860242,-70.2906314341687
996.031468388463,-133.787648403183,5.68548569595804,6.54814358674165,15.8910216741817,0.873140782999238,248.811892478033,-19.1054548683199,5.42650481585151,0.820195442916201,32.4212814794768,-3.0205661098141,6.77469334573596,4.72987492078826,2.82560110236959,2.73408235892515,431.317292031877,86.0478381459061,926.625263905048,-109.812233536727,993.69041795252,-41.4887331010047,119.376102373451,-9.48530592665813,56.6457251634175,10.1861671955778,633.282691203202,-104.432904807326,1058.49558962909,-69.7423766810071
1021.64310016699,-145.141492381499,11.6840009407975,-0.731091663017357,22.0212960983253,-1.96985066688523,250.618986396339,-20.3944520225782,3.16594435843279,0.298201761145662,25.4554394293968,0.730939387623996,4.81453285007947,2.36265690415596,2.67398259034791,-0.546089297300979,426.365418878971,94.3588816560614,865.626399118702,-94.3008636996822,959.370047097808,-40.3839789615561,116.699829710807,-8.53797914678203,60.5859192494134,9.28065029869122,630.116810693316,-103.851899076691,1058.69489490986,-66.8955183802167
989.228747021582,-135.612424702211,-2.4247099676668,10.9056514308951,15.9868861749086,-4.0352712502114,243.566767455053,-19.4789991401932,4.47972027822926,0.539826522930474,27.3651950161294,-1.43830586496978,14.1725706916186,-2.90088100469232,4.53363922916014,-0.737281889988252,414.658312866053,97.619641127248,882.93641346435,-105.384023045404,957.757322007585,-37.7031330097985,121.260285396985,-15.1693349298052,54.8236118592122,9.75250215906329,630.662937094095,-104.185271026011,1053.44399023597,-66.2905469166712
994.117268005738,-137.637895849395,5.36442107813459,5.47345162595618,17.4339559069766,-0.104570547478716,247.655632095115,-19.4995888224968,3.48379465350922,-0.277476307085999,28.7081853041235,-3.6755534496727,14.2747921644773,-2.07407251906467,1.594216437435,2.22821796672387,423.830062943712,96.3386798522577,932.342809223531,-113.229923170247,977.944852768111,-35.9913975708861,124.853891926442,-14.5090284813269,60.1555874669846,5.94821735218723,631.810658068577,-103.851326136908,1049.02256174082,-66.8795020224985
1024.4571865166,-138.83128140267,-0.101242813070401,4.20395957548741,15.5680326931177,2.48183407317761,262.551970291619,-22.0256264731706,2.74541105011694,1.64900099806221,23.6891258334107,3.09943724390769,14.8172032649232,-2.33322593731097,3.58145833881172,0.473849589871588,437.602604576372,96.9867843658453,940.923952815004,-108.122377116068,1015.79929517998,-41.898944675564,120.519466813455,-11.4430201459016,61.9205961966513,4.91353145546008,631.344685837767,-103.834267648009,1057.92862089224,-69.9646205832595
985.806482402918,-130.980373437696,4.89111859292212,-0.795574426874613,20.0742656274988,-4.11150092296856,239.700930871174,-18.2501052742885,-0.339753123781084,2.71453326746154,27.7678102106819,-1.09772890271367,12.1096642967261,2.70459880064771,5.06937684346351,-1.43601972270786,428.719132876837,92.2598413597146,885.302037376874,-101.728192356921,960.020934925875,-41.6146257928049,121.66766576029,-16.5617912307379,54.1991291538158,8.06741013407095,629.377551989784,-103.372490313087,1053.44845111212,-66.805388115278
997.400088211807,-143.368368956511,10.1847918463607,-0.122790443246832,26.2687242725148,-5.57268959951403,245.593788151006,-20.1152222690051,4.92318721980996,-0.30549293886518,22.2120437518625,-0.458854799655624,13.7774223800648,0.0612886259792373,-0.234852122542699,3.1292353306116,427.175163638397,88.9993812162112,903.048337859104,-105.051615658924,973.508999143903,-43.5219782245202,118.653943798452,-12.4805719559265,48.4356507022247,11.8520122982122,630.441052719657,-103.452304370822,1055.41730283567,-68.9257694860952
1023.24393874242,-145.5107586728,9.84689613662332,-3.07345847332378,22.8666958611981,-2.73228591697855,258.477473555674,-21.9305313510336,7.280424049139,-2.36628318467975,29.7499090009667,-3.38016769820139,7.62432928315114,0.992442314378361,5.58585037160033,-0.246203802253127,444.110048091984,95.7316822232168,950.622367327078,-120.261904965206,1008.48944633513,-42.5143389090543,117.866771654704,-7.6478904977858,68.3220867998874,0.577118096822812,633.539047597699,-104.518398185098,1053.54615489074,-68.8498290182908
984.255765330065,-136.577795461361,12.0865473174153,-1.29096787628356,8.83543563581588,7.00057329575205,238.16641218167,-19.217940928854,3.73165783122412,4.32525803565675,31.0850068517948,-4.05380208369929,3.92910827714029,2.35173208513365,7.86015718585164,-1.5878447658283,419.909413709662,95.3357901465118,868.848870092361,-101.993901367092,947.238468732024,-34.9280883310209,116.180613362501,-8.29164402568237,51.1625170943327,10.4764319657766,629.739931544421,-103.858275753403,1053.84494102067,-68.1811370345098
983.24046286421,-132.245558840128,11.232548085526,-2.23354638257547,14.9973658431997,-1.36396794659405,241.448888273955,-18.373433411121,0.249796729934845,0.753437346602501,34.6470120852017,-4.80989205229775,7.6255180288363,1.25931924207458,0.280750104565508,4.13006708001422,418.014248406134,94.1076991202147,894.531569069212,-113.162561646095,974.918001803041,-49.2061746894326,122.514947179769,-13.8828671053816,57.7216559431703,6.01233146443075,630.690338950133,-104.361482357855,1048.46852617768,-63.6999135449165
1001.02507299791,-133.628813084556,3.02629786708194,4.02840097015425,14.2571880919346,0.755367476918481,253.173946888011,-19.2178481372722,2.5405142410838,2.11788500633767,31.5183440177663,0.176757700682382,7.0736804411239,1.78519500664925,2.48815411874433,-0.600801509896886,429.546001792448,98.2373702951499,945.40232525219,-116.803234070327,999.099886836869,-40.0050030916513,111.157279129163,-4.99661984215618,57.3115972986193,7.48162226669128,631.986858688127,-103.751172405814,1055.61038859091,-70.1327063359983
1035.71002160436,-144.286338740196,10.5975860943425,2.16940893221504,18.598479647589,-0.10091751069218,246.202560498157,-19.1089982666732,3.41311678772951,1.89140538386389,27.080878410937,-1.48012664604114,11.2912699764164,0.044674442920209,5.6054548794779,-0.0675265608555083,426.409094392719,95.8100117880092,870.849136164669,-102.553142063903,951.316590406901,-32.2654896304187,118.597933427052,-9.2735233217794,60.6905463794629,6.70061671594415,630.396784940965,-103.716083732097,1055.4525354962,-67.45991602813
1001.13441631109,-142.023928157913,8.74698143121389,-2.2557250709015,15.6229220361197,-1.80797533107258,245.96427475211,-20.821237281861,0.811560368095098,3.59400726472895,24.8965258464312,-0.932842110338166,11.0623958624305,0.0755222987344417,9.05205474091238,-0.467070978386266,419.169297811872,96.6023390073589,891.031396731216,-102.137103545864,965.688015370515,-35.258227972143,113.569439735961,-5.21460950583432,56.8342296533165,7.99149826385352,630.027980896204,-103.040969998149,1055.4488927732,-69.113658733302
1022.95988389821,-146.388616234265,9.97482701990591,-0.609039429332615,14.9841758036731,2.10640262759939,249.675996436122,-19.7402204851199,6.37687871781965,0.289010009379084,31.6299739070518,-2.82940775429035,11.5845302704267,-1.13680185565275,6.77852074339815,-1.12589156118953,437.881695185334,93.0002484819599,916.710502258917,-104.320114591295,983.405479697519,-32.2270638563708,115.536045992917,-7.13872357723161,64.5924738796214,3.07118923797563,632.637030524367,-104.091467844082,1056.97570320054,-69.9403963694483
1043.96736627714,-152.8738942162,10.5794255817193,4.75272072734527,17.4950797883134,0.385648158543332,261.065581441049,-22.3794563824082,2.7722180409758,0.471561320268258,31.1233533278944,-0.77619260200034,17.7316443054195,-3.8389889303954,-1.75907392728693,3.61142162557381,445.749922390512,97.2055400923487,923.898629807958,-111.495983862542,1005.12294491696,-43.2599763357597,124.786030717927,-14.8120609747105,61.3521884696454,3.42980206267618,631.495457287075,-103.915475174924,1058.33494955472,-70.7092027790017
996.22550530276,-137.435789966268,5.99806261225824,1.60241595279299,12.0185005888743,2.30160919009201,243.054458230245,-19.518400498362,-0.532766184724898,4.43807590329319,34.3521313679497,-4.17744002468393,11.4117380500637,-0.216733340391978,3.6634217086147,-0.71266408798649,439.761633411667,87.798167036399,895.253268056632,-105.46366035566,955.690936800191,-28.4475723772121,110.291652024377,-3.76568496761604,52.291730236065,12.4919260169648,631.34600109849,-103.80132454358,1055.52512056084,-69.0432814078461
994.837421073379,-129.450511334182,11.3515971250099,-1.7174939414436,17.4943827721468,-1.287098362278,247.72181156867,-19.453459219425,8.15700245123317,-2.66766385698208,33.7009522673025,-7.23744063251739,12.1220714890626,-2.3389507930587,1.56042485042152,1.80782841938358,434.074229582155,92.772683327933,928.161539920123,-115.395859668948,993.6319580692,-45.020437436206,123.172096535417,-11.3679719765175,56.2637741628944,10.8610445856341,632.006392519503,-103.806867938163,1054.50339876695,-70.0773357642694
1031.73614626458,-147.776629470583,-2.42056120726948,4.3262934526607,17.3277517727732,-2.43686966263394,260.769851843316,-21.5799869907306,-2.30293871022008,3.80964930526824,30.7260122272553,-4.00555409585199,14.6589821451366,-2.59090794618859,7.17832109002128,-1.33978021730982,444.064213117151,96.9342044650049,969.716885026794,-122.233403731107,1024.13415940376,-47.9041939356221,122.420737850283,-14.2392161883014,53.2820131946978,10.385055081059,634.253683887437,-104.46990856804,1057.48427996642,-72.2771868793029
987.373502002294,-133.585837345654,2.34443495718861,1.32807752142469,21.026326161464,-2.4793519162324,239.226559980618,-18.8710389588452,-4.05752391182486,7.24361911524983,26.7325405061662,-1.57996140823694,5.06476436628708,3.20037139392299,0.615863426460575,1.82403486325461,419.443489983162,103.374579948558,884.242463832281,-105.90679715512,962.455355606926,-32.8638204133381,118.859382880059,-7.13923850606415,52.8300540744929,10.1893271312908,630.666729899475,-103.550215798496,1051.19259901965,-66.6783248910562
993.748460863772,-135.468894976733,11.3359627301611,-3.28932631165144,16.7331994448607,-1.32129009502887,245.564060033018,-19.3061637011889,8.34749660700875,-1.05224556749673,22.8784041411208,1.64996645635254,5.67202232489017,1.24009663206148,2.34249325026002,1.7204175980029,427.220083239242,93.766595341236,896.031461286636,-97.0808838258206,991.497160427503,-49.0851238836587,118.050055265048,-9.44873660584309,56.0710791532298,10.7252770164666,631.522043130049,-103.101405191966,1054.92324534184,-70.5037518069006
1025.92201909428,-145.14310477715,8.82203138172291,-0.686708229244478,14.7581013782098,0.956565086398477,257.506420821243,-20.9494002021945,-0.776720052095602,2.4704661198746,28.4507271581441,2.17553092013662,13.6172734959237,-3.61574393005971,2.08342429335097,1.03951857099025,438.691698508288,94.8818004907365,958.71438008762,-114.722036019129,1013.58349682168,-43.4269790271708,120.876425178834,-9.82388850672339,58.4476159757246,9.58936645602013,635.268160418196,-104.599538526892,1060.74157551238,-70.5731380751643
1003.82544096987,-137.543637907906,9.794042489054,1.54228767370071,19.5666124227365,0.467677446412009,239.399383151463,-18.8553903213702,10.0528751499795,-2.36031844525548,23.5823229108975,-0.32875330496208,4.65959898539542,4.82237615474433,1.97284995351902,0.971574491843379,428.641575444908,91.4999811451401,874.955966897945,-101.789856716211,951.252777172651,-28.6132864119083,120.866557438471,-11.1801283547384,55.3562921739056,6.00222787247765,631.488281163409,-103.980508194952,1057.21899530287,-66.7534304537526
1001.2102928012,-139.585688925747,1.09229428456396,1.38607704703759,14.2227812055864,2.12214107741444,244.740159725362,-19.5864988291352,-1.20235399474448,2.97032536765567,22.4437999595511,2.37973440370757,11.6360440216488,-2.63425551225004,6.97657464697719,-1.80808508731016,433.333172238936,90.6687169531416,901.320880378562,-104.231593415602,968.599025339781,-34.3966192082082,113.086860736568,-6.81855178597522,53.9397707799415,10.9064759688314,631.367789942472,-103.307833654155,1054.83759822118,-68.4804306228186
1025.38630714132,-143.357748523003,2.5631828822833,3.38613508643408,19.5085444607128,-1.56930373414334,254.861040556183,-20.7124147783645,2.40773057564039,1.25075435052005,24.027619423678,4.3753189281132,11.165775010761,0.0959960984635477,4.94757481723343,-0.388807848086123,439.45963852633,88.6646255359779,944.032816572461,-113.506255298735,1029.20543103589,-61.5259627002759,122.981544562955,-9.32599002877651,55.091819077241,8.6391423373115,634.846799779715,-104.724827269372,1060.39584976686,-71.7948722794481
1043.47937616118,-145.99582665263,7.8331764439446,2.65966233131213,16.4577365536283,0.00100652755616706,252.889470309277,-21.1057807432283,3.48250008128744,0.837751413651585,29.3792814464568,-0.570135424848093,15.9080576284666,-1.07524105528724,4.6083182208272,2.62854701079481,438.162020371325,93.6505988083939,888.470874527031,-104.587231783827,976.291805757763,-36.7879002724551,113.246236755307,-8.86855991609755,55.3136788298061,12.0145572976554,631.890182073214,-103.639283673549,1067.03297691102,-73.246754912167
998.531356834239,-131.990963932735,13.3076630813982,-1.73619774277017,15.3900218831955,1.79389644355885,247.872590872014,-19.8445913445499,0.925392889837647,4.71975760083744,39.2596795686618,-6.38823773246158,7.11255072784088,4.03126976473134,4.81174483058955,0.311593323632959,425.595725330943,98.3115088447659,904.301193312765,-106.384394653693,990.885068572736,-43.74497980074,114.353957367418,-7.29664383466905,55.5664195197559,7.87380640610889,632.461173936184,-103.149017047858,1061.27744459933,-70.8734810533402
1009.07672870514,-139.307558310778,15.8056845727012,-3.64330255493115,20.2054509174316,-0.93863006516791,252.897774770999,-20.0015604920923,-0.479205664588944,2.86943255355869,24.0385908522967,2.72804385524409,12.2380022596127,-0.176865244842876,5.43413278268051,1.01857454514304,434.139449868702,95.3237894582736,944.10898467982,-114.857723081691,1012.87171366104,-51.6862428535195,121.809793675361,-11.6449024524174,46.4631856583274,9.85806748594433,633.509896670344,-104.401099184324,1058.30754524688,-69.9233850656929
1040.50561360738,-144.566660830574,6.58563929871655,0.0615267534376587,13.848081171421,1.23989238653732,263.592250690239,-22.9841722792808,3.13867531912894,2.20947466632212,20.9541446272201,5.03652501439689,17.0321938180523,-4.09047784950649,2.06380706751991,2.25108892606789,449.11906067177,98.8064623492165,936.393129810084,-119.127427143499,1023.18955017746,-48.0698700484933,122.591213564119,-12.386526828747,62.4392517033683,6.0006966201079,632.124038487883,-103.517227592943,1059.34729323734,-69.9807063419039
1000.40540032959,-136.016682278019,9.1202882198169,0.306480909529627,20.426538957055,-4.0640720613659,245.628661181632,-19.8436394825171,-2.28988760407666,4.57085326170914,27.8863102860579,-0.24873040070442,9.63072738785977,-0.308465302202083,7.9356198959085,-2.42736399425458,439.2397262618,90.3175820620807,904.35521221172,-106.717607482896,989.247981177168,-43.463581126949,109.792863206983,-3.91941226288915,57.2346974103554,4.16891274798083,632.120754771538,-103.814599203777,1057.99375326663,-68.9535519930848
1006.70238864385,-139.819621710281,9.87456243193625,-0.240966736855106,19.1483660403727,1.84740779784365,250.689346536886,-20.0999454392737,4.00956402053025,-0.433766871876645,24.2704189969797,2.36600616712609,1.93369734996262,7.26045828994318,7.79212617054588,-1.48081231639606,426.778998254137,100.855063365269,932.456495168403,-110.583290735497,1017.78134387515,-51.6581021180504,117.926233386597,-13.002791239202,55.3996758797885,8.81208027604088,633.329639413176,-103.812570586368,1053.69112516331,-69.1450662421188
1038.780789646,-147.698127331164,2.26841686455169,7.81391286768766,15.9627095371548,-2.69028526348561,262.227640139004,-21.1966891262985,2.93016012341854,2.57560915473485,26.8895555192619,1.54521416793184,9.71156032841774,0.155755373786848,3.03518701507999,1.2721116617543,449.560240530922,94.1405009443841,974.917195432969,-123.891170810271,1043.1968948749,-46.8855874456173,118.306953584559,-8.67585550778636,54.6374644012978,10.2178560532531,634.095799910156,-104.201094055181,1060.6523450484,-71.6785994035437
999.935198338981,-139.291985243525,4.9905107431699,5.89653837775128,21.6788098536124,-4.29020559949271,242.772608658162,-19.7846366510105,2.56872143436811,-0.266069976732493,35.23509295298,-4.71138951209792,10.9133347983397,-0.716789099009134,7.31333045889383,-1.33325731172737,427.561617062303,92.8253237357264,901.099362439819,-106.741336496725,976.94382160935,-39.5714764480734,111.661714466161,-6.042098473295,47.7269555786585,11.5969010764235,632.061429239531,-104.405726248505,1058.79447394936,-69.6232054190073
997.112771227251,-135.688532327534,13.5049145660968,-2.27937655301316,16.0237457764378,-1.58142601707613,246.045797104188,-19.6719333641006,-1.19632483051621,5.74944871479168,31.2898905746304,-4.8519257836352,8.9760876871725,1.31412720990588,8.42323281655907,-1.99652340610761,431.147907892374,91.4229714016253,923.730288416034,-110.730833579344,984.162582998175,-37.5594999856959,121.962344566556,-13.3002445036815,52.8828161460105,11.6833209904259,632.527508699039,-104.409077417467,1055.32706978557,-69.3477193398107
1037.25024165767,-147.397221480792,17.4531279553436,-3.76788867367816,10.1938986474045,2.98802140553573,260.130265917647,-22.3220372081515,1.47114039165774,3.52329948385987,29.9078599903474,1.66106317498723,18.3102090116335,-2.27927319143183,4.81328224068502,0.320052013330363,437.939782407666,93.97869893759,966.545000776067,-119.216592002169,1027.25005710067,-44.7961419490423,121.526049907781,-7.76864984950349,60.8383415847901,4.93060974561464,634.219622723057,-104.395586893963,1052.6817646795,-69.3300918036933
987.537398961271,-133.147600826162,3.57040253441033,3.04756290665013,21.2082786682776,-3.13720328735619,239.976684797481,-18.9755242042114,5.28377643037768,1.03142006297093,25.5109724287425,-1.43439407976062,15.7710309013216,-2.736491523882,7.63578805099907,-2.67605558982907,428.739542462226,90.2100477366496,881.623338900907,-102.087353026855,966.96966869659,-34.2112034147685,120.847731861156,-11.789703897984,60.9675538394513,8.75783003023889,631.783804026333,-104.589247694786,1056.63319686227,-68.6360580118754
992.876251318384,-135.844750628513,9.044846338489,-0.638668414961016,19.1150277771652,1.11326572073133,243.817089637616,-19.1673737928779,-0.80316210887924,2.7215010128088,26.7784093007514,-0.55287191452189,11.1869535048264,-0.966767268541745,3.93623791511434,1.67206744062466,414.290905294887,103.112279527333,905.367142154652,-106.475808375565,976.057230573059,-36.0762015084352,123.324986963019,-14.4046506155513,61.2638686471278,5.789652974471,632.321866414744,-104.682509663239,1056.73177406351,-70.3154997005408
1017.76100826744,-139.269163862965,9.19852053328952,-2.50437231405686,16.6611536230271,2.42234604491897,255.604105485898,-20.634847002526,4.4570384488991,1.4971245828755,32.1567819832854,-2.18498347456831,13.8842320417269,-2.42585203367206,8.56105792494051,-0.246099134073171,442.142317334099,89.0545988353575,949.404435262458,-114.335572518883,1022.27523041034,-50.9792381717864,119.82503769768,-9.44683561857538,57.4710402771329,7.82530843966626,632.727155327131,-103.470628490545,1056.59678983637,-69.7124331727633
1010.56807216493,-137.193759629756,11.6762631677432,-2.55772778098816,21.5471261159026,-1.86863007308166,238.980937973897,-17.6078109248383,-1.28504174531465,2.77767300018655,23.2315768721538,0.809688652589413,10.0656842672387,1.06636342381288,5.60376971023633,-0.90842013635793,433.565715011358,91.3456629718438,871.734498082971,-100.615737520676,965.28645815951,-36.6845139553336,115.035232613667,-5.34205126732061,56.0475550247297,9.83365241690074,630.400181497209,-103.468544507619,1061.20460072308,-73.1844065559339
1001.54853336161,-138.242977479796,3.04046567200572,4.10433142023175,12.6289248023266,2.15629156586561,243.509403053486,-18.9558404157606,3.45801587359463,2.89629571890619,31.7874083894106,-1.55294708482324,16.7310963555947,-2.73491257035284,5.98833363689045,-0.401731674644243,427.086650411306,90.4186342327254,901.591751491282,-107.668804128123,967.459408711733,-31.48073629814,120.286791258656,-11.0501450695119,56.1966592219835,8.08751059707363,630.571438610657,-103.257899245948,1053.73042808645,-68.3055181522467
1009.76414404654,-135.61185652949,4.94992301619972,2.70650623704165,14.600215761818,-0.413749899648478,252.790281496221,-20.4867668181487,0.21372224141035,4.99803604329519,27.378941216648,-1.74863490961109,14.0374904410845,-3.19626632855265,3.61502393875887,0.372198316279417,433.836186235942,96.2190783450817,946.60981195299,-118.309339808519,998.314298351782,-40.6944152448216,121.961578876547,-10.8062818984348,55.5236563676042,6.2656846236067,632.423857826866,-103.724445169264,1049.55916012382,-66.6449313790104
1032.31937464986,-145.421139410194,-2.64268815181737,5.85456919286854,17.9377047596862,-0.820329956895603,243.729959056408,-19.2859432609631,-3.04166810726379,7.66900599096878,28.1581072757121,2.97825058284341,9.53623269567487,-0.830346325038238,3.55639323041635,2.57996135001168,422.95503634314,101.557806085131,890.308646724942,-113.881981744078,967.67037106799,-36.3206860269488,120.845452630331,-13.4096789622605,56.2532477205163,4.95995096999568,629.443217483077,-103.45939115694,1049.78745533214,-65.8624897814486
997.769069732122,-136.33358556328,8.45613328059907,1.01470914840247,15.947246749241,-0.735297959026476,245.79497256425,-20.565187464079,1.70478940734518,0.299287885917444,24.2523638803863,2.0532384570882,14.6688285634862,-2.29265698737208,0.467396007717881,3.63231081606939,429.727017027471,93.0553508599482,896.342007004409,-107.613445546354,982.66844194013,-36.3774255295682,126.77726252976,-14.1543602077719,56.3405637728914,6.91499635279735,630.776455948909,-104.16840756059,1051.57159809396,-65.6478566480102
1007.56787751139,-139.911815369191,11.0941518740098,-0.0458399135350393,15.0525349558685,1.1673869907207,252.648335951466,-20.432199595297,1.76641840112014,0.786906536381243,22.2478085010374,3.87422514385161,16.3132463184326,-0.531311769108063,-0.676303485913613,4.91790985787279,437.214312797291,96.011377217532,936.471171185925,-114.11808469335,995.46581528105,-33.5311789692823,117.153673481648,-8.40390538522675,54.1192420545623,13.1901603303757,632.836776039004,-103.985733082295,1046.50450498595,-66.7812638148691
1034.96336612183,-141.291078980526,6.07681791253829,0.470796207103256,20.8778798113202,-4.61899161685792,259.473624373279,-20.6710179735759,1.21819008642273,1.92829841603659,31.6230790606363,-0.0437905710326625,7.37372846500015,3.58388691234193,3.76777766569835,0.461568395153636,447.023744755846,89.0404019371463,901.805187933206,-107.363705444974,1004.84379128374,-45.1596644468246,119.45441000485,-11.3066448274407,57.6692755155735,8.79716132815972,630.663391153539,-103.68160096864,1056.21255245793,-68.2292324746628
987.007247184146,-128.283280184136,8.13775707336188,2.6482490858081,20.459490927818,-4.14961690502213,243.391140302202,-19.4156021782964,0.0729560957035736,2.41945173402606,29.3243633046575,-2.70354709145206,13.2484356515647,-3.01770924088293,5.28740402169782,0.687964513969136,425.625664650269,94.142566519204,890.546151886231,-107.326969537969,976.518326323999,-40.6895192173946,113.659968453304,-5.4187402515971,54.4456926973865,9.66779091243585,629.404453559281,-102.853809979887,1053.86839865339,-65.910961542141
1002.48015828563,-135.84580575848,6.49569429130742,-0.194506210677164,19.4022699695667,0.625919742674337,247.110965522091,-18.6675536479086,3.93564603964526,2.25164863146401,27.1358734286376,0.652404569563085,12.5775210514713,-1.16692341422412,6.73461684412728,-0.983706380481101,424.695682710018,95.5923233785021,924.229295857475,-112.529761711178,992.752658042891,-45.4142263476586,119.719315938475,-14.5002607347692,56.6137729203649,9.95293942360703,631.619523422091,-103.814046792781,1048.34785007626,-66.3997585474749
1030.25311896399,-141.404333456443,10.4080080963824,4.31459018007274,18.8633821691858,-1.59340332004636,259.400240287641,-21.1142194320357,0.201583587821881,3.59154775490474,23.6956172245941,3.24911861758485,16.3350595796115,-3.27549430400579,3.30664384744055,3.6578939126646,434.939646511194,96.9869329606595,954.914749044904,-113.281217454475,1028.75765621234,-50.5627685823269,116.668230453088,-6.45462375052983,52.5697263440024,10.2079935463136,631.505590912219,-104.000063419813,1052.40603112019,-67.1396630609617
981.903335743952,-134.745187406454,14.4617214385929,-4.2511451693752,20.1364690054735,-0.804447568640713,239.863272360528,-18.8334226626962,0.480531417923305,4.1754386195728,20.0245397543285,3.97037283040619,7.236786349239,1.97666573199103,3.17193135138958,3.05834072473748,428.819115588155,88.8370863877672,889.298731684239,-107.43107703716,963.158232315254,-37.3334893355087,120.911237571637,-13.5361818951674,54.1651200840005,11.2600479868629,630.149127315153,-103.579262165896,1054.60522676741,-66.9430879288684
996.741243548112,-140.532489699511,6.48144976062491,4.05637929382445,16.8225730343523,-1.51362018007465,243.109698850586,-19.2608253922283,0.797482882700555,2.93991541328372,27.8178446117995,-1.81486286997501,9.08499887718543,3.56724023084871,11.2157477646633,-0.995883291828583,422.734513488622,95.6954503176028,908.692045219381,-110.983551972993,967.961313783332,-30.0621331396229,110.33865978168,-4.89311852190135,51.6051385705182,9.10281679341841,630.250290751527,-103.552645038295,1050.08338542251,-66.2876341717635
1022.8174112559,-143.857925937119,9.8990638384174,-0.405785050152444,20.9932710424569,0.372629541158099,254.848632234953,-21.202784506957,-1.92932154364756,4.32193597537161,20.7142785892214,2.83603358636467,14.4929045374388,-2.02456607211478,7.61197917625647,-1.11621937478077,440.966655911937,96.2733387570582,944.718924784355,-109.201355403528,997.403288917828,-36.7263412713929,117.736041051929,-10.2451259132027,54.4611328964443,12.1491556951409,632.417812739831,-103.998725627192,1050.79506198873,-67.6729517436976
982.379963231073,-133.337380750814,11.2516893791136,2.7649333260197,17.4759626512944,-2.00598358968079,238.520443021029,-18.8096846945812,-1.43643121103459,5.54526957160021,16.1703833941939,4.01392629115261,18.3487848668129,-4.67571884589,2.03202291999561,2.00799130597874,413.557252831074,97.1425538507944,876.780620464283,-104.384906417558,967.445574578692,-42.3495678941985,120.201681642348,-12.1897911025975,51.712558357764,9.18902145294449,629.738184619295,-104.021227044034,1048.93123159968,-66.447568307091
990.771800847241,-134.612858536646,-1.17838577914722,7.00215606244748,5.41002258145181,5.18306490722747,242.861107030047,-19.1940804501943,2.29572129278267,0.204759051085561,24.7790684148981,-2.027341481155,12.8884601302072,-3.85433332266096,8.09335445059591,0.967866275239915,418.451035657192,94.8818823782384,889.673672000704,-102.020466042708,961.618133706143,-40.0433422851469,122.721869548039,-13.7110912629015,53.8807012855042,11.7496882505778,629.629383080675,-103.607250367636,1049.30528957334,-65.4815780116302
1014.65661346866,-137.96455505964,11.7347057414485,1.93235348248725,20.9733686639649,-3.74289270103062,253.985974281864,-21.7380781894743,6.31638116398145,2.33865809655169,29.0306823611779,-2.91201086317767,9.10763256988747,-0.114343816419601,0.879475417214414,4.20826556232086,427.379942942908,97.4187073710056,943.994151277753,-118.112491117168,1006.39361189284,-43.9922572845078,119.495998207014,-8.97411345271897,55.6195248156689,10.1938524601349,631.188188157032,-103.640538417896,1047.58970598826,-65.5964879969319
982.133609955937,-130.688869285311,-0.781136638457394,3.84980025261095,21.4802689144584,-0.721409045256795,236.597222358062,-18.4940312518712,8.61023703891161,-1.16569375306982,30.7625258429803,-4.16231499684909,11.1804373036541,1.23263097203014,2.01340923112464,0.609009881024213,410.655820169738,103.152192308229,859.321114724259,-95.2338519697459,958.255774466068,-41.1643230821249,119.72311989607,-11.4027742498865,61.0531442306769,5.98199621753622,628.09468657013,-102.541094033872,1048.18526348539,-65.8355607263664
999.30651131343,-140.837354468669,12.6429162195604,-4.52880146526704,13.6728406202925,-0.130988354650897,241.788462133555,-19.4535862198849,3.59031408648017,2.40792034058988,25.5878613464999,-3.37572866865873,7.63668193798368,4.18130113799242,3.56014561930061,3.92411800559589,428.489102554086,89.0135642170657,894.644365825453,-107.111597341989,963.720637875558,-33.6194429306933,116.865380009543,-6.65638565701927,54.9438529326695,6.09099836536196,627.864888665553,-102.400255668341,1044.69865049734,-66.485605399213
1011.06518315792,-137.14454506576,5.12930887784431,6.70087184914455,22.0541961345994,-2.74888299812359,250.345574255887,-19.4105952813775,3.11579119930054,-0.438312433919753,22.2592049706902,3.83389993216908,13.9754172002774,-1.24861934642569,3.84423582786801,0.756253382414688,429.941294833213,97.8602980189186,939.180370102662,-118.603103227743,1005.0637723866,-40.8769469235606,118.766201554328,-10.1404443394021,54.5872755633608,11.3964991589306,631.157786790155,-103.779889068452,1047.34465449467,-66.2988555835924
1009.31084230485,-135.353052344865,9.8496642819993,-0.737611607814528,14.544897557255,-0.185286475198047,238.666502508358,-18.9638001802748,3.3519100338583,5.69463972261026,29.1852846306544,1.10170482956923,15.645978534407,-0.926259039361457,0.22341851304479,1.64946373146808,413.230272379839,102.207750608748,849.880325127982,-97.2655612708209,956.061055561845,-40.387727054221,112.922304008846,-12.4680707670283,63.1783666937624,6.66356756864008,626.99811879172,-102.629842468558,1050.40238004918,-67.2406156824035
989.226086315378,-133.04216803809,2.15959858030216,3.84210501837285,16.987387343141,-3.74343845893566,238.801799523448,-19.2887120420332,1.1618900575369,1.79737122162515,35.3187678131895,-5.01889461385322,9.62358610068655,0.0937800045800259,7.70552212149126,0.801509479127732,425.199470815451,92.5632454584038,871.147616152444,-98.6074924441338,962.598931597517,-37.2230797136458,115.969334542162,-8.51211917917843,45.6797897587345,12.8237145085722,627.417095633672,-102.647942637877,1046.45421758335,-65.4414720539662
1012.48925088663,-142.216853336399,6.45472591285292,3.83010514777482,20.2825041013726,1.08917592514188,248.035446683297,-19.9963791298952,2.24515111945948,-0.30458921378935,26.4194515362781,0.861112507156033,9.86662989972116,2.86799173407829,1.40132510712371,2.43521141408485,425.200736334411,94.1239038657641,919.792295509304,-113.831528979696,986.916448666664,-36.6485208892023,120.674661993354,-11.3046715584962,59.040414201042,8.53966621969125,629.555474563989,-103.358200411058,1046.93054443881,-67.0749455006956
1034.72818103495,-146.837296493267,8.16000065524794,1.37777683442907,18.3134672720083,-1.18266550410281,255.968017841915,-21.0565742653782,4.28493649719914,1.0562150697406,24.7003786006867,-1.77399630279676,15.4224914164605,-4.6716952404106,3.46452962071133,-0.535271340650238,445.209605390814,91.6743181400868,884.482329575035,-100.419078611765,993.158013019583,-51.2464874359669,123.443078579273,-16.4815866906739,57.7032125725701,9.85473738590319,627.90888533984,-103.170314731279,1050.86305766585,-66.1206301162195
979.583079788915,-131.103856029394,3.11112539191168,1.78626072254778,23.7018583722778,-7.04257249111318,240.938073848836,-19.2255970895752,0.229242292906562,5.74482157313772,26.0516274549168,-1.11208572742998,12.5379064094999,-1.86451983598847,0.867378630897927,2.57758803751213,422.765817502721,93.1516618938956,877.133945345949,-103.025319100749,957.664895541064,-34.9372912269196,113.300057279362,-6.58038845213312,52.6733291663665,14.3052016294633,627.315692277986,-103.343904910269,1045.56658123871,-64.6105201064039
993.917442465201,-134.091798341924,14.2538711406955,-2.15237165370282,17.2835571891663,-0.303210802073138,245.417022030664,-20.0090817415505,1.08554561041819,0.632611401175744,28.1717157512875,-3.40928351575702,6.58920661266952,-0.025691295053717,3.69323513901899,2.86014652346825,419.403115750158,99.0887920685607,894.619404464122,-100.342736569051,976.430446058354,-42.573444870619,120.589756582156,-10.0575557952898,55.5775873615618,10.4732672718068,629.688803381027,-103.44073391099,1044.25686855717,-64.1309716719143
1022.89033287534,-140.109622201782,10.1440320426962,0.169170985393037,16.8418548652759,2.38788872387461,258.422127028923,-22.2129260672462,-3.87222096683893,8.01441406329813,31.3456154344688,-6.57360345589789,10.3850389822743,-1.03398386548235,5.74650741579589,-0.7977150651996,430.725690266635,102.726019387864,933.622402432381,-111.84915640143,1014.14183398696,-50.5698138177624,120.299028559026,-10.0793371599236,58.0383600355085,5.25279358248669,629.570799707865,-103.693206265201,1051.18235294212,-67.0119040326263
984.543443585886,-134.666646840706,6.82665913318639,6.30973452623303,18.4442542544905,0.217230601920131,239.919143493253,-18.9046256629612,3.44928934495129,0.630129764806135,28.4269352469044,-4.20091479824315,6.52385808559123,1.06042775585395,0.419364387935244,1.79749416825565,421.383901997104,98.0984469722145,881.087344049615,-103.682833206626,944.169137501033,-23.8533722938247,112.480069737642,-4.23393837609196,60.7370472556589,2.36823246793705,629.109454255077,-103.442698142659,1052.06242854045,-67.6290398033429
997.810139155899,-136.36770243903,6.46758243735511,2.62634207128961,17.5484398676723,1.67922874992323,245.414543700073,-19.8102028698537,1.58942192289549,5.36524203371927,29.973563986154,-2.61353049107249,10.9862247752187,-0.681882787420949,8.52424377101608,-1.79793381309241,426.319080712922,92.7274196370876,900.445524609452,-103.35591071729,989.643530588785,-47.3771328822956,111.904723263653,-7.67999710205215,53.4307259143001,12.2780700149484,630.592800785573,-104.178917988509,1050.44798948234,-67.3659139692774
1014.54110255166,-139.641248532596,13.3165933597199,-3.04692439389814,21.6124031940663,-4.4605780942605,257.854297102861,-21.9728443123385,2.01159440032705,0.121663675675886,28.7500105922145,-1.23452892334747,17.7293057865135,-4.11249703530314,5.1560123083645,1.85127514189753,434.03983984173,96.7297037918056,946.214597324269,-121.03084284281,1001.70350012162,-36.1422891978007,118.246672207614,-11.7537942776595,57.1833341983754,8.97275346787447,630.53607938619,-103.841870764225,1049.57057445825,-68.6101436461972
992.0448024001,-139.167362614772,5.97637690199981,-1.54298056653093,15.6844940013609,-2.93503122921979,238.647991785098,-19.258516934374,-1.01679873017915,3.88935008380483,29.3155268692246,-2.38051778701575,13.2081749834829,-0.485004493675697,7.39847730369397,-1.45121046194288,424.827578438987,87.9035904602466,874.706048407783,-101.983596734252,960.840093683678,-38.1164509757797,121.096631586139,-8.04600672480481,60.0058689561136,3.30473807899164,628.298660660308,-103.120143308894,1048.52679533893,-67.6181396699398
980.887768371342,-128.93024668195,1.17043639055012,4.01116973602966,15.5729109147402,0.552335121015732,245.889344044609,-20.5189141837193,4.78851931548213,-1.39026125721197,24.8634901105056,-0.564387264302171,17.65611347157,-3.39119685430188,7.39492495802055,-0.499849050329714,414.856688922831,101.759734892114,899.938332292618,-109.771782860762,985.337767506456,-48.9142182140564,120.710255861485,-13.9481764124244,64.8162300875667,6.84648153272235,631.617860329066,-104.288401120183,1048.6717149548,-69.2671146511374
1017.83997900001,-138.374233432776,10.2303547568405,-0.292962475246779,14.1653891834756,1.52309574547253,259.048651799685,-21.8401055269499,-1.36272832710751,3.61527568497213,27.3728414187681,0.61355589858095,17.7382445150442,-2.08606914499852,4.8104239989685,0.50753619700943,435.538644757564,95.0490246047072,938.453640356909,-108.597119823588,1004.89869649855,-39.5700744827729,117.84727620747,-10.4084864604134,55.8129188495176,8.33486155511397,632.410082320252,-104.086214340855,1049.99252711194,-69.4808267265938
992.297235069655,-140.288999330262,5.31753316985842,3.20654057296097,13.2859569450079,1.83690112495343,237.52800457653,-19.1877434693344,5.19068529380748,-0.350026555769891,32.217369216085,-5.46563711880596,11.278069044034,-0.283722234487821,5.87535216365332,0.932816865310483,419.999668523564,93.1775793951557,863.347704934443,-95.6666287621782,951.023478183953,-35.0199710853805,114.643815923217,-8.12688117228206,50.6336211074107,8.91242806099856,629.896777915935,-103.652209344367,1046.36722952312,-65.5799619013763
991.64877238815,-135.764305358525,10.5491058286154,0.554879363827044,16.0827405978617,2.99300425853058,243.005937281208,-20.0883281042757,-0.0172341353224945,3.55368654206745,24.5351768001335,3.76846390733287,16.734061884751,-4.33999548201786,7.93109407074389,-1.74102606997909,407.43119927807,101.923367287691,879.629514309793,-101.021470734673,965.922089169298,-35.0905586790133,117.66806120981,-8.70639212070526,58.9738450820397,7.09772361194433,630.827871048757,-103.694178583205,1047.88882673835,-65.7108741847258
1012.84990692139,-142.091412008678,2.00878030485556,3.18126539234656,18.4874804177744,-0.344991485967704,253.904266945278,-21.0849847386288,2.97486319118003,0.187173834829308,23.8930536148048,1.35309090824057,9.08264969793782,-1.06164708855225,5.61129335521391,-0.8111324099224,434.19754247038,91.8858121769945,934.528977631285,-113.807263171852,996.327276433139,-39.1162381890282,122.871837533714,-12.0382639199172,50.1406520940932,13.8426025394036,632.900460852717,-104.161431505505,1053.36628995212,-69.5636429715065
980.365271528571,-133.910442005753,4.32887723597642,4.80284918980042,19.3916704428429,-1.2759903141695,235.466996406626,-18.1886648464128,-1.15842845763627,3.84250510872768,24.6892849950599,-2.94526980348051,13.0262079847783,-0.752685757617917,3.31868560215257,2.15330594982499,404.71966345146,103.677735177659,850.665037628169,-94.8462026228908,946.572121144521,-31.7527596002624,126.029141859606,-16.2307190710033,51.1471443582937,10.495512349145,630.414620008993,-103.767792325171,1052.26418759866,-68.4479617584576
981.688284184652,-133.006809941543,1.76951078383731,1.53192962829817,22.2578766717514,-5.00195264678482,237.954832049568,-18.2320273788584,5.17653886209749,-0.62783957115538,23.1180311873449,2.25237688864752,18.7743724989305,-5.80893924581262,4.26408060042021,2.22060008575148,423.706599600565,91.4788483968968,879.987321631235,-104.057269433407,947.407347429824,-33.173420817341,106.28153248549,-3.0271759940452,61.6704589348205,5.85918356909077,629.700276204704,-103.401974005859,1044.65351981091,-62.70194976412
990.277243329181,-126.973263839728,0.551678307711552,4.09455932017224,15.3662776440139,-0.0914269473671381,251.003938208713,-20.8708807781287,1.83030217452894,2.87307169685957,17.1552420749487,5.41486686761626,11.9534686974394,2.41711893470762,4.28021399205858,-0.71600154065103,427.748588187007,98.70565477205,922.002687499568,-109.817948152849,987.194460999155,-35.6144802164322,123.672300028125,-11.8012875053663,62.5273394317119,4.56518921486956,631.561010892259,-103.373274450543,1052.63782545142,-66.5640212664332
998.184493546343,-136.630507156981,15.202866142749,-1.59951069711308,20.8159689845792,-0.188752662808693,235.907520656906,-19.4463873891027,9.94915525988618,-2.51666442261199,29.8392872423006,-3.74235996768725,8.79005988938581,1.43577675985176,2.74692390551916,2.589864806921,406.886631761128,105.978270255849,847.754030446103,-92.0310786180651,941.107974868724,-32.262392376786,116.596777657626,-7.72460260386666,55.4371536327425,6.95019839011058,629.040298930195,-102.834162064442,1049.90453459894,-63.83298054754
985.847870627636,-134.997308933485,10.8091446060285,3.15381364910064,23.4550065725874,-2.42108080311927,237.351053039792,-18.8345534799224,2.64374570788999,1.32064460363798,24.4319297707663,0.20935085069548,10.7078824127715,1.28094459816226,10.8417621584012,-1.95928866311212,407.061603399181,104.016505269736,864.054445172487,-97.783172996083,945.838015662551,-28.7659215289928,111.370013944105,-4.01550502373529,49.3273370594328,14.6026753853674,630.272554432574,-103.354232445358,1049.40309166794,-64.472747601326
994.98452162849,-137.917778302287,-1.99301425583732,5.37241887859635,16.7232257524747,1.34171623030004,248.067324003984,-20.5257281646231,5.083644882667,1.84464410484976,31.3666593123229,-2.25708809257646,4.47729765049697,7.29194114805689,4.60150689283945,0.755530325392127,412.082440012559,105.669638399171,908.375489546421,-106.581119340425,982.402121555061,-38.4491640467714,117.276279340663,-7.33111927820872,48.9132431728977,13.0480987203193,631.039923851159,-103.558174124936,1050.55739283919,-67.7601375546849
1001.90149523695,-143.016324373036,5.1368211639042,3.81636148933461,23.3607925520837,-3.80653265545846,236.220217439112,-19.7849665528785,11.5501304257004,-2.57127504550382,33.6297892700442,-5.01042834413786,12.0384109666492,-2.8697844930955,5.82378170501019,0.942066146095088,410.176570798115,101.718524311906,850.807180341006,-101.739321058348,913.17787667447,-27.138914640869,116.595533483748,-13.8670738714715,52.8251506636232,11.8926287786487,628.361434823248,-102.929629633332,1047.90476430807,-64.597569355116
976.797660166053,-135.87596203744,10.556645005624,-0.140353395848684,20.0564966583184,-1.35314340096981,238.903184050448,-19.3033256471407,2.04817727990283,3.34209173528803,20.80830420927,1.4493448561227,10.1400502075433,3.49439263876963,3.94170387987637,0.674702824683071,412.24759092313,95.7157947650116,859.759646737194,-97.4889061751573,944.294354266,-34.8425024271653,114.005584332142,-7.38088344205315,59.0861794824514,7.36738875533898,628.848009247058,-103.091963505141,1045.58670410906,-65.0887636838237
992.065390277921,-134.11409501011,6.44459104782315,-0.855366908983771,21.1596469312557,-0.490838203735635,247.068286957678,-19.868676318972,0.641039444645752,2.72353607777091,27.0338312958222,0.0164029432368429,13.085122497514,0.102259957846617,3.96494183202635,-0.289624357722096,427.653888203069,92.0860765082537,915.90143139545,-112.106957809865,968.42973296056,-34.1646329008056,112.584946555291,-6.38707725268552,52.258477081059,9.41334199468339,629.823099670032,-102.683030067425,1045.31040179122,-66.002648242507
1002.82016099027,-143.786321911223,10.4649383419853,0.566069197842969,17.5914939922334,-3.66672572794118,234.509707379107,-18.3665041890591,3.32615219527589,0.502813622603161,27.1886974611365,-2.02748686888687,8.48675856271858,2.00884046466403,0.0754514082022836,3.44805018144727,411.276662392583,97.8409353663108,831.873344715909,-90.3635235640074,928.155178763659,-32.3115895482403,117.271584339552,-11.6308121081538,44.1888773150111,14.7424487270482,626.697891838119,-102.676125552052,1046.64466519399,-65.8743456732968
973.671269286956,-131.754039935287,0.377109311042184,3.04788692128297,21.1788768401886,-4.264005887178,235.747292378235,-18.1282953702266,5.58234288701669,-0.953711827948348,23.6598167100372,3.51577553943388,11.4016716857325,0.689431617787124,2.82035319375041,3.09048597748263,403.183979966761,98.9892196456987,859.103258606684,-99.8093608194899,942.235334235454,-33.2244352666126,114.254361224102,-9.82893676734503,56.4260097487559,7.95073427745474,626.460752515815,-102.509348130977,1042.97806558836,-64.3470861561572
972.80181719151,-131.967237268114,5.31274881510665,8.40210138893791,17.3420186134769,0.809774749046638,242.294152718705,-18.5541061040949,0.421722581270118,1.60682818734878,32.4293076391473,-4.04489387804015,19.5705761443378,-5.46695629866716,9.95350513091372,-2.41074407259177,422.74055438309,96.9051592032603,893.108685056043,-103.16668453451,960.633331078158,-28.7872313101822,122.555691056959,-15.2964975632027,47.8277065103262,14.9881021203128,628.777097460496,-102.809492061187,1036.77429389741,-63.1669966955913
1001.16106306132,-142.658885169123,3.11262925484868,3.29766708273497,21.1464529714375,-2.55450548771572,240.941546276596,-19.036206691632,5.31888869124032,1.39247006365662,27.0713262915657,-3.29126908671878,9.078648867019,0.862917025475081,5.32511984581543,0.440784450052232,422.106087131848,95.363107859913,845.991415018175,-102.428497621076,925.248558930969,-29.6451383557321,112.816272721587,-9.77659358494246,56.6727723324764,7.34370713760063,625.195018375162,-102.010173255882,1040.989047924,-64.2719240556374
962.124881299211,-130.552852998035,4.50243535230806,3.37153834051649,16.9756055589818,-0.548896846213973,233.974883021017,-18.1788413394593,-0.439924096853474,3.70736097957344,24.586058311423,-0.325736509525857,12.9060251404804,-1.70780789644814,1.41972416465626,3.53540174216723,408.869304443828,97.083958960159,841.44245792676,-88.0838411015269,929.312543916037,-31.7587738646368,112.569425283794,-7.6003362368477,48.4686125703416,12.4979941539453,625.375644478645,-102.34209014966,1041.54687968789,-64.6165514058625
967.663729178836,-130.978068696903,12.9459580921572,-0.715393720515435,22.6621729404705,-5.43638281324805,241.279003838162,-18.9818887659793,4.99304018104068,4.11438282261451,25.1292495667142,-0.572925586466999,9.7895124153449,-0.589992181938717,6.99321214673727,-1.45651583031438,413.691928386305,95.4179021441931,894.307462675833,-107.269947884777,952.41807575357,-28.3354587861173,116.235279061412,-8.16219962431092,61.6696711668804,4.86647524084176,626.579698945528,-101.886287002807,1030.5276847121,-58.6958315540288
1004.70787983585,-140.899510987022,8.5047219031638,-0.801122554356923,13.9379197174851,2.52149338359701,253.809995277874,-22.1007384791735,12.2703376223282,-4.14044019690015,31.2509607730178,-3.63975706583781,6.74076577153037,0.899338148946022,1.19855458983732,0.801684375038724,428.042656785494,96.3148574309749,887.487071415877,-103.773074002533,969.144620918078,-36.4710563429923,116.682674565125,-9.84683658510767,50.7550126820565,11.1354460072597,625.847681031341,-102.600359708912,1044.95943083736,-66.3809598707275
958.975833514315,-130.492184367312,5.23809050538943,6.3751392590001,16.5977519773297,1.07873382666026,233.03893334626,-17.6162410614262,2.8588893739689,0.988470129502278,22.9634426270763,2.44624330448277,13.3142599685478,-1.66111833680316,2.24692796956088,2.53973317403135,412.440488641888,100.321952422979,857.929634523503,-96.945517933544,923.271155641079,-27.201247155783,116.862361030957,-12.3452200376898,45.3178025550141,13.0982013522373,624.56689838777,-102.251547312363,1039.33408591037,-63.0470841599053
965.56251595651,-131.136595262487,12.899012500213,-3.98259753658836,25.2509043853737,-3.15311650468358,238.504120045321,-18.1138215939083,5.7809595244425,0.228826575523586,25.5444823937928,0.142327320110574,7.84939225017107,0.712651962815578,-0.603751824978912,3.47293696527914,418.449799262816,91.3361839055315,874.940529000761,-99.5121007720439,964.194938746116,-42.498657092203,116.741438014359,-10.530564379894,51.5779849841779,10.1182791059045,625.9938309468,-102.543825606716,1039.01893254121,-65.6536797446902
991.188572314802,-132.310037214932,3.19895132096367,2.71508469438382,17.5405332562652,-1.76350022790255,251.778495874356,-22.0248026806252,1.29399172897791,1.55178426897668,30.1297677399821,-0.141976892915686,7.99062698575278,1.29687310702115,6.04984769961649,-0.0167326708419464,428.38012667936,97.3476377853651,909.757972475404,-107.77927261122,987.008390131318,-40.0947804993904,119.457625868724,-14.0451455104867,50.4767113342083,11.0557128036277,627.765997890321,-103.35862653891,1043.75753875874,-67.1608925649782
944.716014028458,-122.175994290804,-2.09362819955628,6.73029192463905,21.5849657861447,-5.0411816000165,232.761591764542,-17.5953169873393,2.62232763138995,2.52776329018687,26.4199365540277,1.42350710430968,10.0908608384083,-1.78746989704199,1.85791364424932,2.15792462567028,414.110780298879,93.9420045707054,850.228128847446,-92.8911699588619,925.823524414442,-30.4610890139509,113.001188564676,-7.63275571453899,51.7148584809966,10.2184200199812,624.984890588224,-102.277573148688,1034.60647251238,-61.7175837785916
950.718007609641,-122.64384442222,15.4488361640192,0.526018496803766,18.2234634029599,-3.6644250042537,237.83633344945,-19.1525406095343,4.42007124085005,0.65908648615749,27.3695467317868,1.83888690983298,14.8254063015978,-1.75766134970511,-0.426853022945868,2.08209907105369,408.294601706144,104.343543854684,873.412445220813,-94.1679067523504,936.278588099782,-23.6870316352376,114.803421593549,-6.09182847519422,57.0007717199288,4.97940952149148,625.335619863374,-102.121592314382,1034.70968726299,-64.2560605594418
989.780488080108,-134.033259939404,15.3440886772615,-2.75296517713398,17.5604597230947,-3.70209458966968,250.623790678349,-19.5673016619752,0.701945419879101,0.218491362371941,25.8735666739264,1.2821468264215,18.9781708937955,-4.29240259418592,6.57123061946842,-0.440202810515459,432.606640079426,95.631409373576,928.884247499701,-117.45182974385,991.733105106374,-41.3136567159892,116.168605642901,-9.50191946386215,58.5674651002363,8.52682595030079,628.00354067794,-103.070761311684,1040.20314701334,-68.4505526266559
943.939622167748,-122.512005194468,4.16832993855563,4.08091037370162,15.0365471363518,0.093072344959472,232.067159723866,-17.8005180873174,4.35455455147966,-0.416531255037633,25.371235105553,0.0512384852084863,16.1972798637465,-2.82645125200176,5.88154834674242,2.1922327001266,409.127435525477,98.3052862498419,837.852061321212,-93.4001001861715,934.816293749232,-37.350334392919,114.011467727341,-9.73162813287608,52.1582977429253,11.8752131054254,624.926974668489,-102.197816011681,1037.00231769426,-65.2670672272385
959.775881227806,-128.634346490302,10.4743914802275,0.78886415180361,14.7464229214365,-1.27663564164653,236.342513669413,-18.2468671901722,1.74067511218436,2.24021478723232,25.5118554667887,0.8984215648188,20.8550672410329,-5.04804613692536,1.34030772569632,0.411244934735647,415.98319664289,94.5517634976243,859.664682516404,-100.663328781983,947.370301585298,-38.6772576559956,109.99991733621,-3.01469709373324,60.1025804494679,5.09039608900561,627.745799355483,-103.393465134676,1037.38928029751,-64.5278740732456
986.03795201272,-130.664258815102,-0.575192942356329,2.29859651191568,17.1717511791888,-4.29852049197193,248.571867176326,-19.7473027919111,4.03894616800789,0.962978232755041,21.8469316862143,1.23057459084618,8.28369712116199,0.449031292702189,4.38851972220379,2.42143292566025,411.168120974886,108.47189670498,908.848828853896,-105.362697439101,985.486970396833,-35.5935252099068,113.334890086011,-6.11663358858746,51.0691566418813,13.1426967183379,629.384510047965,-103.368435255563,1042.99481489764,-67.4973805626108
