939.507244191602,-121.609222201129,3.83856810183081,2.13090738365466,18.1671286097312,1.3081579516672,243.164252154701,-18.9301138428013,3.03644983282306,1.82517197528317,24.9580055546512,-1.04848009137687,14.7597199661245,-5.21750216638574,-0.488792342482018,2.83965657281349,413.018789751592,100.043342919127,879.519444269143,-98.7844758975206,972.670331868753,-42.1857040333606,123.197879101218,-11.6814751061052,49.3098758066406,13.9649026556117,598.209278605459,-97.7668888391153,1136.55627972665,-70.3873239754799
951.77157957565,-121.627491487898,8.02448212871204,1.95804444411653,20.6797167449411,-3.59187044856473,249.251121370659,-18.7577900403299,2.40019006061498,3.38976732163883,30.2123451494497,-2.99250221525962,10.313936487693,-0.306919060912587,6.10814454724971,-2.15963029371312,423.103837103325,96.0532230138454,926.980948384869,-112.958679761764,993.685670076069,-32.1151592922028,111.946427083171,-2.85466608635237,62.1300764059754,8.2387749024536,599.885668486852,-97.8810873709629,1135.12308815138,-69.8668846349194
974.276678490912,-128.575204844742,15.2644600057349,-2.86836310191157,15.1224347701316,4.98214017669999,261.84876864683,-20.8485624784542,8.90174931429681,-1.5043967125255,24.8095518264297,1.81990825188173,5.82980491679241,1.11781272123258,-0.42542544902174,1.48304805950467,444.05328754981,93.9222288458947,911.074014229432,-103.873584528762,1003.89500573143,-34.1080281805763,118.002226821171,-7.62889541473127,63.6736501186781,6.32230742690551,598.494601653453,-97.5840510636506,1143.3758216533,-71.0273719235322
938.230158470258,-115.546113666562,6.01805841626866,0.409755475614857,12.0264565018008,4.33167507639867,242.009277615093,-18.3189386683297,0.216711302959433,5.04563158927309,28.0957577255207,-1.74150235853012,16.5259919598388,-5.56928467426996,0.773751008335935,3.73304335701581,413.410687420095,101.330174865208,878.738381659505,-97.2929429673994,966.053886805532,-29.4770341038387,122.96711669034,-14.1204190653874,53.6253689225957,14.8709853318956,597.600712014,-97.34461635546,1136.74894685071,-68.1421115774729
946.372005468867,-124.090563190423,3.01426814635263,1.90276233632996,20.2690822063904,-2.6297480052393,246.172514605348,-18.0851066616428,-1.95136860279534,5.973119228024,30.6218094830805,-4.36821802024446,13.7630714307233,-2.55470062820569,2.1819772772217,3.68648160171972,419.916765432749,98.3457978999101,916.02306865075,-107.467709075614,998.943686456005,-44.5265346783714,122.56896832193,-9.3132732446754,57.6475881784444,10.8939660584162,599.194868084647,-97.8542518917183,1138.75231434116,-70.7347480035465
976.70895895042,-127.417698744377,10.1136330442233,-1.09834208339516,20.8421517908971,-0.637940164685159,262.331652814376,-21.2212365619912,3.19802405118596,0.0126255992071435,26.8513622347945,-0.847210019101808,11.409051293331,-3.24093628155762,1.56835217594138,1.9374478387598,430.377316408333,101.359801464074,961.191504268794,-112.232129314274,1037.47059958737,-45.7456059867684,122.635716884222,-8.26554992377142,61.818026881269,9.94246083569774,601.436685588377,-98.338851639062,1138.36079698504,-71.2201673974237
933.158888630074,-120.279187416838,11.6848334454153,-1.75517956224674,10.1468489375666,4.3341980610345,239.810187900116,-18.0021591121142,10.2215687209306,-3.43347302093628,26.7740085552195,-2.45637811222679,11.6055446858845,-1.69720121999202,5.34563398174634,3.72184270733211,415.608940783592,98.8534730447045,874.058150932285,-96.179369404771,973.268863052526,-39.0385786319268,114.670645719282,-5.17629542615949,55.3537971252826,9.410575408203,599.169477477422,-98.4457114405872,1134.87654216269,-68.8961744781921
942.423762528245,-116.944657730885,1.7275001024232,2.17199787710652,17.698307567207,3.32712745491982,244.526011746588,-18.7911693531225,5.6769009211923,-1.30384343670768,25.5446958443637,0.542470491334282,9.15276702814353,-0.747126814928907,5.99103045102796,-1.01696892756633,409.392382187294,105.885560347736,900.565842821408,-104.95260040355,975.961114504862,-37.4195883262251,123.98657510519,-10.5270650718609,59.6067102725714,10.4882172616492,599.752768839659,-97.9645580411275,1138.59577313336,-72.9125131712368
961.411839156485,-118.501968147802,7.40323968293579,2.50197573869215,19.8320411466077,-1.12371261021747,256.321132550415,-20.3738336903392,2.30971549386035,1.93017994201414,23.4280011584974,1.97765992751041,7.02858330902995,1.6116416088161,3.4435543675744,0.741015696422476,428.919331398767,101.198016561719,948.128431418492,-113.594919440511,1026.33562651958,-46.926988255368,114.921242755516,-2.45761721181634,63.184560262925,10.3011346114027,601.22431852135,-98.0418641653795,1136.66828634215,-71.2679316874675
1005.87400554261,-139.821182591158,9.27501983977045,-1.64127595670242,16.4460981788154,3.0845957664874,251.506181518182,-20.2336769235432,2.26907049224573,3.74025064626757,22.7513286141189,3.37557323206892,10.577179089838,-0.685186723627612,8.69816525203743,-0.452668328976788,421.655572747445,107.731612948501,890.115011109058,-105.394832925752,990.077985956132,-47.1538484915016,119.122569297169,-9.34830444473822,47.9747496119813,15.5079967405559,599.178360296013,-98.3522183677589,1136.25235682734,-68.0510306395019
954.087010089772,-124.26480763515,3.03633137217754,4.21190926317494,20.9072410325214,-1.38411432886276,245.113558361489,-18.5879177315843,7.72605303896381,-1.11541127486199,27.6776787710986,-1.33775848908235,11.8969115954627,-1.65949576695443,2.05654302271719,0.917454885854574,420.100007554556,100.138461987478,894.81705648391,-103.90451537514,983.142384984002,-41.3842991363569,118.820742566305,-9.27190854495501,55.6329790270793,13.1226683089389,599.777406575393,-98.192857126521,1133.20947936766,-70.7241138073131
976.550115033691,-131.795711192579,18.4851123676074,-3.97742871015176,14.6708138712375,1.38184610068413,251.913276219932,-19.9447699059704,4.06466429425144,-0.0442721388595645,21.879720549495,6.81100024148686,13.7646573329308,-0.332231706446986,11.1735451504553,-0.149260672711533,415.02847203688,102.755265840573,935.758792959567,-111.870784048753,1007.75231194105,-36.774385482301,118.612937065924,-8.09755980807233,61.2312716240192,8.71821187740534,602.140524059619,-98.7379748049141,1132.47685474211,-70.1602758539384
986.208977136441,-126.681000893177,5.05170372528235,5.07796570945485,17.1454555884587,-0.336549319412157,265.832513509598,-22.346579298707,3.40676377553474,1.14191695219781,29.9362299645625,-5.96286701028771,13.2179609804015,-3.41959685108355,4.96600133477084,-1.65141240670078,442.58397740893,99.8002702392469,974.333868857507,-114.289041757161,1050.78293866933,-47.6246648534912,125.252413814062,-12.2928243625421,62.5428900676452,8.37497184765558,603.999393626002,-98.9796878974233,1141.27427958869,-75.2459380353117
951.664508191546,-126.309536246643,5.63393593311968,0.956795044829139,14.8744154651335,2.39718993836924,243.553888543668,-18.7950813521371,2.80441104857806,1.39859315218403,31.1737787236602,-2.96479345162077,13.8005116281202,-1.34308203192902,1.24967845398439,2.32458330482355,425.226908311239,99.0464342081034,899.33213535561,-102.880587252006,989.333563371081,-39.1925876156102,123.141266808842,-11.2667240948187,57.4811657933209,10.3823073010224,600.89380060842,-98.1594194649494,1137.23571312511,-71.396182205983
955.621951476186,-121.833088126227,10.3390560151617,-0.974869396750093,19.6798550549941,-4.86660031193903,247.529755379761,-18.4249592509054,7.70327232514025,-0.264876105304874,25.4452847420186,0.616613530865393,10.8983144069107,-2.97972177840662,4.57706072741235,-0.319617178612167,420.70880043131,101.295879609704,925.519528931139,-108.015692871365,998.558974581112,-41.5719454641283,116.298659205915,-7.31202191762314,48.7326244695627,17.6392933949373,602.233173666797,-98.5551749766013,1137.99521141065,-71.281816658982
989.589588892111,-136.960436800284,13.638776752488,-3.20592902366443,15.1469068045591,0.765635849410478,260.866964434038,-20.7144664558277,2.61898373316653,0.595897113008893,26.7082271832068,1.12685605196016,14.2504430290987,-0.353881650165793,1.68153435426168,1.96364624572174,427.029854253414,100.796486006684,966.460865239358,-117.951710822164,1041.09546857168,-42.7850431713127,125.005974340718,-8.95133743388794,52.7476287578977,12.3087557867639,604.682820230984,-98.6617694591062,1134.60106653551,-69.5855993903969
961.720659213223,-128.942537905707,8.87924990971549,-0.338352167050736,16.7243405067397,3.70590406316868,240.137195910879,-17.6683018425417,7.43573674376222,-1.23914503316314,24.103573558185,-0.113098827062753,14.5328487306372,-4.2621551041821,1.78969274855122,1.15320245237298,421.08971075979,101.848741047757,884.351192861137,-96.5575395297764,961.325845332558,-29.2993598453676,123.271225622451,-9.50976608772666,60.0686923254784,7.5833905046093,601.565439857604,-98.2681794234442,1137.51762056689,-70.7286072181439
957.129873175611,-127.342040321173,6.38577142984535,3.51668602001291,15.9636099668746,2.52448796972024,244.773638376461,-18.0680836824906,9.13428533396612,-0.809319764842692,32.1434713515832,-2.06773724864859,9.94412072696453,0.121554406503702,0.303562014894026,3.83053002995515,411.8522791359,105.169639940425,916.086573141265,-108.206817046362,1010.28873486572,-45.3009888084982,122.674601155925,-11.5368700917235,59.8872637124482,8.45865123229843,602.15511273015,-98.1860244619032,1137.23637092025,-69.8011063173933
985.327500240911,-133.406650167416,3.19749178685378,3.45881292808192,22.5199255002524,-2.88382018201337,258.667619118877,-21.7638513720299,5.92314780286729,0.408845647595856,27.4299089428625,-1.71088135033869,16.4429859216809,-3.14870380110002,7.46768577830281,-0.0912185112360456,437.268664555524,94.0751658357382,959.455760219002,-113.909933962585,1026.27435227031,-36.5173979553369,122.02856160231,-8.40522582773058,62.6530660366498,8.03599000461556,605.149227037553,-99.3153590708912,1138.46432425521,-71.2649432596531
1000.2918101485,-140.381484962159,1.21296395460788,2.157121073786,19.0034952835522,-1.062987252968,242.292062799992,-18.5551030790856,0.205632018339244,2.9644601014833,23.413072262989,2.73088789584598,8.38350710757784,1.96013835396014,3.25187093114837,1.4555047433922,422.056282079878,99.4354466656198,879.506924984279,-104.718906734824,991.606924080775,-49.1121068612424,119.079194262793,-8.41036595065609,64.8819738302732,7.14460467739399,602.616746363562,-98.8558906024261,1147.10156797694,-73.5013566971265
957.139849781834,-123.99654352574,4.95871907542496,3.19444780306262,20.4537630569575,-2.21788867763134,244.283760815273,-20.0202088205646,6.01291067987155,1.29256293905581,23.0464906737364,4.00779392214468,14.1554871456478,-0.443693638693311,5.53523692645053,-0.979096170444491,422.216309368562,92.9575130410107,886.322878019909,-99.3283668696336,991.127453597383,-43.0276603826134,118.680196220149,-8.90502237668158,56.8642502797367,6.49207160831867,602.946252692517,-98.6910114720672,1143.0256475537,-72.3412864123553
974.08348190172,-132.710567101137,6.69473477181989,1.37856602531452,20.9698272492512,-5.4666525880462,250.572403423006,-19.4730209249422,-2.55008050868178,7.3082959694632,37.7599027443926,-4.45186813460671,14.8420898089482,-0.298785686342106,3.43310465051236,-0.265112570733487,423.66298470495,99.8427598038849,934.24388622257,-112.571438338088,997.468698834528,-27.4444480433657,124.990900653194,-8.68617970589612,53.969274011639,11.4051675699855,605.393326993468,-99.6029281859164,1142.79069726322,-72.9048943255908
991.623716283262,-129.800955268044,7.29513975951979,0.15392983554832,28.1733668225386,-4.27265490014565,255.939139446802,-20.7419661176992,5.91687652805526,-0.434296369728185,33.9661620809146,-2.09623987206452,13.1135332187789,-2.04540291356257,1.9760266135402,2.37049838777988,433.039728534025,96.8721750030095,881.094583919197,-99.2547997449008,990.747250691444,-33.2720385791942,125.19336927451,-11.8044926873834,60.7667426801479,12.3811630875225,602.215388446396,-98.626720909837,1150.28515595212,-76.1477734564643
947.901326439042,-124.629207542197,0.276515397318713,4.9534126719221,18.6598491783083,-1.46677977880854,240.787813643837,-18.9210743605725,5.04608478325182,-0.427848694400075,27.0845255006759,-0.58655803818984,10.9852987537173,0.358658278574057,-0.333286350358226,3.49439451938426,412.730688981686,101.310556715042,880.661135827171,-103.448580762011,978.224977908228,-35.4066147026066,125.294822548655,-12.3205682364409,58.0952833703097,7.9137952498091,602.120708803456,-98.3819484059753,1146.85771589887,-73.0006269204703
965.337886082413,-128.771123081948,10.1263047489663,-0.480320424639456,19.0094615131362,-1.98436386937301,246.381012072818,-18.3794013637086,4.71658622809859,1.53374613195643,31.0359691733774,-3.93546566359605,16.2639860727783,-2.80725365723075,3.66283794108147,1.0213380544605,419.38391861293,103.552326072011,912.400019242826,-108.346517730695,988.749109860705,-36.5399164375862,126.680932776668,-11.4035987192713,46.6573255557342,15.8827565965712,603.877545931247,-99.2606784693307,1143.8823377262,-72.5136068181611
993.053762742832,-138.363510473122,13.5001777576601,-1.36289210068048,19.9081998041798,0.289557064133525,257.081840136004,-19.6209185194326,-2.72542894793209,4.72686272317089,26.1113574046793,2.48673742250084,11.3983284221444,-1.60567429764494,4.44742463039304,-0.569814918511466,424.400815586519,105.59670229162,951.743530435535,-115.315626834479,1022.70193766808,-37.2635244822065,128.950151980826,-13.5424274903074,63.4894702316912,8.14415787140764,603.435860754721,-98.7328678025761,1149.63605775834,-73.8483344054434
941.78719996429,-118.645002190405,7.87409946941385,1.44103763261157,15.8823156899213,0.57990526892482,239.050346970797,-18.6374038670128,8.30017154746604,-0.257161252342229,32.9982510299818,-3.95123852205965,9.34543322976723,-1.39725820454317,4.40343471465796,0.260322462262578,423.266720555383,96.5676984559924,877.958356074153,-96.925197788241,974.030703200322,-36.980250277192,125.167258929011,-11.5172421794646,58.2993900575194,9.61108359343211,602.433335492793,-98.825992912449,1154.5863100037,-75.6751824648281
961.106453896815,-131.286840031069,2.15255189647214,4.50566319514376,22.5061789709707,-1.75545342337134,242.003763276505,-18.1138878736096,0.70301556736106,1.85832158078451,27.1366432823345,-3.27852692104813,12.4212577357104,-2.47073023322237,1.84142569299945,2.68100404740311,419.163741738453,99.2604267759441,896.750438837471,-101.862113150712,978.673434534211,-37.7749503214063,124.714263603407,-11.315956665467,55.0152273654121,12.5592213637853,603.316413895389,-98.6541013350646,1150.14595684519,-74.3237181860761
973.912849847472,-127.632109778707,-3.75057628181848,6.54990844686415,23.5660162176292,-3.51956627493753,256.006657124631,-20.6524979283965,3.35200344636081,1.42427745367383,24.5414797730925,3.30762178566592,10.1174942459645,2.97798033270653,3.4841723247784,0.499862518661692,437.0362585673,96.5117588157129,924.879254481038,-106.572894260016,1013.39106252083,-41.8255782802505,125.537509144845,-10.9044583296337,61.1444702428313,12.4902171230062,604.801847332609,-99.2392647671587,1148.06674839949,-74.7145949716451
944.904771292552,-123.720273483462,9.52154750608462,-1.94641458463418,9.33393954675355,2.1178760418779,237.019375983266,-17.9533719068261,1.42385009965202,1.34343802387073,24.1487814586262,3.43205037934534,9.67234456196487,0.327330857050153,-0.319253468231105,2.1841130275856,415.600748745071,99.6076421847984,866.714838589451,-96.3286612339315,967.464611640946,-42.2436113454335,128.29111511938,-11.5364945186308,62.3570587619107,6.27098464198204,600.117856259502,-97.7559227343324,1149.13484923495,-73.4206697444243
944.884361947824,-120.895809866859,8.75117069570616,-1.99051773442047,22.7883293129416,-5.03547155585887,241.085833017101,-18.8037302117393,-0.819772806658685,5.7130624767109,29.6213216040456,0.27229646920702,7.1037049747648,3.65959351140706,5.16144925464325,-1.22117635425495,411.091126740821,100.472205512531,889.952862819929,-106.478114962164,975.716696884102,-40.6573290706632,128.135335799381,-12.3972430560084,52.9349588646903,9.48756400396954,600.405220055553,-97.6860698039426,1146.4790896272,-73.4572147166327
977.083555017309,-131.635964716871,3.9340247567531,4.45667059657282,16.5855933785827,-0.914987499434227,254.505850608855,-19.9582973791986,3.51257253465236,2.29951065801036,21.8296331459969,4.22224146806403,14.3748435073564,-0.369202310022187,6.84627614660637,-1.54157527333616,432.143705725671,94.6041360071413,929.01781123402,-111.768200010913,1016.97952489009,-47.1839202702629,120.172713316845,-9.20100313634017,52.9637947621943,12.5708872500695,603.862013770106,-99.3137556482069,1146.40731800124,-72.2099460569134
959.991805323208,-126.10945722657,5.67817858593335,4.04240814539027,20.8161479806738,-0.489083029648657,237.43766374868,-19.1650495134175,1.87007054550358,3.96938910987886,30.3935439236552,-5.75119722526896,11.7807732197837,-0.922624773675772,7.77978407203072,-2.30985837747027,425.892276822629,93.7810725384421,837.346452276563,-81.9839654490493,951.087349210151,-36.5741756082259,122.317742826721,-11.5832274347523,54.3460170184742,3.96355884461332,599.927414198303,-98.1458334514819,1144.84584273261,-72.3056298916592
944.518261335042,-120.594301109048,1.48025913715444,3.79711434039297,18.2545754738457,0.278061152964272,239.822236604791,-18.8510966795594,1.63077367330669,2.69414240524919,28.2909635386641,-4.84467948803459,17.3454768420775,-5.33444393329049,8.30094907427122,-2.35699330649447,416.498019668619,102.990319104207,862.729760880442,-94.0159937105275,946.799511317598,-27.5893722370752,120.854299199328,-8.90211986116675,56.2819712279936,12.5803258189825,598.526902872478,-97.190154340352,1135.23819132852,-73.0929923738602
962.415971776214,-126.705300764536,12.788517614708,-2.00331110099347,18.7257165873833,-1.96109416877292,251.307022321833,-20.5152848355598,3.95502806222282,1.48062279772463,17.6992889156613,2.81274995491176,15.1071529434433,-2.80690643711818,8.54212586779011,-0.525855244953828,427.149255565959,95.2146573644305,918.255557505707,-109.245173165678,993.249111742495,-38.9499966754532,128.440727541696,-13.0106499447301,57.4529465296507,10.3612273168604,600.585602214838,-97.6583434997577,1132.10333519998,-73.3685963149745
989.048971839952,-132.896232388077,13.7301482898312,0.943546018517241,17.5851981915322,-1.84709075832783,253.489662372798,-20.0133873564687,2.08096681532084,0.240135741482097,23.8781605530961,3.23520757731109,12.5579547918973,-1.30765553158844,4.56369757156124,1.15061133770485,420.8842743797,100.921113439467,874.080382329406,-96.1208984580788,961.677746024587,-24.243147431393,120.904071432891,-10.0133469053268,65.8146800230847,5.95788363767783,600.962222688574,-98.454448927808,1137.54980815408,-72.0196205978827
932.916121273197,-115.679571498587,2.90382050807222,5.99571087326803,15.3813843603064,3.62677645759666,238.347640495242,-17.2467509692171,1.29474972670172,2.97774891983807,22.9987522228521,-1.39261605978687,11.884054265604,-1.73516879855795,9.69033025295023,-2.38569759282358,404.08764665485,106.297392051186,864.89676161397,-98.5394454546647,960.68585644259,-38.1285816193223,121.495003656965,-9.17775718245809,50.9296487837425,7.41050128136669,600.721831693496,-98.2621654219699,1125.87836501407,-67.2856380375777
951.554856699207,-126.030372986983,11.4796720384614,-2.13479691875068,23.4362108369814,-4.19804229556285,246.13303978789,-19.8289061463364,-1.11200178970993,3.52690649556874,27.0336412184672,-1.08688661260973,6.16953112990718,-0.0396160188787064,13.0345278542975,-4.27188072716476,426.179381348759,90.3667673731875,900.420881424844,-106.275310693076,980.032540364223,-40.7349605290631,116.405617073446,-6.75446064390527,64.256353076726,1.40112197543334,602.213475051469,-98.8501742683638,1121.80768932652,-67.3470653358289
962.809002040914,-125.273275453012,7.82184018703634,-0.735601584172628,26.6764937278772,-2.93049331473073,257.503986598725,-20.5959311966206,7.35830355131913,0.339604952888833,28.2725664615731,0.242172344969796,8.5718148971562,0.936802857004079,4.98980449894067,-0.871139793438451,414.526926969099,105.527661506256,940.586559821967,-116.137627782091,1019.61945507965,-47.3425109414267,121.589676826511,-7.71218786135421,49.9681232838824,13.2139783514769,604.213613304084,-98.8167599349593,1127.51521570132,-73.1165225784093
945.679252854552,-126.263021090374,6.42064508852448,-0.281141379155964,16.97696250894,-1.82793194790179,238.383514088514,-19.0497983065066,-1.8362703656943,5.57713737670658,20.1957968170785,2.95348976927364,13.2848616369725,-2.22236201901469,7.84406832051879,-0.164928383303379,398.863409115286,106.501167709975,871.30834804034,-102.302096809711,962.135216348543,-40.516827338458,125.356547555245,-16.2592849146323,63.1756908449742,4.40942880993753,601.412307087677,-98.3775580449301,1124.4095213813,-68.9521427354838
945.08456606322,-124.911841420992,3.66753225588306,3.84574032660311,16.4981960326244,0.786119476735777,241.677366001118,-18.5343040812092,1.63125588961679,1.49847064645449,20.379942994011,5.20035240057916,12.4574798148242,-0.532015616774685,5.74882690884085,-1.04666987046193,415.805404029571,94.2637726365678,881.425429454913,-103.141199655545,959.528913136248,-27.8963631169413,119.401043034777,-8.35706394243791,63.2359312784462,2.23361458425695,601.828572866909,-98.3096677909976,1123.04595665021,-70.3659380202376
964.943439191627,-126.647743995335,8.49674323089456,-0.213541277313672,20.6560733459892,0.803399588480299,253.925612459915,-20.2133530014612,4.02283109714911,0.0454914077132006,23.8406125164872,1.66256836562303,10.5489371466253,-2.706863855988,3.86992520884302,1.27141631101467,420.558161944537,98.0133436219501,924.557973886413,-106.938944317843,991.596198911444,-38.5954769559871,124.134762707761,-8.26979371224448,56.7743393550416,8.07668760200215,603.925396095252,-98.3765029896934,1121.41870671359,-68.606389714201
944.473802336448,-124.943971873626,4.38097110775095,4.51941047892252,16.2893046239916,3.36357012657217,235.946203521732,-18.4323286984671,-0.0203978157197409,7.84436425055714,24.2599644944417,0.0196151568891382,12.9201418231487,-2.2086410518198,0.828911266159665,2.2463848225169,405.825993116093,96.6102968476238,847.36073264689,-93.4275228260883,941.379386089747,-31.0794907222954,123.557368800079,-11.0301138796559,54.1962113771228,7.6699042242467,601.957445699212,-98.5662651872331,1121.5996042303,-68.2255392684771
940.227447052383,-120.446668659698,18.8882682995856,-3.86545627713589,24.2468455421749,-6.75387405830964,239.424745827482,-18.6937798842934,2.35792540357363,4.27801497516723,27.6524933056207,-4.93109453496815,8.6015130567196,-0.139571153564272,-0.963760850589712,4.44434598904391,408.585173840858,98.0563771077496,878.840864396142,-99.5992958198533,948.900919153346,-32.0195672807822,116.485384144805,-6.7256723310234,62.6190627084645,4.72391922524075,603.561880850791,-98.9151873816893,1126.33151271401,-69.2507743227161
965.853533869835,-124.333763600292,5.70245572897184,0.3220331587386,20.906086054649,-1.65880740565657,251.165248082311,-19.0206232648308,5.5854843177295,0.347618802821426,24.4320659092728,3.64078760829014,9.4028576422584,-0.100659409963169,6.80848813222934,-1.14772815263751,418.301887723931,99.4470368473209,919.570076858884,-106.665895878658,990.012939161467,-37.751361347158,124.015919549543,-13.599106740096,55.3506746393168,13.3176485326314,604.296361435595,-98.7541919245865,1123.60929281096,-70.685370740252
1001.6530722123,-136.416737959821,1.9131847541501,2.2734264661192,19.4327440577937,-2.47906403935271,247.692159018094,-19.4416419762957,3.41507905828132,1.67920738821653,25.6566188951822,-0.338983683759249,12.5134559431483,-2.68372475704501,1.94924585129584,1.88961197925844,422.676939780034,95.0444085442205,860.79661313221,-98.4339650112319,957.16641832374,-39.1562806664217,123.717362933389,-11.07282651808,50.4244548116198,7.68224986150886,603.330424095805,-98.8289605663443,1131.98973891439,-71.4140299105561
953.198072492401,-123.13890022742,11.1627480693402,-0.89130398368787,21.2234937570921,-1.46140739631658,241.101303079957,-19.1371023566595,0.429888484822665,3.58245509158058,19.3275036782633,0.743321291047298,8.09348155804219,-0.766581831507507,5.33512425749318,2.65865950743476,408.643460817382,104.541172819497,863.909078651658,-95.774431565463,969.507957402456,-46.5232094559261,118.6422174358,-13.6479881092833,56.3818606795252,14.9073889423542,602.533992776371,-97.8201109636697,1127.6998351538,-69.7090247496885
963.979363977029,-127.901489594089,10.855936152806,-1.44962356721449,10.2600151470531,6.19488881472961,246.935805743761,-18.7627714943957,3.25726610635751,2.2133235307924,25.7933867338139,3.12477725654456,13.4297629485252,-2.26238277168225,4.69188931696287,0.105118599457942,419.048756013816,102.013901724963,906.328462355771,-103.141071791513,989.000529230161,-44.7575215400855,123.11842215783,-10.9679358065173,55.1520047590375,11.6991435539405,606.233534514237,-99.2414162462483,1129.89021398769,-71.1638769642805
994.298114805418,-136.856820788955,13.1625246193251,-1.18991315030877,25.596275293902,-5.80510747742603,260.357372505939,-21.5029002772402,0.965791563356548,4.66325121401711,25.0293148162438,-2.34109590352019,9.08797333485891,1.3860391891693,3.51797752635146,-1.02928013742412,438.314552674417,93.9734341912526,957.882096874984,-121.350106578651,1013.18840804144,-36.886072795532,125.583962987036,-13.9402577151876,58.5437575975807,9.99436027603421,607.361744039941,-99.519857827099,1133.56404186133,-72.6266902428787
955.936422025737,-127.837205364542,1.46156043849188,3.46377488363755,19.3395465717964,-1.90465009481442,238.620179868864,-17.478867828279,3.67526328543255,0.523010156025512,31.0374949363773,-4.38632691747037,9.03663916741841,2.05939434469982,0.579913450741185,1.70915711044426,411.89173883731,98.6183973314937,868.179222287188,-97.6377878997313,960.09444737961,-34.987251403768,120.396098709789,-8.93235609893332,52.1608678768414,13.4832068681601,605.661380522854,-99.26604394776,1135.8125280506,-70.9580272359956
956.568920161266,-122.098770288307,16.4147516814937,-3.50612608856991,15.7919860034036,0.210558607378725,242.411835732132,-18.0774383140088,-0.958669132292451,1.72989045309837,20.9706657193696,2.90476969890876,7.45306586610207,0.597774274092346,3.99957916871863,-0.633858953526539,411.21595822101,100.198589649658,896.945586588167,-103.351815712245,982.581778809725,-40.612533572243,121.113561275482,-7.95412296557288,49.8750450866955,11.3093834065103,605.484895361874,-98.7063147496743,1132.95059692759,-71.2060042239206
986.636471842207,-133.496419275928,8.25455617789374,-2.7278341037269,13.4743565149503,3.33534902696337,257.503784522606,-21.1175676259784,6.07649929286097,0.535913587680921,33.5483151995214,-2.62499238948076,7.86494929337504,1.03496373603402,2.49534746250035,2.48372550030375,435.523576003334,100.575876372794,951.323586235118,-117.893469258848,1023.52177044292,-46.6878431755,123.945291277626,-10.5818629150089,53.5158814642934,16.6102553225026,607.658255818082,-99.4939672941424,1140.39838732861,-74.5212748028198
967.912896009713,-130.560474332003,0.794845058606908,5.5869641481045,14.8578997310789,4.1574049953098,238.852627262658,-18.626774099564,3.15953837721239,3.01913056225007,27.093064224795,1.62851214465528,15.3189182781347,-2.16662378350494,7.34968338786558,-1.27974685915353,415.264124661439,91.8216459429516,863.514028816517,-92.5388547130726,973.925464228433,-43.9282781399888,128.384273702421,-13.4361136421007,54.2221151234666,11.8118537433511,603.798857168305,-99.101967617391,1139.34530804244,-72.6009323284264
963.111481863964,-128.86991298116,7.89736065664065,-0.107258813150858,20.17504309088,-0.0684713700192687,243.27159074976,-18.6847619964189,5.1514718989204,0.407588282603191,23.0500233946436,3.2805882197583,13.5059602397376,-2.48864798834197,8.25235219629159,-0.90491990928118,424.635631654346,95.0924839910389,880.25890823215,-96.9677223114177,976.957727711618,-35.1005250371955,119.411211537738,-10.1324614843658,57.0115700219131,9.09152703600873,604.043572645684,-98.5826070348388,1137.01232869641,-74.654170696263
983.352462990614,-132.900387801327,2.53434381713972,2.27872081990307,16.6679523792156,-0.0446198748280487,256.127504189886,-20.513825185493,0.967434680617582,2.12654341215785,22.1781871396984,3.16133649836077,12.0341945941417,-0.0976107575092257,5.90144474800684,0.0849357267723128,429.87371965026,101.418244552813,936.629867602598,-112.374279215687,1019.65600696271,-47.9029527954108,119.969502160654,-7.50343108828031,61.7576837102342,4.03838492593525,606.16951916217,-99.5115943682334,1138.85705931639,-76.0768490004307
982.137535401865,-130.351391804688,2.84080853046938,4.17808236209017,17.7985266285974,-2.55779065867771,243.047346093312,-18.9529606696421,4.15105235743825,-0.367484977300793,20.8325212385137,2.69397715780743,18.3717852145464,-4.34992375366043,8.29091670233628,-2.57468869044641,440.011027485987,89.1081919604058,869.481964010516,-102.081404832344,975.306484158182,-40.9482781047855,113.748672464504,-5.82166435579408,51.2557754391239,15.7972040448166,600.786143711419,-97.5718597635325,1139.91129448695,-74.0823947128102
954.458312164404,-126.478785100679,10.9201314227847,-0.500398682443513,14.026973151225,1.65410826345052,244.30226749761,-20.2460966705379,4.34668697917665,-0.992604715015267,22.2105132979703,4.37506065108365,16.8152467277617,-2.44911513979812,3.47124368040553,0.120994107171758,423.844957604686,93.2326486332934,894.552937709648,-102.996079516289,968.687872707909,-36.3700734928622,124.14478109397,-12.8201583555888,60.057476651862,8.06194289695502,601.598393319739,-98.2220664800481,1132.74612190602,-71.8554733477068
978.730745979095,-137.452794372361,15.9850313486646,-4.73990719482659,20.8816512275791,1.59169980548627,253.048303691011,-20.0055699864095,4.60625300219384,0.609776036709107,26.3560532445111,-0.0216785936542066,16.2568495320869,-3.78148765483127,5.62846101854594,0.0180795040399029,435.780736698842,97.6801425214203,932.110862885604,-112.254283519778,1024.96634328044,-49.7452364012509,122.166715691596,-11.0559398936189,59.2236136650667,6.40808656231938,605.859396201024,-99.7347130453231,1133.27818931792,-74.5249114711821
988.992576160064,-133.746987137506,15.6515054180892,-2.96394469959528,16.3273839236149,3.23394866633841,261.441374724299,-21.3921680631245,3.56348510760732,4.39334257026569,35.3849903001329,-4.19191465622416,10.6978336489081,-0.672272016928118,6.67524040963543,-0.409920420487828,443.061079750119,101.565418629532,907.484221870372,-104.741926623455,1018.65765096939,-48.5711575106302,116.238568885898,-7.50543810256087,50.1840307652871,12.4924942887824,603.282124811706,-98.9969606944167,1138.76882682576,-74.4343172371203
955.013124889504,-129.734663304709,-0.682825976547263,4.19731251725736,19.4199769806435,-0.804291340232779,242.691939548197,-18.4464216872112,-0.991627991580109,4.65791948619588,28.2174109058837,-4.85549697670191,8.1328578582077,3.31687507338276,5.15162326373137,2.09687594768746,414.009061581073,102.275460241144,897.289874526652,-106.577804608018,982.130344799628,-38.4482886465708,132.608682274778,-16.4963213208918,53.6021431141415,11.5151374566202,601.971648279246,-98.8942819225174,1133.5182534336,-72.8466424188563
957.278355461002,-130.475356151816,10.9429023509478,-1.8215959910527,21.9879211276911,-1.62261865724324,249.527395614001,-21.3484784082822,-0.899532961298832,3.51836699587946,34.8367784429911,-3.17004693394348,18.0796882062638,-5.53643239200536,5.96034087869173,-0.8043959350757,418.769146165399,99.2155569148078,915.309452019289,-108.280094547316,1016.02595769263,-52.8346806508933,126.082745376153,-10.961902682012,61.0319495181449,6.82585290320979,602.987862341656,-99.0310098650082,1127.35134155575,-70.8862340718165
971.576438443109,-127.866068068928,7.33372078456451,0.0878118174216939,16.9867519517908,-2.53982501667918,259.305750388976,-20.7220830625336,0.0739692259641205,3.72832982563244,22.0880711539758,1.5989699989565,8.86213756362636,-0.851943031190522,5.22316528077946,3.55849473658416,434.159889326993,96.2681296001476,960.23414436578,-113.544943397541,1031.52864293602,-44.7036688935036,130.549302719031,-12.7813095581498,49.7792445820068,11.6807290999469,605.003903082288,-99.3850866512632,1129.08614765981,-73.7175552402499
953.713807348181,-130.682341172039,-2.29289238158393,6.73775989546685,7.55425300593436,2.72533083656196,240.348674254464,-18.3054601565582,0.391465981174181,1.59238243927696,34.9397130597791,-5.244684968524,11.5959771853463,-1.04314222356249,4.18418847151904,1.00738351569646,420.748250105242,97.2369096335538,885.144567233322,-103.535537197413,971.782516204236,-33.3731427334754,124.33917151926,-13.4368477073135,52.6739599662108,8.93572675235266,601.131961082358,-98.0034457846144,1129.81429588374,-71.0090034128704
952.511672448472,-128.704594519813,13.2911410767857,1.29851673747775,17.1552854757197,0.900097474026514,243.798184580066,-19.1184178950597,7.1545458360834,-0.893928403552643,24.5212988997104,-3.43687083787866,11.9159579314031,-2.96843156580524,9.25571478765269,-1.3335747795526,424.576862961229,97.4862696914204,900.435836240975,-107.628135647021,970.34661201263,-27.1880999331974,112.876707848115,-4.79785148026724,60.2936678797914,7.98320847409334,602.518704528324,-98.4397929290769,1126.73326064613,-72.8931524068153
973.799026373255,-129.68495372904,4.98929605536228,4.64216127002897,21.1030812574366,-1.35869075927866,257.527956507309,-20.9852190356056,4.79882131187902,2.00544579123459,30.8977284415669,-3.20615098387566,8.50594349165247,-1.28968902881756,-1.11263255787367,2.76797426192331,430.156389033831,103.213211539293,947.034792747844,-111.676204356673,1037.04382754727,-48.2060843300289,125.324753932722,-11.4552442897563,69.1301030442559,8.53776608912413,605.779724656618,-99.6740949586763,1126.16417238106,-69.0117518491247
964.076002461539,-135.710822451497,2.99839219519627,5.35866910239733,16.8554481324064,0.0331481269858812,238.12559489238,-19.0786218519601,0.0775827948266215,3.80671782661051,19.7679910257164,1.13120485558687,16.5538100678803,-3.06353459874526,4.90867332967452,2.52875205815892,414.108976712752,99.4060291685206,875.669520456529,-102.643464075285,973.127020971133,-38.3496012090753,126.211093574862,-12.5222372391037,65.1288509293751,7.06083397953641,602.110012204321,-98.5245447821777,1126.14925399386,-69.2071746865293
942.866195776842,-120.612698763251,5.75645009837902,3.58350191581027,25.6617434331595,-3.55817156436475,242.143140995968,-18.2167770610075,-0.945004070311693,2.90442597370804,28.7762093374897,-2.76837612250773,11.6890946580323,-1.10936975631543,4.70355547837693,2.75171125105797,415.720492471382,96.9155375354552,900.159315769774,-111.943842905568,978.374907887919,-38.9591433739486,122.278768025863,-13.417001283588,67.6390320916677,4.32087039935835,603.411302782656,-99.0356888732408,1125.94994331059,-70.1881929747935
971.622752302462,-128.409444732302,4.68833568902028,3.04035097535737,22.2808425685064,-1.96389024066581,255.719787609217,-21.0357692809481,2.95474868374753,0.229798411878284,28.5914167153879,-3.91410157781475,16.6487874131262,-3.8708078907363,6.18522771313703,-0.310754631360118,428.939533883608,101.449525150935,948.790139004854,-113.396048752323,1013.70749787233,-40.4974330663194,125.974639750585,-12.5629813995878,61.4162319784207,6.11689075986438,605.798636366213,-99.3828850943749,1129.25344062662,-71.8609464483366
964.654242783665,-131.103446931611,11.6055372763454,-1.13221905946865,17.8384658378324,-2.65941682142827,238.421821096121,-18.014568810251,0.728373119420849,0.534484212848402,26.4574212999361,-1.5305915829939,15.1140095315048,-3.73790832362079,3.74465452915444,0.760380464142717,419.307745614297,96.009248570093,861.542517828023,-95.3995023406151,949.949207000933,-27.8117008151241,120.776111305547,-7.99878387639608,57.402673298364,9.55641575394598,602.098245240452,-98.4804582788956,1129.32755675347,-70.6747221852063
949.921669386104,-126.516484686343,3.98315777374939,4.95280588088242,19.6467637284913,-0.817867797186599,241.486358536679,-19.4790555848421,1.37614568722269,1.44270174701241,31.2125232499891,-3.65015613716504,12.0573346423811,0.33438109301823,-0.102991957534557,3.50079120745559,414.153360581186,99.0476678657693,884.875598069557,-105.699518987306,985.647030328545,-43.469186246814,116.274858924479,-7.03908276508904,56.4240624751926,10.3180493081552,603.431183015541,-98.5806138762431,1127.82355848836,-70.1713225668841
966.812399635275,-127.753169833615,4.91198361716646,4.47148169063213,21.4927022252379,-4.36601053928484,250.183917025341,-19.4686954261137,1.62401825428903,0.303115393461299,23.7383504120335,3.37861482894176,10.7539675827868,0.416913218483517,5.89214214417188,1.50107022693129,432.243054516544,94.5413396248604,929.207821891165,-109.854702685717,999.056963506966,-38.7925678741802,122.260301282288,-8.38550771960416,56.8879597808601,6.44628788753114,607.171671969693,-99.70864428517,1133.52806063404,-71.8888468172438
984.179132173502,-128.652555201067,2.60848222611893,4.29920311035141,21.7718451828544,-4.26370113763026,246.953688374915,-19.8328863493017,0.883176260868143,3.66665775628372,30.6065419111268,-0.0941511709072701,26.0962751165616,-9.52925736432148,1.31520753806829,4.60472611663778,423.579859790941,98.9981678329841,863.110464683266,-96.9566233106917,981.686635095198,-42.6512536021283,127.44495660304,-16.713829592769,50.4901632616555,14.8545605090145,603.822851339007,-98.7777539954259,1134.66498080399,-71.4780064962779
954.364956540262,-133.180020231373,4.82914213436412,3.83372912682212,25.1999185778706,-3.66442437934007,239.598319955895,-17.8239913642382,1.07780835384732,1.08978546441393,21.8186242885895,1.37878134807234,12.6627448298149,-2.76116296675777,7.12134171847039,1.41461373307374,418.971379431397,97.6459129042018,876.569290295352,-101.52688050608,979.848505665373,-46.38957294471,126.36568248022,-12.0332975229813,58.1072424875707,8.29867682447022,603.270398650356,-98.8461266758536,1128.91511391127,-70.2689753537693
954.291336427466,-126.460765501154,7.28046791471415,4.31412137848159,14.9710503677178,-0.626411758007055,248.700654956027,-19.6434758536427,2.11865876585799,3.08458088352856,25.8358235355335,1.42915670052561,15.4757622767728,-2.50181797879418,0.591441165398681,3.20084183403321,424.641204156579,96.940038147746,919.617258200185,-107.087125139447,998.678683507118,-44.3188208518457,120.517787395565,-10.1685079607757,59.3247957718431,11.8288960067038,606.625449817674,-99.7368925182132,1132.33457620241,-72.8358652327836
989.665947016833,-133.690039652165,5.89560826542475,3.18419987731852,23.3132737112502,-3.45270405751996,250.952134165228,-20.2042438186433,5.60727392009125,-0.0421660765474433,22.6280362982579,1.40229546184135,17.6514249823361,-3.66969004796873,4.78290740402668,0.750090466105575,425.106451526521,98.6173002955345,876.579541634732,-102.052333887455,973.024836488023,-33.5202515441262,113.696982495988,-4.1690729660323,52.0571527460207,17.2600789041796,604.320373696513,-98.8899823858027,1133.47505702278,-71.8050616516414
957.300425366857,-131.473135073539,10.2967107875062,0.696406463031051,17.9493596530495,0.0421227199556615,241.542800760967,-18.4315333420516,5.37734483075991,0.296676183941861,27.5362441359378,-3.12232041768151,14.21857304194,-0.466630477644622,3.53448661518636,2.06535889642679,418.692747507902,99.029074271502,883.228753683062,-103.749858122839,977.023244307437,-36.5019850179314,118.201575711159,-7.36359416490869,61.3298945635286,5.16557903959098,603.395664568557,-98.9509992285855,1129.58264478765,-70.3078916240042
957.226738647304,-126.136099761649,6.4792948820496,0.541973611759023,19.4265688237625,-1.19878619275593,246.972792502479,-18.9278844929775,5.65648410358019,-0.662517062717432,29.2730154280091,-2.94190728457013,14.9311886920315,-3.88471401348383,1.03844672265037,2.58555840397291,413.550152483376,97.7096919365057,916.033250775752,-109.136509881084,993.826383914636,-39.049196057586,124.264070403027,-13.6215973817019,55.592772069417,12.583366345107,605.232067218901,-99.5456189664887,1128.56160644331,-70.5895086169199
968.86866649904,-123.276820379933,5.28894621528923,-1.1622996263301,20.4194173079929,-1.86025289754381,247.017626256144,-20.4599295256791,1.46075775458515,1.58658874766883,23.1925548263014,0.618256412235482,9.61100192444324,-0.469740064662655,5.47571260582545,1.47646916414213,420.862354664769,97.3618729547587,856.704992208163,-96.6037554976341,967.748354925229,-41.1286882173284,114.777548615244,-4.32732588582637,49.8444836549288,10.6265839719729,603.376045779106,-99.3631954992716,1129.73045300169,-70.0354223911045
944.273580773149,-124.243329665932,4.49956975330021,2.26701664098047,16.1732859879008,1.9806464664824,242.243747416379,-19.7756320190763,-1.21035109392019,3.64395649792265,26.9834023166764,2.09211492278378,12.3234236754734,-3.75697485562762,5.54383063040389,0.762312207758074,427.020393317807,93.9919172480825,879.392778430205,-102.8064365169,970.107756623523,-42.989052309672,120.849613930205,-10.7417364441546,53.3947029961108,12.8647152748949,602.784591661035,-98.7784606833674,1130.47897929994,-73.1591317556878
949.871725523926,-120.163928227543,11.2827018256542,-2.92568786138698,21.1926804115867,-4.10881296113396,249.502450735287,-19.9818869663049,5.35441476467899,0.392004268074361,33.1013004474886,-2.84975433975407,15.4956003344354,-2.63992370954344,6.32302413781945,-0.780601432967375,429.363458275797,89.08929454854,916.380794736581,-104.203763691509,998.33359293521,-37.1486174689682,124.906068331895,-14.3328561631431,61.0713474860416,9.07168895688356,605.0457612044,-99.678857326226,1127.27113639505,-72.0263192829725
992.298054449893,-138.959716628114,16.8165552896862,-6.02520821379036,14.1090882980605,2.19933894969169,253.891002658053,-19.7751721234715,-0.717512506638682,4.02286704605121,35.6412222074968,-5.3397971951,16.6433354971883,-4.25568748816892,0.92498082044859,2.25707078951425,435.997946953756,93.0258903879459,888.527394463239,-104.699023877799,999.732689856258,-45.3978306410299,125.26044733293,-11.5117808509323,55.3473664181938,12.2570530210437,602.791353128087,-98.8340293104883,1132.01494734701,-71.6129643749987
943.900148748863,-122.357753851739,3.16371137620423,1.03401181034064,19.4327635759294,-1.05182858685534,239.387356562828,-18.5053575976001,7.90879153657893,-0.471974798060032,26.9896780636446,-2.20766567118337,6.21208973233721,-0.761327775444441,-1.39011243983979,3.88336898997744,408.331798892224,100.282872200654,880.306880689363,-103.574239391466,951.911780741859,-29.1576704290175,122.142420349415,-12.1937159768138,52.1190399940603,17.7146664492128,601.482158077163,-98.1032716772004,1127.86292522445,-70.8212290361622
946.102108431728,-122.09957556323,-3.14221921823927,8.00119695080739,21.271881931943,-2.49248301807134,245.213546383735,-18.972258966798,1.58270779778368,0.714537725369591,25.9116637587526,-0.976452870955389,9.72887814961402,1.53146861310583,1.53116748896372,2.6150757927441,425.122256584091,94.6549680481169,905.701552123443,-109.618880970196,986.303233247618,-36.708462501585,111.096970089375,-5.89590222050239,51.7007372843315,12.8945776416924,603.65188017912,-98.8828592077442,1122.89123753979,-70.0483103225883
978.807647787723,-128.148220192294,2.55324892445258,6.12197031233918,17.7690148865328,0.945547859071123,258.223765767484,-20.1919093800384,2.52788228867206,-0.650618561032444,29.3393040278856,-1.88065830183662,11.4055555522211,2.2853670754519,4.27352017334331,-0.161232673008182,439.223630240618,91.6187607840199,922.415211035359,-102.004185024862,1011.66796379336,-36.8017273465535,124.176874025126,-9.23719730067164,55.5225960421803,8.00695987959876,603.866145636397,-99.0629028908765,1128.95045951582,-69.8673498006103
947.144699250062,-126.004219758358,0.0835525068569837,7.93237261745375,20.3149762217883,-3.23859969019482,239.948623891927,-18.7392099158083,0.484595664110508,2.00793820226979,19.6548176917171,5.58867041787042,8.20738393027063,-0.584671204757896,1.42221349336748,0.340640090403835,418.817267678747,96.5073920524252,880.912829724524,-101.372206809323,956.602767520358,-31.0417463988735,114.807805025223,-7.63021814858509,61.6653206246711,5.88927795755543,603.394696014164,-99.3218259498491,1126.40968742498,-68.9267013131865
949.748283858786,-123.592904798424,5.35601730773042,1.1551681322364,16.1247921401547,-0.102757673033073,245.847261937641,-19.2515763806213,4.49435440978452,0.516743918369641,37.710796528488,-8.17603026198501,12.2202813466537,-2.79055758666981,5.25354695550235,-1.20063637836712,418.17014499417,100.148862555444,899.142244407391,-102.387178744976,975.050055110046,-34.8573620714378,118.446095183197,-7.26161950865617,60.5909966946602,7.34143699591781,604.156208781317,-99.3450763563763,1128.9919665346,-73.0205808833256
980.674592201522,-134.654575100091,9.28722233507167,-0.449792808218158,22.3214483147872,-2.82438797937249,256.656279345028,-20.5053443770044,1.55147418564547,1.25108855755789,33.0542336579927,-2.40566751276827,15.5389152053616,0.530918153204572,1.61248313974514,3.55462374556849,441.733551815154,92.3791518776212,936.740724960155,-110.378109571372,1015.96324134945,-37.4367426977981,127.05812274587,-14.6479174107192,63.2752766018956,6.27213319455118,604.217997618468,-98.920847106066,1126.30123943769,-70.7364911035338
953.852026705885,-129.691899833525,4.8286592664594,2.94321954544385,16.7674581183598,-1.78580964455522,239.014897807074,-18.6369296464403,6.70613701332276,-0.471105321028379,20.09546024485,2.46514948237357,10.8533152233869,-2.02619783559949,3.56388800698635,2.78712488316508,410.31173268386,100.062733794059,878.05431222786,-98.9867353181663,975.622406107564,-44.7420051172178,119.513177057754,-10.4897243993198,54.8270031549681,12.4048900219927,602.329170175437,-98.6363380244779,1129.06990364312,-73.8095599284803
961.175643272547,-132.068323182489,-0.509678234944377,6.41003767420983,18.5631368780877,0.980794862641438,243.757984264997,-19.0814953977194,1.99461966507849,0.514376570417116,24.9242217860168,2.76630434732863,14.148539968201,-2.42949912768702,1.43670461817377,1.44698275253449,419.428295263291,95.3758510946111,903.977362686479,-102.909837072301,984.515240769741,-42.1030369678045,120.97361980406,-12.7563790454211,53.7767790028388,9.16728324325219,604.122329663733,-99.131486768977,1120.12269288344,-68.3596565583934
982.840567999117,-132.117280172614,11.9980322613535,0.661956003715804,18.1480800965612,0.197095468096792,256.832703829857,-20.959561521819,4.96581516009384,0.538983790158037,29.7487471006986,-3.65871840554453,4.80637454578909,4.77738934200609,-0.64621521687885,4.83925633834998,425.681543894774,102.562646552149,938.887604808197,-115.1513932038,1012.41791680599,-45.6791900223277,121.474354681659,-9.63070520626576,63.1191407569034,6.73803949970247,604.155436656312,-98.8145611774511,1124.50522457053,-73.2601086076255
935.511113764619,-118.273879521427,8.02963599609545,-0.0411065808916733,21.2403683040558,-0.930223518689371,238.387309905627,-18.6309187189496,9.62991945056235,-3.25186872619002,30.9782725009778,-4.07104806197547,6.83029925702917,1.89602664031684,1.07878725915226,1.8655177105612,415.896511285954,98.5009048016517,882.916538584565,-104.063479732404,973.866365983731,-38.8688087895159,121.94540829479,-12.2353681368048,57.3713813382213,10.1176319829734,602.762458431098,-98.8380812575897,1123.20068363404,-70.8647446134686
951.333222246462,-122.104719993023,10.3158997452325,0.802646782633231,16.5342528826005,1.24800105751807,244.322176384754,-19.0888862258299,1.61200089265028,2.1726845706867,27.7678771360758,-2.04923323888078,18.3182924070331,-4.78847814983775,4.23278724660943,-0.278744061934763,424.435285379995,92.4569766476564,886.721938419493,-97.692893773846,991.924044305,-46.2278978128185,119.680826391385,-7.60694386528504,61.9987164645043,7.53421142768674,603.194089360457,-98.5429105815596,1120.5496683454,-68.7158711710196
977.974107852873,-132.449445422876,8.97882025441631,-1.82882061103038,16.2306988154695,1.01267795613216,257.093271648377,-20.5001863196055,2.36849976042791,1.17642127949155,29.6994234275082,-2.14344876523995,4.2857225752487,3.34014844217224,0.514273426082722,2.74369663150641,426.692429938601,97.8408085796564,959.537549595027,-123.691299023898,1024.35622633492,-40.4662293439269,120.758201976599,-9.88449054768286,52.2901560279651,15.1498921430032,605.945615899723,-99.933801844063,1124.73711366393,-72.0653360648936
958.516639972534,-136.018109757446,3.65729028022585,3.89698380724581,17.9883012376646,-0.143813248810291,236.89872203568,-17.8526303955555,5.73237305555945,-0.24219908994137,30.5993100987099,-2.18192691131131,14.4321836933136,-3.15764835369212,3.57746887649986,0.176716829475619,425.593716902054,90.7777402199914,869.479673539484,-101.151313135674,962.494870610009,-40.7966547694048,114.033561619615,-6.44531170419891,61.5206264614322,7.06966983591558,602.412703383752,-98.27285189979,1121.2526214605,-68.4592044093631
935.557188169206,-115.081958000237,-0.168839158155624,9.58073112617945,11.9790987428711,3.99707819547658,242.217512114641,-18.9057460037186,0.00499261446245844,4.02403802131446,17.1070356252317,3.92909832235676,11.0542775354903,-0.45078064920533,10.7746353876641,-3.13129079047643,431.242587175665,90.1615256501666,885.383992462671,-99.9736538515699,976.953692655822,-34.7123051513408,121.95008862293,-6.66594037814384,59.5171921533081,9.58421371702334,604.142106182697,-99.2774405349862,1118.66053817177,-68.2764915139981
984.646836026451,-136.310919566045,8.20994803657423,-0.396885523765008,19.3718487865277,0.607820369158621,255.709681374439,-19.773125149729,1.28523255309785,0.352407949268622,23.3506783139499,-0.12317975582378,7.41284544048922,2.61266714451178,6.99495332115131,-0.493520281132509,433.64467064138,99.1281964200062,946.88251725344,-111.579357755832,998.516182241416,-38.5945627201826,118.173182102059,-5.98781555897954,56.5016498635957,12.4983666574812,605.600634865348,-98.5591292564432,1127.18119415876,-75.1176567051782
947.994123606117,-121.896427470779,-0.749004519700969,5.69003161672511,16.0101140312919,-0.293266759756007,236.907913383947,-18.4712156406316,-0.531037135657739,3.02289207496723,28.3995739984297,0.952670431298875,12.0027597823973,-0.384371809398536,3.68800596677364,1.53455307744675,409.367941915188,98.4103404316118,873.088821445642,-99.2586401964856,956.797380992018,-31.7161271173354,119.992327972603,-11.7753835855039,49.8445075051248,18.4303279916136,602.732000952203,-98.3420348452212,1128.07013857923,-70.1887577547449
954.513025549636,-131.349607175687,-1.12459451933226,7.04937790972076,19.8072884218073,-2.14801208515886,240.731301813035,-17.7407335829465,1.27330024974769,-0.095943586903967,33.9642320758785,-5.26367239250026,9.73846667150776,1.00476499368147,0.126007605244976,2.31372090267727,412.229417422437,98.7057494878813,894.931084886248,-107.174730459644,975.641596022186,-41.7873503393376,126.023993496152,-16.1442493551721,58.2850377908386,8.1504634680631,603.313582204272,-98.5576614481702,1130.761764813,-72.5524001410655
