975.61621543539,-125.931094284719,5.84276464191653,1.84695614053936,22.0232639846804,-0.195562138349083,248.035358197758,-21.4388886245653,1.94844609404671,0.811568591473796,27.867098982079,-0.400494239835074,14.7252363351578,-3.73066480749153,4.72169293857339,-0.488964714042787,429.60738527537,91.3224738424165,926.284214426901,-116.470248610892,983.790860380906,-40.5023677009056,118.929133769071,-9.08905673326618,66.1337301309098,4.91424451423599,627.466039310174,-103.281032389555,1066.19219038555,-71.7201445330009
1002.42975687157,-139.252911203414,11.3721412025641,-0.634368763441602,21.7726830212248,-2.57649244893441,259.40228406713,-21.5992459476767,5.08764571994724,-0.47291969775077,20.0871013696313,5.14507106739734,9.48341538094439,2.38368531532104,-1.11716423214246,3.09307805417447,437.288345568779,98.3973902332013,969.069511417955,-120.68081085934,1011.62518318202,-39.5986357849877,125.60507934358,-11.293246887481,51.1863899894646,16.9369169056503,628.328411009582,-103.109355431308,1062.64891303097,-71.2615713318932
974.85776831166,-132.653455674641,17.0196142313969,-4.10764724550235,17.0866087799115,-0.0794615177559124,242.134690552135,-19.6958806477884,2.52060240895902,2.39410644969265,27.6203286474623,-3.36961917683802,14.9979104147895,-3.47117272135217,0.409504152827286,1.48840941765625,425.677442122008,93.3310382841955,911.270177925308,-113.787633022482,977.473073379092,-50.8938877944461,118.537037947482,-10.7837260575067,50.9476561847238,8.75659718854848,625.888941224537,-102.677653391475,1064.79247998288,-71.8427388760297
979.383040973858,-131.72699585345,6.97345752448941,2.74663012460282,21.2295547235827,1.82027633930404,246.810950561095,-20.6360190842114,8.31278628350142,-0.522730014720338,28.3325006597183,1.67795509137523,9.69876956048356,0.00598890552545044,8.20998407937208,-2.09387616534613,424.66754291024,94.9242686748256,918.137238160958,-111.424938612536,987.011827411223,-51.313814437986,118.10663977793,-11.0298564152397,63.8163611537555,2.26163006764727,626.8207681433,-103.267834556788,1060.99841577635,-70.5393051236331
1002.23021122574,-134.204738359578,2.66054062848743,1.33115973894253,16.5269170923012,-0.826675329912163,258.75733098657,-21.6763117082293,1.73792308943003,2.69473616628475,29.3894621411347,-1.42994457374905,11.1775862374039,-0.848118692425973,0.12569239625142,5.47203416962804,438.888674357202,91.8100497746969,968.459566359947,-124.635011931622,1017.66369718824,-43.5406960718168,119.719616188645,-13.9771542824412,59.2988982112333,6.93149776095524,628.693916998951,-103.595209300914,1064.29946261748,-73.3177218463537
965.581123133213,-136.458332867854,3.95513350344476,0.946273179440913,12.4285306609673,2.16087572396342,238.901424174715,-18.9674795589184,0.0413596620942118,4.2958172239731,27.7143444623912,-3.42120274410421,8.77388273757267,0.794610234350966,6.33530193851774,-1.86390016389045,418.554047731432,95.3575465653636,892.630252501303,-111.879652812139,967.252948242642,-42.3098753941296,118.45536286066,-13.6741578257437,61.4781213926001,2.82176390653413,625.192259517693,-102.525852031584,1065.47114242679,-72.9710172546128
976.464149749255,-132.365936450129,3.53909208504107,2.83457313396326,20.8103672504522,-2.83591138674154,243.775246817475,-19.6121246997096,-0.406448103643034,1.75964584653611,24.4900347175737,3.76775343169611,9.18434105719344,0.38574743390857,0.529286075488029,3.19900359912274,418.088655260257,91.2565197668828,905.497975652925,-107.672367708771,986.833997677839,-51.8467072283486,113.32104281232,-8.06243695401018,54.5976781324524,6.90129710475436,625.698351368513,-102.574070108778,1058.52681675532,-68.5825657522833
991.463559306958,-137.331033582284,12.7569430956788,-3.08289364348187,22.6977780862093,-6.25318367456075,256.681450228971,-21.6504976888254,-0.87932003114432,3.47593501597779,29.3913958706624,-4.46160013281125,10.6532723048149,-2.60127537430359,6.95191175299996,0.659340652822419,432.980208002462,90.5731018560578,952.796078197221,-115.821313141221,1004.09071786232,-45.782696272932,114.298575709125,-4.13180353364518,54.7373938992253,10.7554894550177,628.496781769352,-103.0710148111,1059.86704998389,-68.5359729020113
973.81136330253,-132.230207605226,3.96000461254802,1.56814902624179,18.6419930961677,-3.56028502226725,235.912318623102,-18.4563696289587,3.94980812155702,0.481249476270655,23.4054423618578,-0.264200938207929,7.18024565897154,0.973536564098532,1.06658870611933,0.525706516087824,420.708100761402,87.0648244750894,882.647811577154,-104.92034410049,936.495528256066,-31.2257239043009,115.171478333373,-9.99957255905632,45.8415427214016,12.0482890336033,623.646971173257,-101.677635521817,1060.83522643246,-69.6270595635478
966.767451669184,-129.992839915213,4.98677733781017,1.45288048073368,19.4269152425512,-4.3098703816559,240.192956540376,-18.6878771423796,2.87139694056267,2.43626713890731,25.6345409299808,-1.5289168446061,13.0838631062194,-0.89565235613773,8.89327798745591,-1.05399337217819,413.305937834176,91.7949187603084,888.609895625778,-102.199681747042,958.983075452227,-41.492312373015,113.577116241671,-10.1628897789219,46.8987191308867,17.8329979526278,624.903067396765,-102.565164036669,1056.84905601692,-67.0843026600581
1000.30149808405,-145.197917503674,4.79530365032268,2.7054702965512,17.5116550099796,-2.44334189311774,252.091818768828,-20.3293811775156,0.685685614476769,2.57746913138123,28.8914248859212,-0.326774107559309,10.6436366601916,0.782948000200403,6.62059639682458,0.294770607371492,423.150456628845,93.7897806221644,952.006372391788,-125.519102780762,983.768318117561,-36.2020096756858,116.615864790459,-9.74217521684783,57.2950549649209,9.3757313730715,626.781331236098,-103.185285815787,1055.48453136931,-68.8805745260311
1008.32182482127,-141.447609893962,15.1950624791666,-1.75066035116144,16.577953909421,0.00411922235580058,246.907734190694,-20.159785746877,2.13531559459851,0.951694849032033,23.8131832778673,-0.635341822590157,12.0799474719436,-1.76264536943678,1.41562495467924,2.62646884717037,407.662225173248,102.19053221138,875.399399657334,-104.763178061907,947.594103471936,-33.5823026151343,125.002769121207,-12.452912028759,54.783555611405,10.2598329419803,623.564167918842,-102.195101857202,1059.36453196075,-68.5863029323317
973.241817496326,-130.272889497469,4.97312282644488,0.0332287202241511,16.4996456281115,1.9965748900415,243.675084483891,-20.2355564875885,2.82162292267184,3.95329522278223,25.1293080938284,0.60226846545092,9.84310574137032,0.277864605532015,-0.351063017029522,3.17236978022837,423.912288720122,86.6030905707318,874.732415236462,-98.6085552929273,952.452762764636,-35.2598455892675,110.986399662796,-10.1732793846585,54.2412489624519,9.1229723162503,624.521117643694,-102.345444429045,1053.27677200079,-66.1560356568418
992.437267311129,-138.445388759955,11.5577669969197,-3.75427915276427,18.9291911696667,1.02292570647431,247.065559710462,-20.0702677408955,2.06339730313967,1.482036587773,25.544823404994,0.950563805825231,14.6675810127396,-2.28826862973008,5.0533506520515,-0.601141681481742,432.572646943905,86.6677124242696,916.284799216862,-107.993983001763,975.017310130464,-37.0989053830952,113.006922663842,-9.86640783853066,49.8421024827213,11.703768353011,626.278464289758,-102.907298667631,1058.8288438786,-70.2435859821668
1018.63359929063,-143.327767092234,12.3850227226388,-0.414521209721505,22.5240243045968,-0.537018904511191,257.427898433833,-22.6504133602327,4.8559472458185,-0.761185293180869,23.5622437105772,1.03821037236989,10.7890809735423,1.50375172485844,8.49681185340146,1.30337377673107,428.959516076103,92.0315499084447,904.077129946807,-110.11271955008,983.370072646944,-50.264064534997,119.156864678095,-7.68312979408799,56.145895273934,9.35433983637797,624.700146570221,-102.803088945886,1066.1921339614,-71.7918312026553
982.454005587149,-136.57034763318,7.68833838195531,-1.48518836496632,14.8639213238446,0.412626304938628,242.763474849228,-19.9491533460862,2.71839266801552,0.95207561801757,24.0287372458067,2.06175304684386,8.2310477207096,-0.321106124071398,8.77653939987403,0.712932300197624,408.48268679165,99.3562791971198,893.948313124365,-107.996511085111,959.221631811754,-37.6836393642029,121.403969630293,-14.3551037133462,56.9625609416468,3.34673830583571,624.809830305469,-103.037809809115,1060.34875367611,-68.5719871964478
980.187312251121,-128.350668052976,3.71214149839915,1.15768434377324,13.6360799050964,2.25474879158968,246.896477682389,-19.596012745742,4.58622032449835,2.35964233499011,25.1398495425063,0.740030610780893,7.45499201408715,0.513016219691089,5.64804352301716,-0.284066169518866,420.960344798736,93.6616478484048,919.831550713619,-112.742165347322,975.934738139411,-45.0753322476405,112.001863725532,-3.65889889300831,61.8196126587305,3.23081176138091,625.979069398999,-102.637199550371,1054.79590483101,-67.7207713749973
1016.45214784744,-143.331916968065,5.57423432465293,-1.57485658230889,23.6994698232285,-3.92167445023602,259.837142215411,-22.6032476557659,0.285820881530588,0.883303428858695,31.4373167151914,-4.19231853479106,16.3368819250321,-5.20664084759337,6.30547396231491,1.58721560232011,423.442787843935,99.6722978196033,928.66663014891,-119.993584307005,990.132273100019,-40.2342048862547,114.399264863878,-10.3275303575549,47.8313770659105,11.999934494617,625.473340658876,-103.096676416977,1068.2214150278,-74.2811134959262
974.370607717802,-131.46069836669,4.64038718795153,-0.661443698062058,17.1908668872387,2.071508700231,239.64759854606,-18.7300964568807,3.70395086718191,-0.388906551719058,28.5769855376751,-3.78732176518338,13.2921529343522,2.14056346017886,3.45701493794666,0.867315364370477,426.086713432044,86.4093013386778,888.734618438182,-107.230029975613,956.82401559596,-32.7510198889439,118.03318849201,-14.1262849213438,54.7855441095993,6.95714907044414,625.878339169798,-102.81706531735,1066.83301138813,-72.7582256388545
999.853776952957,-141.951027872634,-2.90849330209349,7.30761598600817,9.78841865061985,2.58689205328907,245.036466118989,-19.5437665952683,4.36609661953095,1.66890873196597,26.8207928135912,1.76772945013685,14.949022759407,-2.45734836153151,4.37510420532604,1.91648842053318,428.179667417361,91.73471476957,921.889080387402,-113.024604241857,989.342868820388,-53.6140876911846,117.675059392603,-9.11339961887648,54.8162326276088,9.37617298462352,627.656579492755,-103.061335488013,1067.61090410198,-73.1402699599946
1017.99827793405,-141.429480049464,4.65484565892517,4.00326468532301,21.5662257178451,-1.83803471828138,257.330656328299,-21.1066235644622,0.803308852128299,2.02883547376456,25.1798111437475,0.954434540380685,15.3867180509245,-3.71493684818042,7.07729662490324,-1.27029132048489,439.34640779411,94.1849496087089,965.864529377883,-128.881150920756,1004.90564467239,-39.8541500718959,122.364271233607,-10.4153782162486,53.0766950643585,10.1614945009135,628.916053753053,-103.220512903295,1071.80921479362,-72.4942780619255
984.129844458526,-137.237736466843,6.46878223861631,2.62814363796493,22.8364412801334,-2.03106220694018,236.587246074259,-19.3752438267633,7.35933682250813,-2.55174942741879,33.7136007562366,-3.91630740903485,13.5829600028122,-4.5012832866132,4.63051660630501,-0.55536224386892,425.168219474472,92.2670500255493,885.141625773277,-107.149227290417,959.115765133145,-41.9158466157117,114.801886089102,-6.06959863087732,61.6207336281387,4.30981583578705,627.847389703535,-103.214915698406,1074.18814549203,-73.5076874376505
986.664754000258,-131.535216752839,5.54204652522806,6.11792126234699,19.3840027984086,-0.945619932443322,241.873047463055,-19.4745278260219,0.552480128571945,1.39676261346326,32.1266549555696,-5.10940959482541,11.6701763188853,0.873112981588674,-2.00533952609528,3.70875206586218,434.133084357637,88.3554397092812,906.393816085726,-112.549458309573,965.101751677815,-34.2713535971884,112.01162663455,-5.59754553921595,61.87090599231,5.00352232793354,628.563628352194,-103.083430372664,1079.03230464917,-75.6158820656522
1014.54468040207,-140.672988443342,7.20364146674589,2.75651347723906,14.4969571371873,-1.03475428000019,253.802283878367,-21.5750006191386,1.62121441308943,1.20630962460641,23.2021749144374,-0.148968118569065,13.8695491807457,-1.99223226815867,10.0049878106652,-1.00182975280231,434.775757643106,92.6205228796219,939.544669386422,-110.645942433324,993.882973388464,-40.694339172727,127.900150916392,-11.6844930223373,55.0975388418452,12.3136098884977,631.685389606051,-103.414645244135,1078.13531602717,-74.7388664498802
971.480172432231,-126.978790015812,6.33287939447248,2.09645443191916,22.9621331334716,-3.40451071824116,235.938828190244,-19.008206511113,0.653250269253159,0.889366102296931,21.4853059499584,2.0056019529367,15.7481749706431,-1.89504270746089,7.39056880305412,-0.301148632182795,419.348814804937,95.6958163525984,870.718934777846,-103.43282814815,948.425986468633,-49.1632464982253,125.804679686316,-13.4445743477607,63.7354454326638,5.61457268724269,629.247616170667,-103.703801607648,1083.5194297243,-76.3046536518962
978.557833743345,-128.681564059746,11.5129688244168,-2.84176195372277,17.4028901130282,1.38826000589563,240.803061263463,-19.5052578750122,3.77119976490533,1.31061531402701,31.3699435655963,-3.69312655034558,12.6347800469325,-1.02266179586326,10.0892094657164,-2.1782421816757,426.201013379854,93.9718347123965,890.549710711412,-106.649187640566,964.461169037152,-42.6432507263899,120.849635798016,-11.6621906880391,51.0296591675047,13.1388769710089,629.554838327113,-102.952458577641,1082.22911663581,-75.5260793611195
1001.37278955505,-143.248421251564,2.30814716270158,6.8580209853246,17.9121133341346,-0.278964986380296,252.1316463012,-21.6405621477963,3.81442143159191,0.84100901834796,38.4215766969497,-5.44371136600758,16.9979044507521,-5.2857508024171,6.35706330355947,0.27574620364085,432.492692594239,98.496189749224,929.258580938567,-103.99046819535,1000.73655346466,-48.827052843346,120.473100621649,-8.32820688905656,58.9346163449464,11.0752112338475,631.425657687986,-104.596272894543,1080.03745871293,-76.0234168683651
983.577326782058,-137.045754663146,1.86079187804705,1.86513993236777,20.3528597193065,-3.78892946336634,234.302921535747,-17.7885883825013,3.97063525767503,-0.449527706363892,21.6513949791454,3.60826351744969,5.92643130955859,4.77401720184875,0.652631965068639,4.16861479297298,417.965573085258,96.0056647625025,862.254292807985,-95.9576397486958,943.842470137548,-30.1501652296342,115.477124478029,-13.3122045173746,52.2472796202371,10.2239121812997,628.024457197774,-103.235105449411,1079.11700088142,-76.0534052478975
984.498939294564,-134.121549550314,0.983058628682267,8.99063023884447,19.4788405035473,-1.59240241671288,238.49984994777,-18.1826130820738,1.4142458205731,1.6510780072582,28.5989839715111,-2.46778164173683,8.99004921975031,0.739539927185844,0.0349233424940079,5.65041837860273,423.795447736848,95.749187119939,883.085859589489,-105.643567566132,949.944222368934,-35.1334199359151,115.988038015519,-6.032159846896,66.452298802839,4.12558043580357,628.233420902953,-103.03278429984,1076.9586576766,-74.3375424317801
1000.13571115037,-141.06528519471,11.8444193483695,-2.56912267321578,24.1323240783291,-5.04432741523862,251.145115824021,-20.6702604607318,1.69199042452832,2.53284085134317,32.3926074097161,-1.72016136374153,15.8581179902174,-3.94875025378986,0.293138568775534,3.22730633675411,435.297323880122,95.8798372395149,932.329256834202,-115.75635955521,996.434493722673,-42.1744903669594,124.487126820604,-12.3439600035037,55.9428289727861,5.97118137947649,630.362970041159,-103.905418557615,1076.90607919986,-75.0137611254944
1000.06483433186,-139.907651565913,15.0260990761272,-2.24448561506418,20.5963063062923,-0.402156710257218,239.287258661666,-19.5295485303138,3.92919279227581,-0.473454390530359,20.0204359803433,-1.43846172917056,12.0623676834351,1.24947542359978,0.583633661856301,1.90510768001043,423.063170371585,94.0528492465077,862.396417656774,-97.036330425984,959.074608005386,-52.0635366848865,123.410811880467,-13.8747586427054,75.2397542432161,-2.0321348082966,625.658733447175,-102.472379206994,1074.82929994811,-73.8688375928701
973.181015175535,-130.402690955132,17.8131483494577,-4.52460083080675,18.3744404241771,-4.97345471043716,239.402989861898,-19.0136606891128,3.82975690537048,-0.425788809226169,27.1964286718601,0.0688688857521627,10.9256577598661,-1.96375572901228,1.87701272026055,3.8839419713008,425.545689044061,94.3912049835486,877.10226404845,-97.997573458978,955.111444044771,-35.0764988197363,127.436546048782,-13.8768975137623,54.5445619831821,9.20767631220065,626.359290472681,-102.445066588972,1069.41684227254,-73.6831263980072
977.292670718796,-129.150794183029,5.93733739851545,-0.0568323931836928,13.1205361700378,4.42660049858076,248.668029696705,-20.9744041126041,4.33810571996204,1.17614537109071,23.2278329798422,2.45925165798602,16.2774521111375,-1.14360044256141,-1.92389086206723,4.64809645446894,430.002356684263,91.203910788496,917.878667668826,-107.423301830072,979.458626941827,-41.9235525133027,119.220408570799,-9.04674591430737,61.2911464556935,7.7122914559809,627.704115093534,-102.772040088624,1064.46035450952,-70.7239812874411
1013.56915628229,-145.878372631915,19.8563196172912,-5.58443162254419,15.4076982360095,0.593372990906718,257.948188316228,-21.8594724556675,11.3285378144221,-3.62529400751277,30.1743073272288,-0.597452069221878,11.7346690980499,-1.57596367322159,3.40666561448318,-0.676332685257344,450.092096255401,89.4032764599445,911.315763654371,-106.025640228932,1000.15857715276,-45.3690621394462,118.603219983906,-9.49732009953264,52.0193167824279,12.1885547415758,626.63838678498,-102.903546565237,1069.19695512404,-74.6526654141048
953.090455628925,-122.521610770144,6.37605635182955,-0.865070127610845,16.3238819909446,-1.6602511644504,238.269155904366,-19.9202008759234,7.3751701358619,-1.90291888365901,27.7926752073899,-2.0311185689067,9.59519910755466,3.24067415602927,0.456302477450554,1.08111609152342,414.874978879097,100.432695968786,884.438263511674,-106.947000758682,960.569709321711,-42.0726323450733,114.720864478631,-6.71237229419935,55.232680582414,9.04137818102424,625.554762655628,-102.539920782589,1060.25278770865,-70.572441074483
961.790376878837,-125.755220496484,10.0372746501201,-0.439862326180779,18.496589321348,-2.27186121817636,244.027131682969,-19.9648103219753,4.05892045086401,-0.793148338634809,31.9732711721217,-5.42579296947152,8.61438418986064,-1.16292289973743,-0.71286270740224,1.32436128605011,421.132833984028,96.11094792995,914.327316033619,-109.556338174937,967.758325052749,-36.9386032040237,110.354043788815,-4.42523860347265,66.0469132468679,4.73001908393353,627.096785131323,-102.882935663055,1056.32461370871,-68.9514361622609
987.724080069218,-135.603615004625,11.1835563298462,-1.68060929387619,12.0108976938244,3.82114438599551,253.116550586666,-20.0142840566855,2.5912009270229,3.16900539089987,29.3783919685894,-1.58768384865941,16.3579365701306,-2.4151692424622,8.68699470215165,-2.36517724221949,426.755083520196,98.5697003521215,953.860818623323,-117.052235513609,991.980370596794,-37.5647688349204,112.029203346968,-5.73740745913284,58.7491176776188,10.6141692266947,628.803714556993,-103.093531780054,1059.42641384105,-72.2032216456183
953.819346256688,-127.625576128017,17.8165744529953,-5.68563793298707,24.8559411100904,-5.45651586402595,235.49732236752,-19.1757985843286,-2.21869808406123,7.25866381928525,27.3338378286054,-0.0426402975070172,10.5338525365799,0.149450463750073,4.7643597138305,1.30995805942641,409.335788199595,98.2949746249594,880.064724666869,-101.168325428393,964.694325890776,-47.1740400357435,114.646425070944,-5.74658681546927,56.4314708953031,7.91266822268761,625.442528398995,-102.288257449213,1058.43183549726,-69.3974702313675
960.168268168623,-134.029579066159,7.72341317441714,0.153090569674168,20.3288887739576,-2.36306652950878,241.838852362594,-19.6508446597879,7.81382741295366,-0.16635564168373,21.7674306512201,2.40471629215197,4.35223399465255,3.20098180859134,9.37104105131033,-2.4669787839156,423.527848890646,94.3594681245151,906.464550619422,-111.645664821218,960.606067538465,-34.6228813760419,117.492943216743,-14.0638448010889,59.0113817150235,8.6079451661769,626.759846162176,-102.977625004291,1056.84828432648,-71.1779192844465
986.753709212254,-138.023207734347,9.1974671458573,-1.40314944601699,20.7962560299072,-3.29514895794799,253.830387921316,-22.1828643742115,6.72116803353288,-1.16425341116697,24.0510655387496,-0.14201131559926,10.0531930279649,-2.71269026934255,9.91777650530636,-3.19730639688857,429.64037513719,102.778819294552,949.039914679954,-114.151725183289,1004.40147119946,-51.3479242057732,119.181644799109,-11.8960181627998,58.7577284684492,5.04877538979092,630.020182209077,-103.780033703088,1054.54718714375,-68.5381282195692
955.738148727705,-130.821793847133,-1.97614791203771,9.18422988830066,21.6693246937072,-2.55264095374319,233.46207751091,-17.9478334894639,1.69071642037352,4.06951596069568,28.2763554540143,-3.88026557649969,18.4985410424781,-5.48082030173355,9.86025156625984,-1.97920544003878,421.577400008979,91.8036597700759,882.722061740808,-110.354477378471,955.588891677503,-39.4073720349361,111.442324283547,-8.01686991842098,45.4671532073142,13.0725398464837,626.840140114522,-103.399020348864,1052.10913614755,-67.8587422111703
959.854233185716,-129.008839769276,5.79553459684645,2.49784149324404,23.6020155463885,-4.31801946371817,241.06975674727,-19.8930052454559,0.829513927838614,1.65975103583882,23.9284349252174,2.06250564216176,13.7727743000681,-1.6028920468291,4.10299552109005,-0.335125385672425,422.356055539022,89.0368196261942,901.113901640792,-106.278517697519,966.226238635353,-39.1482688813389,125.014014179546,-13.6422924381392,58.0079435674354,6.50262972709239,626.319791350812,-102.056696463976,1052.47207395695,-70.1655527174664
992.469647880577,-137.89597815598,2.5041060012187,0.487125185096406,21.962168041149,-5.53038794595515,252.56976452563,-21.4756043719987,3.42491395368468,-0.523037862308443,24.8524284474187,3.16432485766709,2.66093771021861,4.07820071077232,5.16646628911564,0.97429932780759,429.829570642879,96.9831945717012,953.429183955384,-117.832350754804,1006.33209583482,-50.7985516411217,121.050374808378,-12.887779843069,48.6546786937857,12.9381601022296,629.821875824619,-103.39498053241,1052.42477391124,-68.2833637014033
1003.88755119876,-140.085143119417,6.61537823633148,-0.0836197931404584,12.1446950227516,4.20813235936526,241.814260617852,-19.2100696798118,2.26137709241188,2.97410785248976,34.8731609702953,-0.841215127022693,12.5214230326385,0.731722770932169,9.29707274504088,-1.85541626917177,424.774141267938,100.387540463517,876.997632212758,-103.413725060362,960.769441504151,-39.1689250821592,119.195043768093,-9.15990652456781,51.7212819283449,14.2539687982526,627.461058578539,-103.450686640195,1057.71405172731,-69.8921175552964
983.787640438643,-141.461302588057,9.21590319327364,-0.182807696346044,16.5447895763416,1.86784663969202,241.008749754432,-19.3350947908029,1.30680063603139,1.28729124151426,29.2047367993439,-5.12066346049382,10.0533913240028,4.29732610696446,8.06007430232484,-0.775232571030829,421.186521482819,93.4167674431235,896.662761487203,-106.035936639545,972.341885245223,-38.7860286438192,114.217058192192,-7.95924704904849,56.2251603602575,6.59344083241261,627.699440439893,-103.186299813449,1056.2481689295,-66.7231438297227
981.674642139479,-134.561024102392,2.0289814344464,3.88052658290148,25.4738865090522,-4.27730321604298,251.861391396457,-21.5240730071097,5.67727271642065,1.30580481065339,26.0408068275849,-2.61940885916062,13.6549638158088,0.0873677641882528,4.71800587109923,-0.228306697909175,443.179699902933,89.2853065024478,935.065192418781,-110.277378555198,1001.91390335941,-42.5099692182823,124.320393810329,-13.4350502474041,52.0614344158609,9.24926528970303,630.833410860134,-103.31703117283,1059.27935588093,-71.7537725723147
1015.3142644998,-139.282633885708,7.83599849357312,0.408224902996096,18.6403410994874,0.992139128102725,262.900956792442,-22.5580010693597,8.37754146183739,0.0709656032241212,25.7098173395756,1.18567586596902,12.8063435143274,-0.126912158228475,1.68892618659822,1.74502654938651,445.284670936884,98.0190158815477,954.373428827823,-117.417071702132,1033.5223581847,-44.1642537776899,121.121224328884,-10.5749480373693,56.2649320235203,11.2254726799513,630.464797005254,-103.939741445367,1070.94943876279,-75.3071550367906
986.810258231656,-139.65730402648,15.4662776133996,-4.86190799402067,25.0178711341781,-4.68692951894024,240.247284626066,-18.6167449117311,5.71846220806435,-0.205293166650924,32.3665858493251,-2.47040760074092,14.4310137111981,-1.18154150924682,9.33966063050545,-1.77729705761907,432.924805001129,92.8850753140522,918.613127359142,-115.502333156139,966.490397225108,-35.7836430811988,119.885664214424,-12.210213904996,52.6189584188429,14.5583746546301,629.994916647048,-103.762174280453,1070.58706247269,-71.9510231668709
977.442185940852,-129.048550444739,10.6409937818399,-2.40965037477663,16.0472009430716,-0.3422214521428,245.828298284559,-19.5147065809451,6.15313852713386,-1.49931030075104,29.6344089458483,-1.77430054800624,14.8341628550242,-1.64748887835715,4.20020898699114,0.963473482562404,436.690620675202,95.3543655673126,926.372787315373,-106.561521240963,1004.10184107832,-46.8103546568697,117.314163567247,-12.6635879115959,56.952949679732,6.53700042895956,630.980268906771,-103.815882875051,1070.25418346681,-74.0016655810968
1022.97103155775,-144.253619643172,1.90500963384823,5.55021137222682,15.5953491177602,0.829756987334749,259.280592731039,-21.2211647233472,5.47078899539987,0.426188433876476,33.6300506258727,-6.21605183452992,17.4110174177973,-3.40665392205964,5.80860305648919,-0.106249169725258,465.289460028681,89.7229028362332,987.807918917744,-132.158181728704,1039.73886968041,-54.0213685483186,124.09432774621,-12.8960380767122,55.6788264813186,13.1303105226007,635.112657649573,-105.104232224235,1066.99621165668,-71.9946278884705
974.08259443808,-132.313939249325,7.20164821935812,3.10029980019147,19.8611511650272,-0.23112055721254,241.424954601124,-19.4541160298843,2.80858086339941,-0.0834792228710931,31.1370269157931,-5.01807082130781,12.2905839991803,-0.712346648578666,0.609092030153098,2.27080694889548,424.449433923957,98.2930531550384,911.411829811418,-108.696190117548,983.127582884957,-41.4639319990254,112.5233291255,-5.28986452163053,63.4383603085206,7.04778797218327,631.59319922784,-104.17825080293,1077.92326351931,-74.9645109975174
983.611794619407,-135.111080738551,6.34500903859555,1.95986640332119,14.3478591396067,4.82055250946249,247.181016961721,-19.7444698691946,4.57396034432731,-0.773762598797629,22.0749820846247,4.01590890944319,21.4986890531689,-4.34745194841322,7.15849282697238,-2.01973665348864,434.897648070591,96.6345282788051,929.79533208044,-118.363483681982,1007.54308776591,-45.9170761432955,116.616110714803,-7.8420703271815,60.0055715514657,9.06556915882876,631.93064771526,-103.766685636924,1075.38575468993,-74.826631100489
1013.39713900416,-142.478103046493,9.50957843273757,0.581141542861485,19.3214747819684,-1.35974394705266,261.753710885064,-23.1646401465971,5.00347746106016,-1.1112133881887,29.9221036392667,-0.409043252274306,9.98614858292716,-0.235489640635666,5.07062833241534,2.6321848072625,444.710057527134,96.5060769348682,967.580546316424,-116.288796963998,1044.7095481343,-51.1501086609003,116.393891852303,-5.46420271830525,54.9223289578271,10.2915868291659,634.929658971964,-105.04278365484,1078.72822172688,-78.353883218818
980.601273458545,-132.535187988974,4.87202531241186,2.81258500249473,15.7274792396093,2.17854807316412,240.431234264441,-19.5960334848743,2.99217248364306,3.17762108286721,31.1673935852521,-5.39922250625099,9.94534793198089,0.530253218136774,0.724826361181156,3.66513679679374,436.696515031665,92.4903762719704,895.151047031827,-100.548868323389,991.219257844427,-50.2336402660192,127.492702000062,-13.6702142041184,57.5964038859852,12.3396883081844,631.590159405927,-104.207444915388,1071.46321837252,-72.6243279191099
976.109445553637,-130.741753479914,2.95804909247638,0.788747234635395,18.0391222596091,0.816623802450369,245.783848281812,-19.5328764127351,0.34124269436136,4.64224927434238,23.0093639365655,2.21730273975122,6.24986763977858,1.70515157706474,1.17502323199922,3.48052040580261,433.055907426215,96.5691835489122,926.180018580711,-115.917462698505,1001.08804849368,-41.2542265913543,122.712444675635,-10.2888438293556,54.6220963781989,6.66748882544841,631.588657550971,-103.950744564175,1075.86490899297,-73.779747145257
1014.39473831551,-141.900670922376,0.945042653435503,8.39320684739098,26.9716073115534,-4.41068936429881,259.084562997067,-22.6000818379045,2.23469798528921,0.273437346730065,33.2079222297161,-6.97662680085098,9.58648933476897,1.29265493854763,8.20874267242876,-1.36365533700528,450.229166735701,92.8126061576869,976.925395176509,-122.38996921146,1046.95001660437,-48.6701812187665,123.99104926599,-9.48306456976568,60.1857290664205,9.51861752106416,633.971841258892,-104.509648567231,1075.93400676876,-75.7299813763416
999.811875681359,-135.669000173695,5.30373275674322,3.39257210161194,18.5428532731176,-0.430477587742553,240.416352581461,-19.125304356024,0.0555093954695883,5.18730939867537,27.4368019035136,0.753663917725683,12.0844092076291,-0.0930306163444585,6.42054939175777,0.10462200281738,426.038214774367,101.668005282164,894.736266467657,-107.366737601226,1000.8417415345,-51.6603079803514,124.057406757332,-12.7928998312774,41.6767080669065,18.6390255900418,630.121301010891,-103.46593237499,1077.00266348769,-74.9179728902175
990.019824848353,-138.10439099123,6.95591864413553,-0.96189045816011,24.6588052100817,-1.72841507696286,244.315490605897,-18.6999242264086,2.14634662026117,0.471975567679001,34.3121889963741,-7.61679977224885,7.98190529972529,0.499555453775143,3.83602658707125,0.494581008478272,434.096573662495,94.1025643676139,906.757248803728,-112.069066428153,996.298261869169,-44.5859095193818,126.648552955996,-15.8781150954784,59.3803504235185,7.792268690214,630.318252109712,-103.611432641431,1069.64524118739,-72.7151408259178
1005.8714899302,-140.798098364942,16.5276827038704,-2.69696615864929,18.3719894379238,-3.71225360227612,256.187951901777,-22.0465005167733,6.71449054613216,-0.498476627300995,25.4987837413388,-1.25116641120469,11.5276459690833,0.187133894822393,4.93111860891799,-1.01763618721355,442.303697930277,91.4888619769291,947.051198693213,-113.083633461037,1026.24453215083,-45.0421933699504,118.983771426025,-8.01908294589546,60.8116453620978,5.49125974207745,631.719007074914,-104.078100804343,1066.99559282777,-73.473699231461
1015.13516797749,-139.32463956953,7.70363633632342,3.18389398937843,21.0954364598447,-1.85662256595257,247.522671623368,-19.5218940800365,0.132949703040055,7.64812141818701,21.4508364044973,6.24879443457915,17.1717944682217,-2.67649962818771,10.2010217876873,-1.90076683661342,442.679875208183,89.911030071353,890.588926633614,-105.67994622573,983.604925908279,-39.6519789998244,116.097107003776,-5.6177319159571,53.2133009205587,10.7830515445057,629.193320371888,-103.165169470747,1072.87394755427,-73.3363823195325
979.178184483695,-130.372999651545,-1.67774576584299,6.01884506488545,24.343312376321,-1.63017552948717,243.34610908634,-19.3453512538696,-2.00557253978281,5.07479630015116,33.0378748570369,-5.41848167700254,11.1504535427198,0.391000848555169,4.87047111406389,-0.0815199653775496,412.066433793957,103.334032165362,901.519344385295,-111.166604940701,989.252292290143,-43.1478351028525,117.634977344776,-7.67198404285703,56.8962674616661,9.19624222099996,628.999234407444,-103.069552290545,1070.75190350478,-73.5352333233786
990.252449516717,-135.749189380017,7.47060699725816,3.06438243826573,22.9178424923074,-5.2702805616304,249.619984247365,-19.566205053627,-0.219953965503502,4.62125349161941,19.2916721790151,3.80168179698201,15.36533763468,-0.172002666628412,0.764183821043284,2.88739449830089,432.047544697654,93.8960122307569,945.446269455423,-118.201172878004,1025.43291771623,-54.4506828995426,122.246341899091,-11.3188175200731,49.9739089979266,11.4135323589369,631.847721798232,-104.38356106831,1067.41247136435,-73.1735737294635
1007.37642851812,-138.904461747095,11.0544523051358,-2.09821158819724,11.7001543203154,1.94920747827929,258.185602757874,-22.1890589606164,4.28669270611976,-1.15975152500042,23.6170729092934,1.32139681030468,10.5557558312498,3.21499397886094,9.74434550630285,-1.75445726784335,431.167953089069,100.445582239355,894.758801077047,-101.200833935706,1001.38946762488,-42.027879794262,121.866657287169,-12.7944796129384,66.2516852652716,3.78791051215107,628.334208133752,-103.322969591043,1071.13856171317,-72.8766858405025
974.467167775683,-134.456032462012,8.99886480110353,-1.43590120763825,23.6174337571299,-4.25169154745573,244.413911536542,-20.0691206744522,2.30838525749548,0.647700550706696,26.9670437680111,2.07634035387628,19.0453865542681,-4.6086630306764,-0.651246285353159,6.54797322674325,426.951997164541,96.2206068405158,898.337330219034,-102.601412917509,992.926529144379,-45.901192381304,118.61596525157,-8.57912595994948,58.1900605008376,8.55551212132271,628.203738553731,-103.212907609783,1062.23177714857,-70.3142133902704
985.492934753131,-131.70174304267,5.19358321192502,3.51365274456548,21.1697877088823,-0.50338501132891,247.919930832229,-19.344368817652,4.06911254952004,-0.194204111717907,36.609571752105,-2.67327864851041,15.6728653869887,-3.86127815252344,0.959449218080708,1.33338968619025,429.581728291821,95.253543451373,920.424477599176,-104.918629178692,993.782743208888,-42.2573963857018,118.66001407199,-13.4195723865735,45.3093933647288,19.5211891889124,629.80263166687,-103.41407914728,1060.76180742595,-71.3250330943648
1018.06029288242,-140.589270726689,7.35624417914315,1.0468516265638,20.5760810307606,-3.52411877074467,257.766430196933,-20.5023286505956,1.90526128056452,0.913182538545908,23.0262936965249,3.48929701257321,8.28687200865218,4.31461805342058,8.11762233763666,-1.95235362657109,446.668305994519,94.6911206318949,921.295790928447,-115.305728111211,1004.6653490215,-39.8847454459756,118.246428970398,-8.61852905577986,69.8125504221668,3.55871479639806,629.27397838672,-103.514990577241,1065.35482330953,-71.1494263153891
966.209090864853,-127.823200393591,8.5084371274507,0.727311341245129,9.11300132392419,2.16913604065214,241.087281741708,-19.6757296943463,4.00631238038089,0.512500816581845,30.9035243277739,-1.43998616230028,14.0378725841855,-0.942778078978307,3.97705297173663,1.93480843050129,426.985391734493,92.64383943712,898.178387803373,-107.940284303206,982.135583868797,-41.1640350133218,122.381041532479,-12.5092963193134,63.8058754601826,2.73765061418366,628.14269351186,-102.794337772807,1062.95124509354,-71.0638968532316
986.275243724975,-140.30375151714,11.2689851034794,-1.93705441366733,20.4879940551149,-3.15576759661391,247.476392159754,-20.1299594536846,-0.437369542934528,4.44327044653297,20.4233687059783,6.29392107610656,7.98156404050973,1.99611861051475,-0.348473522409325,2.08553561216066,423.046690223186,95.0596030588389,922.895568078026,-112.918455616565,998.51446775002,-46.5832933893748,119.214811290223,-9.6760087366069,51.8573228797608,10.2168377862881,630.239621667188,-103.778234634842,1057.72560437899,-67.3347738933401
1005.8537290523,-137.138955964463,1.08875435445925,10.7985120273327,16.9052809034354,-0.941241787539441,258.862590293325,-21.2307846874761,-0.633386515225455,4.00206405288029,37.8298112422259,-10.0634097531436,20.9767724744801,-5.24002550552318,4.79340327898646,0.421350609029411,432.625975228096,96.5146992825899,934.691351008095,-112.726271277584,1020.37388067456,-42.9086413642572,117.52304825181,-9.88906199920349,64.3831214000377,6.46245009995102,629.811943972569,-103.293500517256,1064.85454399275,-70.8555235636812
967.215039841823,-127.581676982593,12.5829224903767,-2.46694341253974,16.2304381639937,3.87522503659881,239.104814975074,-18.3273480657852,1.07190745431663,4.08572163494774,25.3946965675825,0.091994301143925,14.6152006565611,0.0921170254940588,5.83483947108397,-1.34974428171306,417.992241090818,95.6547738235035,885.546563820657,-103.878960355538,973.702660078716,-46.2508105906695,119.372393548541,-8.95736451756142,59.1861350239047,7.24998533859267,628.695305311051,-102.72565373911,1055.7020469745,-65.8257216493653
976.738699745106,-134.534814660577,8.98557006833587,-0.857766656519716,16.9442771638272,-2.10230548552524,242.677880067049,-18.9989117451314,8.39804514249459,-1.55726222440227,24.4495371530112,2.16473010829737,11.2393570546242,0.687259140223163,4.99736077961069,1.64170731908104,411.825174911554,104.025538979216,912.506511238419,-107.742900999247,976.712013077635,-42.0670738279327,116.047792461123,-7.70638283032456,57.7984094810487,6.54844970126542,629.502030809406,-102.846395666303,1054.78591405914,-67.1980008214283
1002.97743687111,-136.048287682678,7.35048252828363,2.28825999196079,20.7738505515311,-0.970583565594476,256.725192997373,-21.596728815666,5.26632620144072,0.488546041322964,27.8882783612992,1.7897003158932,15.2382604827564,0.629284071697545,6.59103097998154,2.62400067913274,436.859086229359,95.674747104585,955.204230509114,-120.057236935216,1022.33298266784,-48.9723880091226,117.228418667907,-6.74118143753561,57.9000766535913,10.0196936886491,630.752188807547,-103.5597663501,1062.80456949064,-70.1027496655099
963.053792096033,-128.731485903134,18.8736363425673,-6.04289125573165,17.0687623214408,4.06187528164583,235.756433114467,-18.0129898567218,3.15912172859046,-0.253214261453241,19.8403557381007,5.70728948882884,11.385363073477,-0.600676255981504,12.3167555589274,-4.41964372136016,427.603272729948,89.875521042094,885.471291392455,-110.857514114255,977.219663817434,-49.7020427572688,120.887311720056,-12.6209483880668,59.7066827443558,6.3609777802921,628.436910887007,-102.658958198374,1059.87073297738,-68.2329053391977
978.191657868653,-134.066225871063,5.05780778483617,2.72793448028799,23.0743314517288,-5.44288649771798,241.379823516719,-18.1250927778213,6.12362687587209,0.286857385119262,32.4257006422135,-6.45210912873633,14.7123107329306,-1.92974611764093,1.84438070275719,0.381687140968517,423.833831774296,89.8977431292988,899.75749047997,-106.85834383233,977.868533729247,-40.9972564261897,115.043428655906,-6.57581491756704,52.2932984079762,10.8858849522063,630.338084547848,-103.758026843387,1056.12397541563,-67.3271164583861
999.287262208944,-136.674850470507,8.02248765324084,2.51322629712877,21.7528083264067,-2.30993262305754,254.740153017549,-19.8921863704367,1.40740999946162,2.89971956130014,27.8650815134939,-0.1878274798256,20.3791466156053,-5.20244448727963,2.62477921029067,0.260278593981273,438.308564748121,96.5011720231671,941.049109049561,-116.506371039023,1000.3300866292,-36.713499250965,116.964312290443,-7.40400337168616,53.6286599641457,11.2973166937328,631.605994702602,-103.839395490176,1066.08380219075,-75.0249858278844
970.136268709552,-130.609405648641,11.4598876279418,0.807499524865065,20.2982710847441,-2.34890869457291,237.782357531332,-18.6696564248835,2.87086762357159,1.65967522837025,29.1517018990444,-0.81663946900556,11.0413018600178,-2.24104626680891,1.92554076736758,0.610313423155093,424.757640012662,94.1061569412294,887.097278024121,-104.44046703121,969.03668484548,-50.0140386326976,119.926724006285,-11.6263050227372,59.4031453468911,5.45974036897927,629.054063743177,-103.621762664858,1063.13414410902,-70.66903340325
971.445677656179,-130.194270065455,12.6505812547284,-3.27641421524095,24.9680816904942,-7.62783139512101,242.154223090307,-18.4936611545714,4.73107336627862,1.02797255479364,22.3709687620768,-0.0746717805030326,13.6439532094725,0.767854187966818,5.15161308552049,-0.375692963618635,424.937913778804,93.1986668166355,903.027754240062,-106.599995729647,979.843037721998,-46.6650384520056,113.886164653604,-9.61362360875157,52.8834777159156,8.46694238156057,629.77704023834,-103.443161284536,1058.22144792361,-67.9297917085279
1011.49112180204,-141.630265342126,16.9800875639816,-3.45561696556709,17.1203366601039,0.4755367768537,257.74833233207,-22.4685899661222,1.50516324532369,1.63069291718814,28.8964553185482,-0.288323328590416,11.186413526238,-0.72775667912906,2.65394584906426,-0.920429078365151,433.580634507977,97.9263870057153,943.572476657477,-112.944979516643,991.944818534074,-32.3424677368942,113.915314212392,-7.00789061777047,58.2267929521611,7.43889266704784,630.437928667509,-102.942326066029,1062.5966443815,-73.523941014914
971.633143889556,-134.721375834746,-0.214973354015728,5.2496585709762,16.4225028732166,-1.97170666037146,237.240403021058,-18.4762304483536,3.8090771320448,2.25932307943072,26.3113852285839,-1.79509826304972,17.2676859302794,-5.95340098611028,6.14584229301771,-0.498801406506445,416.064238184911,98.0872685798834,876.777744778704,-103.876877111494,960.36096288846,-40.3839177383688,118.702256854518,-11.1266878239985,53.5500916497647,10.3502828729476,627.818666465464,-102.566440865014,1061.45861620782,-69.1435038238532
978.596896128028,-135.339699782519,-2.98418596168387,5.91459890806902,15.5960227829874,1.26106737664385,243.678637730125,-19.5216742879948,6.59808439161639,-1.17735790577836,21.4150977182114,3.94815437789468,8.99323567839352,1.17823137268099,4.0898092275264,2.2331487230616,430.642699216241,92.8128691384372,900.481133191974,-106.673289339455,967.186950236108,-40.2318162681707,118.655679421075,-10.3367563741092,57.8129030135778,7.69115686515705,628.629134417683,-103.363732297079,1053.26700598023,-66.1026684385738
1010.52045122306,-137.28057460928,5.25507682976833,3.76330987109047,25.3399719046668,-1.4922458425196,257.425867512607,-21.6423166356311,-0.787098952668095,3.44754838987866,33.1232578734319,-4.12786580139434,14.8707302513818,-2.54844318298726,0.627409735112393,3.05913131582468,422.027736567081,107.114185673948,954.9758876481,-118.768920727977,1020.43746524477,-53.083779067594,120.36137684614,-6.53710526756333,55.0026284484039,7.95714659501374,630.336268173213,-102.847501110381,1061.20011840443,-69.6251824479788
979.505486058005,-130.709270478288,2.42318650977494,2.50421121307508,18.3438624878028,0.094224269087289,238.237271451128,-20.0481835582305,2.76539641163814,0.645375724202277,27.8599242899364,-2.10466915343045,15.2724437127363,-1.05504007136087,-1.69680944758394,5.40300473532836,410.463640863076,98.3984776479135,871.762354547762,-98.7121038484284,956.551056067943,-39.107798070079,117.82630897615,-9.81362971624042,60.1745398124587,7.65340848068028,627.343188230518,-102.661341714966,1060.43551128937,-69.8934188226629
987.005842196708,-135.751292760129,2.99202653121273,3.6853458326705,16.8068793283533,-0.5108425223054,241.579897732138,-18.9238653774134,4.85581135804502,0.281050225179152,26.6354644975631,0.366713827946894,12.2198731449398,1.52122027464767,1.05612649429331,1.80169263214317,419.252332812121,98.3664329089772,897.421931895143,-107.271560951631,965.736091152485,-37.2842042128338,123.316987976879,-12.1129090200088,53.3940013390246,5.72347264583806,628.016398827711,-102.851573586269,1054.94575537072,-70.6163778436175
1013.31508413743,-143.894242174905,14.8200374251048,-1.04980287872654,17.8174803173729,1.47464744143198,253.834117185056,-20.9738131542352,1.78060931295852,4.58252414858367,38.5743574719514,-5.70193750985227,9.34225335633306,-0.865487822663267,2.6614441928182,2.8535110611114,438.823673037408,93.4040434509193,958.994676323287,-127.217728459071,1024.70524740347,-49.9991029163305,111.664640749225,-3.81761279075805,62.0449198499506,3.49976951059113,629.975122547977,-103.597883330946,1058.49025690978,-71.072555516203
997.178221039811,-131.760269027948,3.69191325580764,2.38020673458156,11.0806866567433,1.54652584057142,240.315632536261,-19.5098891156886,1.74250423865432,2.9372488759565,25.1606113040189,-0.0396684012232777,15.6081438102952,-3.07456396865123,6.20254149247866,-1.27751342490183,419.292738551503,97.3991525072641,877.8920778906,-103.546343050548,954.947861906542,-34.5252025220239,119.570605008232,-7.16477247705652,63.5285044693713,5.85023532721659,627.378736469126,-103.526668346641,1062.30085297333,-72.6038016977552
987.651884858431,-137.901862418475,-3.75951841952889,12.0802402751561,23.4072125489532,-2.13018663211839,242.013613141399,-19.2723988971014,2.6006655356511,0.0893602662323477,22.4385523817943,2.40683531834393,11.4853481879681,-0.557463814988499,8.64869299404864,0.363378098070733,415.696313623522,103.850919974831,892.838973243882,-104.643906761047,967.60407479945,-38.3103852447106,115.170713659891,-5.87954718923736,62.6553204126416,5.05665891504992,627.44234020035,-103.315784826624,1060.09236620532,-70.7066077228166
1002.4466371623,-134.526379158256,3.49264675809499,5.84091276913717,15.7806058387372,-1.68383977930721,252.083907709204,-20.7289951801564,9.50443172677988,-2.91309342255113,27.0967528141791,-1.49583942516259,5.25707596295665,5.55354367282407,5.82100294184473,0.24270992453288,427.980016643711,95.3643517802425,934.726972987814,-111.744645006273,1023.79527346379,-44.1702735247378,124.198724455215,-12.0190799046413,61.7329999990725,5.29561540167947,630.043738245697,-103.480672977207,1059.22192283931,-71.2760611683765
1014.40761107227,-127.571678250187,3.94452443506941,4.8213529177558,18.5462820159034,2.98566152335778,250.101910677503,-19.6536519258458,1.48354614150984,2.55632942991082,31.9111558886035,-3.7328567413549,9.2868158724511,1.39848202715669,3.43736745454579,0.0638649061997442,439.734092468232,94.3544345019102,890.464344125976,-108.125812497083,978.887736501114,-38.8409275672587,119.545349977855,-7.71285776876742,54.5116199592621,9.27021680093014,628.041587220164,-103.297941889227,1062.31451650204,-69.9213509006141
980.550007492341,-124.847527155143,6.90787878906701,0.827839260211983,28.4942355633041,-6.6922502835623,245.068421919118,-19.2919381530423,4.80023826121326,0.116061041977123,24.3524789757858,0.810934497168215,17.971067496663,-1.09260868888612,6.21504375639773,1.07211231919032,419.450748940324,97.5547511616283,907.701675669306,-112.828500249423,984.153111656875,-40.2062768328282,117.359454557655,-7.35529572848844,54.5805012602793,10.2458182894835,629.550235885035,-103.323272546173,1060.55398889509,-69.2865684486969
1000.8663540859,-131.920372751064,10.1028285791635,2.68144472481799,15.6665978664226,0.124134718547194,250.549687787213,-19.8438755237759,6.10260803536478,1.61280697231925,24.421279490819,2.33803313990403,15.051629971575,0.16202115741931,2.42209060739939,1.49048584963802,438.966462788856,92.4059359325243,947.720671207201,-120.30125503725,1017.8761272105,-55.067959517598,126.250027331392,-14.7020965893718,61.8488702148296,7.89388964875346,630.844598383438,-103.832414147374,1059.47068434488,-72.1818575277363
1023.53119434553,-139.980771502134,4.51639064441776,7.52288156496933,17.0454042413888,-1.74409520150561,249.28581929459,-20.1719172840738,0.843060745560781,2.63436802387639,27.5506640461014,0.87957033493842,8.81000045822775,0.48398827619104,0.388058870296642,2.59586321717522,432.431631872082,97.5030292622113,878.494268827339,-108.219633821496,993.105847071811,-53.5100630994908,118.086150401399,-4.69991543251204,51.1190528696807,10.5067744633482,627.842172865966,-103.613364524708,1057.57989460366,-69.0846030782867
1001.80936595977,-141.012428183798,8.1801918604745,2.4062695199958,19.8503190204532,-0.908667331267484,243.826293142863,-18.6556992026243,1.49387568641777,0.618982411236121,26.834930594585,1.24722191375586,12.6069347513851,-2.49706508279508,3.89678409510904,0.157393621179772,435.166239222272,88.4684718290316,888.315869071772,-103.848776892887,976.951678513475,-39.8115049237076,125.281388638667,-13.7817117109003,58.47678181529,6.85320064455607,629.308716254571,-103.246614011839,1056.38521184538,-67.6786207822872
1002.72157475061,-136.140287867534,4.06559842552671,4.97538177036325,17.6978800637916,0.596060536132235,250.86395247348,-20.3833728359935,0.851365088173699,2.15453137563039,31.9553999410763,-5.62480354534898,10.3736066702694,-2.83862555029617,2.55240713994268,1.38148817816522,438.281640069072,89.6626872999984,937.1261258868,-114.512934026948,999.496430846577,-38.0848803711528,121.187245520872,-6.37784144581767,49.581334246407,12.5749485355793,632.31459941698,-104.303240633829,1051.48183524112,-65.8063800300271
1022.4433544799,-138.003580940988,-2.37728458482402,3.67094938670776,15.5747688954518,1.23228260493923,258.836274754664,-21.630074560997,-2.15439177829347,5.49732962113312,22.773368697264,1.67302794390337,13.4686791478327,-3.67495629094461,7.99719962252508,0.061668221253874,439.075522116139,97.5088325845731,906.455287598535,-107.296243911685,1005.77568890414,-47.503364129184,116.031251713859,-6.68818855326058,61.9425381458383,6.41972979023762,630.208069618251,-104.006820812212,1064.3685433362,-71.634187297893
982.16525287409,-131.381910127304,6.79965284435136,0.336653016189438,19.3162457713279,-4.20478573856282,241.279479089277,-18.8058372648239,6.83437582477251,-0.961162316794709,33.8637924793376,-1.76088703310315,12.061778200324,-2.2735662953451,6.27564131067684,0.622592309016134,423.499085078169,101.013338436733,892.015534738742,-109.513759284376,976.116796279641,-42.3609666008301,116.17900333502,-5.77372244009976,56.8187043675629,6.59754652831964,630.411938289997,-104.061923809118,1063.20043316951,-72.398316025191
995.83880860671,-137.291191183375,8.26559996514621,2.24059766605377,15.6507361878054,-0.363637242302095,247.532419733954,-20.7632038444371,3.26172911522177,0.574463994306074,24.1603030771834,2.91363963338554,9.43100738399244,0.80194098311935,0.0268141329229054,3.63454752120171,433.334216755715,92.3386032392038,919.863433469124,-116.176867944763,994.513946012739,-49.8353304333842,106.891273264232,-1.17565438976389,57.3342954888961,9.07902165726674,632.504928289913,-104.263548846183,1059.5287212643,-71.0572065441158
1021.23360719335,-141.06483565699,-1.43515005108587,8.16125995284641,16.5494265104787,-0.650805678230618,258.925168918993,-22.8868621322877,-2.05465635568492,5.37232349026939,27.9334985470037,0.726948494384264,11.4272109992931,-1.11992127095563,8.65941048079091,-2.45510337079972,443.1317773698,93.668274963312,927.624004454906,-108.100278620352,1028.82846278852,-51.1766527961601,123.84555908228,-10.2884007655907,62.4947454176343,4.46248790544243,631.182238136944,-103.311557451706,1065.86484403946,-72.9102402909031
980.451803841328,-141.14620131309,8.35111079378571,0.284389682496098,19.7428877475173,-0.715641717349583,237.545217115628,-18.297009708449,3.91657209169341,1.62871422681559,19.4197907176054,6.25500249072984,9.21567815127763,2.40020863104765,10.5031172436082,-0.610594526483983,419.336310343932,98.8628368698586,885.094814865152,-108.602690970225,959.245708743943,-35.9958865098066,119.619632373908,-9.16481022183597,66.7827473240017,3.00851619780542,630.514173154871,-103.856617898329,1062.13812994982,-68.6337785504195
