2280.69557684366,-246.927282954362,796.243424944385,2.35591492704889,514.053156581479,-78.2364668598231,18.7884641706328,-5.95712996762716,172.409355764343,7.5457707533556,1933.91038459635,21.7433130030433,1245.28706737672,-75.4978286963411,323.132159226855,0.216555193447462,622.127876325199,-11.5456475145739,1655.34867104955,-148.285550804462,1476.04957839244,122.711377132253,1057.277476765,-18.1866393715143,943.832961498483,42.9271651866892,319.54783977689,-53.6371292254205,1954.39389460805,-245.218892810585
2288.86710910504,-247.18836251468,806.357121323273,-1.357055305616,513.502193112556,-81.0247881572449,15.4236314957405,-3.90854263512575,174.346704537749,7.27943872136372,1951.03780779784,21.5369663332599,1251.19961156229,-74.0428584040227,324.642830011757,-0.133859635092934,623.307030029099,-12.3725124448504,1666.07839160723,-149.133857679215,1483.60610603595,121.678827061338,1061.33767939865,-18.9107570007556,945.092176443764,43.4498776013197,319.436409863016,-53.3930777174429,1959.27172840483,-246.321505410428
2301.58494331589,-253.757874032212,799.941525139517,-0.112968041614725,509.931620728754,-73.4391603042427,15.1169310167306,-5.07079504085268,172.115533643087,7.66577128243674,1948.24416414703,18.2812528853966,1250.42021860856,-77.6583789073474,324.649779659515,-0.323658255420322,621.285933164833,-10.2971799700447,1668.07323928176,-151.997305730426,1479.8201002132,122.453598501193,1057.54149255081,-19.833648824413,943.501447902702,42.8266071320956,319.487876322157,-53.5323216805142,1951.71146283633,-245.275719006913
2282.78750255293,-241.906839322079,795.192909727418,3.05318150165072,506.514807585811,-73.0325052573597,17.8710930168569,-5.52041002253722,171.625772538878,7.81946784648811,1934.26318292404,24.00629592673,1245.24159307036,-73.8667835980691,323.273940061301,-0.35600687997838,618.335518551342,-11.7427470969993,1663.49066345071,-150.045383753315,1477.48639686097,123.191460811554,1054.29319489263,-20.4178460001604,937.455291544718,43.5002491880413,318.518605051365,-53.3464764377491,1947.13094217072,-242.67290158462
2300.9715560541,-255.833279775626,802.667036221467,2.55526730903174,508.698350939419,-70.9208027372496,12.984660382979,-3.18479096039863,173.801670284157,7.55771119927446,1951.16329949227,22.7906092534326,1248.73261298315,-74.7037929573366,324.384862344962,-0.168780711059076,619.863601092725,-11.1664848620859,1670.42294592108,-150.491771856567,1484.19344696891,122.82567876696,1054.13463722745,-18.5283152740566,945.360797072742,41.4306918225701,319.675244197498,-53.5904694697879,1948.94109992358,-242.659771348178
2307.81608196897,-253.577384050369,803.574763306,0.0886966266116238,516.188879406782,-79.435435735664,18.8354044343169,-5.85638418024683,172.295018245569,7.30150562128855,1941.83056024497,25.0170551710745,1245.15269920536,-73.9141932545979,323.384491027804,0.200208871328577,620.578590809022,-12.4517904507877,1671.83573432051,-152.77828413774,1480.56097828639,123.560267921247,1053.46871155143,-19.8813897262223,939.867387776805,41.1636231013275,319.983088873859,-53.4138012169115,1943.12076427567,-241.409064351192
2304.61981473191,-259.90780560073,796.332409622271,1.17630453572967,504.120134395439,-74.3497354968278,11.3237852071574,-1.02876423210286,171.362328940754,7.71758953529972,1928.50277430838,25.0537054940286,1238.65916485281,-72.9877860480331,322.535408652585,-0.162412114080169,615.875615680324,-10.8830298844581,1659.86292986981,-147.883579679185,1473.93749637166,126.15318161334,1043.74478939102,-17.6557233735307,931.492854001465,45.8666630955286,319.547659478152,-53.6526667178252,1939.37865365038,-241.616865681385
2299.77834247627,-253.44952102486,803.455167878148,1.4576323932374,503.506770267474,-74.6512109137456,10.346184072448,-1.15949901865197,173.971548071666,7.23715027540002,1946.8690782515,22.7450314823257,1247.32289319415,-76.5153873828159,323.337896786892,0.128049396676863,615.618884635496,-9.32647632866264,1673.35118020744,-151.896759630477,1481.781248756,125.123825428178,1049.52796276659,-20.116701579163,938.257981074625,41.3375133711772,320.999937742352,-53.8869116864451,1943.92254483619,-241.529635298251
2315.96293269996,-259.959923282342,819.543283933918,-3.37839657471687,505.003496444941,-67.7545084705093,12.6265668202883,-2.82383919035438,176.176013184212,6.99070846848033,1966.53720196099,19.2690130733923,1253.47326405545,-76.6013882885192,325.428086727496,-0.16110895675875,623.68070884449,-11.9157572150873,1686.36138562641,-153.948226609353,1490.0806363221,123.900850227811,1056.29905857388,-20.3871098314885,942.00281270389,42.9500073119698,323.141355094893,-54.2916544522267,1951.39653074844,-243.77264720827
2305.70890488292,-259.963543243981,798.634437680263,1.09073884212299,504.266815022954,-69.1252658954075,12.9095455162587,0.456206818686259,170.547872573436,7.55990942345828,1918.22106736026,26.3858943501474,1241.23297377351,-75.5634438901763,320.981350378893,0.0560197952263449,609.35372029918,-8.06838775097723,1662.84345997151,-148.41761924779,1472.31092573529,127.245739317164,1036.462883132,-15.0033289148866,928.776325035647,42.4120639437592,321.13114741625,-53.8086226687533,1938.40190313019,-241.914765866615
2298.81556500105,-255.194662698441,801.801864987696,-0.0257936040267467,506.33225485362,-72.8757492140181,18.7368244195605,-4.37023591644057,171.438199183296,7.62636101901709,1920.9191359512,28.1846621567883,1237.34665269536,-75.6750956816962,320.811808083685,0.490532427885191,609.281437145037,-7.85688494804463,1665.96406035507,-147.490055802268,1474.44296065782,127.59017731386,1035.50297832385,-16.9571580460816,923.719754547136,46.0689109900939,321.747547967025,-53.7424033336685,1940.94510316458,-242.261466270369
2280.81308679566,-237.563775369238,811.786999325454,-1.120079160169,512.372493021525,-73.4194276147981,14.0398371487406,-4.46610522824972,173.456113836987,7.63538499384811,1939.33583511358,29.8790785602987,1246.28786873736,-77.2790869025392,322.412532827031,0.453637856474539,614.922090873743,-11.2598090333654,1675.29727834033,-150.521126048815,1481.43320415159,127.589518707707,1039.31660348656,-15.468458588422,931.189268450441,43.8068762440311,323.373312260835,-54.2449265783462,1949.13551632192,-243.812180010009
2315.77817574098,-257.658316501134,821.068691152189,-0.599223372042975,500.460653766165,-69.5842016333298,13.7448699471688,-2.50720288381593,175.538242642269,7.25542468544414,1957.05440117248,29.938559674682,1247.46903688664,-72.7267201396963,324.177120008318,0.258122891245543,616.774223657872,-9.83732905062026,1677.56793816966,-150.158852846157,1488.06683994565,125.63797844055,1045.83649535399,-17.7972352737398,927.705023441624,47.6974230360992,325.375820642784,-54.864876973196,1953.05042009896,-243.924319641958
2291.15634956167,-249.286309243906,799.248990886996,1.65079473623099,502.559786411037,-72.336329807943,12.202104476387,-1.78673739943997,169.586588252794,7.88246577691787,1910.05795975426,32.8286142108767,1228.89692147164,-71.5049062287226,318.528738130016,0.953889032716222,606.858678196876,-8.18924964150519,1664.33381079362,-148.343904458558,1470.89401908043,129.022152484576,1029.83319093989,-14.4941315818689,915.297937262045,49.1549836023162,323.160563980454,-54.0219839511574,1942.47454398274,-242.884914833094
2287.47248762061,-245.301275320777,804.271042746232,0.830663852109301,502.823517911145,-73.6050003004395,17.8725017812176,-5.31508448776504,171.319167489056,7.84731208361798,1917.54178458869,33.6600250734397,1233.01575643282,-73.7581186692174,319.203757168046,1.04489416709276,607.410220814261,-9.03257075258508,1661.521917782,-144.352622649105,1473.82351479715,130.380348917243,1023.63030913402,-12.5167375825352,920.834486908483,44.5903764808675,324.291333676072,-54.3681521777287,1947.73123619731,-242.754865574193
2307.50178091142,-254.32753396965,811.483609039696,1.62954594724293,506.473179210032,-72.3006836928665,18.4236651375996,-4.39594859204309,173.511451869097,7.97629291165361,1941.56467534053,33.3996097752029,1240.72736014551,-74.6048617371333,321.638798657958,0.804589109437178,613.112543721333,-9.55552700322059,1676.68350465833,-146.492661479445,1482.21473193111,129.145000465031,1036.21307936946,-17.7836040326909,923.636626522106,47.3244391428056,326.029567729028,-55.0727620461376,1958.07630982324,-245.535006850102
2301.28981040576,-243.274642825867,824.027497890574,-0.850415149692611,516.781622980513,-79.2893107230254,14.1843873061598,-4.24947857679628,176.337931895571,7.04803315267078,1960.89953241811,29.190260991873,1249.59731120932,-74.9134444185483,324.414173387343,0.290385703288412,618.875485406068,-10.4460531589771,1680.73537762499,-146.10654113136,1485.75485785839,128.955579807051,1041.4186064389,-14.6787398174721,928.070067689418,46.0807785358349,327.065590957395,-54.8533481930231,1962.7834229295,-246.335258161212
2296.83944242004,-244.924880525774,799.079698004125,3.76493153034051,505.61444402356,-72.7476067160462,9.89545964125769,-0.820023582270237,170.785163168268,8.08570829382252,1918.87302378069,34.3241442594979,1230.94480308354,-69.7027282245473,319.138589408524,1.1082455450346,611.382066661853,-10.3462776209014,1667.54224660565,-144.719969469716,1475.79317726482,130.051689141074,1027.64481255452,-12.4420491550984,917.081948181059,47.561115744655,326.76491060998,-54.810160290737,1957.01151195734,-245.346230946234
2295.11763451277,-246.821573127553,810.659143021054,0.187859379031008,502.235042497519,-72.9126686947715,13.1312475550811,-2.98196096328285,173.160343467636,7.54573996859678,1931.99783217727,32.6728254834336,1241.89413693621,-74.5786635092674,320.365270962716,1.35187689587961,610.365301326298,-8.64947771381046,1668.69194790897,-143.476267406119,1479.93842819996,130.15159304675,1029.52006701206,-13.3535002682907,920.320223263771,47.7668034057528,327.5803588957,-55.2100280916824,1964.12953351311,-246.499104773755
2321.56765407179,-259.450707794068,818.432041241904,0.173263539448036,508.009678907134,-74.9250820208091,9.70013605549926,-0.892201321755293,175.046921443446,7.7265883051095,1951.24374802339,32.2884921590228,1248.79581484754,-77.6257367958777,322.49252538736,0.795941863092044,616.710598120804,-9.30516034911623,1687.04549393074,-150.202563719345,1489.84472478142,128.1497803188,1038.75734157288,-14.4323413717911,927.050707027732,44.980810714684,329.057638671961,-55.5871260463428,1974.61432394697,-248.330826752497
2330.2544566163,-259.579909868104,833.504999703957,-5.86293874007659,516.776582506315,-76.7542483814381,10.8618981582049,-0.951199449541176,176.597438130738,7.68004001814539,1969.22665682057,28.6506061050109,1257.28194035359,-75.7379754481174,324.575794656361,0.710438349924486,619.265473894189,-8.89389629923763,1691.7040644439,-150.159889685863,1493.56348460865,127.941062477691,1044.4921873444,-16.1458574662509,927.66714354346,47.1854805959638,330.406376633278,-55.9103785478241,1980.87146899458,-249.07311183741
2316.92416151018,-257.368291510751,809.486502189019,0.987551057579216,515.540176004666,-73.3797847604377,12.3782623714294,-0.924907788677049,173.335490813146,7.36676007453911,1940.77315333403,29.9424346853474,1249.083915053,-76.7161101130416,320.948642342276,0.883649949800006,615.546540097797,-8.8620114868064,1682.0448313106,-149.097288733775,1484.83730461148,129.070025818827,1041.94237782433,-15.8470787599584,922.196909586733,49.0761028064106,329.863007820914,-55.8336867319719,1981.53664983593,-251.477741752643
2305.97319845503,-246.290223066442,819.33413113345,-2.83296960140598,515.000447391326,-75.8856151004646,17.6147490796934,-6.24998746920241,174.818878109148,7.69375058769587,1953.86877545986,28.7705785647085,1249.92568715615,-75.1177381280352,322.541524545175,0.733652559329186,618.143466783929,-9.63889703239348,1687.36221149433,-149.856769707004,1488.94636440977,129.084928182264,1046.28193717772,-16.6395867287515,926.128601442661,48.1696530645986,330.441162917961,-55.6958972023577,1987.82202920851,-250.937703829832
2322.34702235548,-253.597000943495,825.652672282239,-1.81377840163837,520.671307947795,-78.4363063236768,10.0543033412448,-0.936494121879357,178.348621023888,6.95107578517823,1978.30470946961,24.024184818109,1260.97348754845,-75.8356931083706,324.49675554619,0.830370575321979,623.273900475325,-10.0355094197877,1701.09024025465,-153.596334556595,1498.79637572811,127.301900626175,1056.60543186804,-18.0428865310217,939.814158095527,43.2028014892581,332.030548565065,-56.1466303608977,1997.40878788256,-252.651501070969
2331.82537206158,-259.625749962691,823.403165120116,-5.2478807955849,526.794096652361,-81.6704560039,14.4433386098022,-3.38220141600362,175.401334896612,6.68497290723479,1957.89297303508,25.7477935815397,1259.29087567519,-78.9459512618335,322.765551592091,1.12495608933116,625.742624575929,-12.2007186661837,1692.38198519627,-150.570579393018,1491.01340759281,128.354373818776,1049.48149328073,-15.2056649086991,931.766235665205,45.5531667027388,332.596695951559,-56.3855223004008,1995.89490038631,-252.938745820889
2321.97016468261,-256.595792569506,817.575230945162,-0.872730694548827,518.484459992578,-74.2059082916131,13.6420656448258,-0.157965694922199,175.396775346744,7.20078019931761,1954.00233941898,29.9174711841748,1259.93141655025,-77.9240801186649,323.474426938242,0.433252189190227,625.766683658507,-11.1808705505431,1689.76118358149,-148.246133947793,1492.83869619012,127.579767544459,1052.34063090325,-16.3672641576672,932.128546625253,47.2003306624126,331.640249816516,-56.0478539247882,1998.24560764852,-251.952946945547
2324.883560197,-255.862831972543,830.06224884738,-3.23796885942786,518.949473911278,-77.9123729023094,11.9670845321997,-2.46427843881531,178.131748362615,7.27731572743426,1983.17424065137,24.2030658210929,1267.31491384786,-77.4458171258326,324.915153392749,0.479046634372992,627.897641659121,-11.0539350875164,1704.50878364403,-153.620141429886,1502.18435858998,126.635634492924,1063.22048080064,-17.9314188117897,941.480712133115,44.7023253491827,333.49587371946,-56.5553700193063,2010.21976607584,-254.8166496289
2350.73629067322,-267.51471274713,843.467719797017,-6.06986921254573,543.077247385205,-86.5775390541205,13.3051499989257,-1.40498748674126,179.257788025431,6.58266014613765,1993.33856157472,20.3210372045392,1274.45545878677,-79.7321801072478,326.874629669726,-0.0509378087610419,635.176686218356,-12.5762564604275,1704.08758625192,-153.14256658439,1503.12651106683,126.315849566023,1067.84828698258,-18.0707378900652,942.646873352244,45.4751655045987,334.452421615078,-56.8227272993276,2014.7431548819,-256.103886341856
2314.09361221334,-256.133904392248,824.310456928377,-2.10397179798447,525.464112279787,-78.4088036664399,10.0132207920387,-1.83837206621779,176.343381378942,6.72066668064707,1968.23274898075,22.1218631028077,1266.45676171287,-78.3051405086648,323.636842246241,0.661085571432697,632.272483552982,-12.4336479861002,1695.03499351562,-150.89013912906,1497.51851347429,127.282530340733,1070.05661466495,-21.0739574034291,937.642732931278,46.2187750084593,334.034799660629,-56.8164106537657,2012.90351322245,-255.769593746799
2334.59202106328,-264.101706427445,831.645029617652,-4.58813987372272,525.831756193334,-77.940851674639,19.00908647036,-5.48868299855617,178.794018858655,6.51192408177142,1983.66044139958,19.9674565925002,1271.46856491182,-78.5306886217175,325.328762389165,0.0241902786637547,632.72026699561,-11.3545825920484,1702.68467010019,-152.798420541421,1503.72744334177,125.144131880119,1070.52158488553,-18.1945345303377,945.086525673884,44.7832725880615,334.358320000573,-56.8720813027373,2018.53754697789,-256.86165321787
2345.65955731704,-267.978714372535,843.706324607681,-7.4301578669805,527.442301781676,-73.9030545235282,9.63187734067719,-1.74352581366892,181.645793178357,6.29472625648376,2010.30826934916,12.9687255112686,1282.70705034561,-83.3090809252681,327.868181962706,-0.114490634468335,640.632568795306,-14.010046325879,1713.95688986858,-155.829808266642,1513.04037340875,124.407596833631,1084.05818624356,-22.0785096076078,953.539611164086,43.046848941383,335.797214652703,-57.2864246979217,2026.02952092218,-257.744493426032
2345.27275238291,-277.207573412807,830.81054579163,-5.1519443678907,532.698915798803,-80.6346179153579,15.8708356537791,-4.41082795737217,177.044053695121,6.75576553859532,1975.8324642278,20.909915887496,1276.27218263254,-80.2591941722407,325.316108098562,-0.113983263162206,636.817701878996,-11.6911196996081,1704.07285435549,-154.835949166172,1502.17727540987,125.196335155759,1076.86747520559,-19.9686668304657,945.407571879519,46.294926830772,334.873300424265,-56.8972819440326,2022.21931997127,-257.522842423072
2328.10179914974,-264.439460611203,836.015749935641,-6.27217805811549,526.019987686506,-78.6259628199015,9.90989315372646,-3.20946154805245,178.084389316699,6.75395770363418,1980.85579715281,16.7636673040457,1279.09725569865,-83.6200486069022,325.732949941031,-0.217177622789742,635.333155142302,-11.6385267566328,1701.34894774587,-153.442536275398,1503.15058057,125.760859088601,1077.26704860205,-20.6990840057239,953.372421525907,42.5222175897415,334.603865096003,-56.960171572069,2023.60146508327,-256.998492101005
2320.11926277828,-252.210669572264,844.281185156341,-8.34630516282812,536.664781687248,-83.0774988305199,12.5982404495645,-1.03939806185595,181.287317052875,6.3326230641984,2000.82056484625,14.447747424353,1284.89567534243,-82.7543653660228,327.890005005012,-0.448896041594065,642.079627309614,-13.805985664374,1714.84575453311,-156.456765050203,1512.27091118887,124.373034973726,1088.15430798789,-21.1085384573725,957.245021161057,41.4345843032536,336.067419990883,-57.4430497006818,2030.85674497898,-258.923604393367
2339.252396832,-266.884807875401,843.470456388353,-6.91215431395818,540.287606490996,-80.4898964587362,13.2677812040096,-2.78205219055013,179.163184468293,6.56046356541635,1993.46166691768,14.1622029256906,1286.90505373315,-84.3695307030873,327.32248183863,-0.440989168698356,640.077515393457,-11.4967326674094,1711.83861116076,-158.597698089767,1509.67901530028,123.291604127306,1090.43031766605,-22.3810000925681,959.958164930752,39.5113036836532,336.273413591154,-57.5224892635742,2031.43069252938,-258.373453678695
2326.22168348881,-261.953649079193,834.127314669889,-5.24645263878012,541.24358816636,-80.184368268612,16.0780024600337,-2.67804373142233,178.549085654993,6.23962269264146,1978.16753192835,16.203748360638,1280.51103790309,-81.9895431536818,326.137054781948,-0.317697171686135,639.497663372952,-11.9842703285074,1704.37929082866,-155.334106261457,1505.91152836775,124.640543979563,1086.72192412611,-22.1410413818621,956.175627215647,41.2620168288073,335.11250572015,-57.1490625403286,2031.19970503178,-258.965005037275
2320.35387248038,-255.660483953198,838.601114574194,-6.17092529802256,526.464088137289,-74.0125468907704,11.1719135844041,-1.99641366208825,180.716937395659,6.31418299367094,1995.61963587213,13.7927906586793,1287.49688408639,-82.3226642909591,328.113484741246,-0.735651644604514,644.975086249891,-14.3940367062868,1708.25226848603,-154.50971986098,1513.07256827972,122.387994200873,1091.36664611598,-22.0740066882822,962.056717572673,40.3848593693058,335.500579210393,-57.3631728124171,2036.74629578597,-260.396569651418
2334.47705192062,-263.13806132933,840.010561065598,-6.76573889888776,536.368078052496,-81.0250408306567,14.8077863646947,-3.53433556623956,179.124062153963,6.51359396253215,1994.24124189257,13.3963048441338,1286.71548305014,-82.5980536703562,327.324480034995,-0.0735370926085717,645.271112836276,-13.9708113083799,1711.37268126855,-157.646367036286,1509.56025882432,122.585172384953,1093.01542400364,-21.2546955489107,960.572711915497,41.2841542789073,335.576012294337,-57.3021715217457,2036.3143491237,-260.249667035697
2317.35541055899,-257.463734795447,836.546070295421,-6.78467948013841,542.191186387887,-79.7517470188081,10.3769540218185,2.2675816659294,178.661477727086,6.52530621642633,1980.93056947748,15.9711063952973,1282.17557451073,-82.084367598071,326.133016175616,-0.166847620610512,640.283479047813,-11.6252453735213,1698.66185809429,-152.425605268121,1505.65877392161,123.778329608652,1096.04062030879,-24.2374139373677,960.281067123926,41.1066151058079,335.305841114815,-57.1336693715176,2034.76206060525,-260.587536470732
2317.12625877506,-256.212195941954,839.405888882222,-4.61017966626553,541.71756300492,-83.3908278175089,14.7524911213278,-2.72028421266671,180.550853229371,6.49593890335433,1996.20786551005,13.7011283974583,1288.95363248777,-83.8333321957445,327.487841431746,-0.316166976768528,643.5204512901,-12.5896834450764,1712.66671868983,-157.721063458837,1511.61785172409,123.392776586561,1097.55986521565,-22.6422329463435,959.97282486632,40.6361737287151,336.097874353136,-57.5795440504595,2040.59479825851,-261.358014186211
2326.20329762428,-255.88885582693,850.241921273832,-8.56970396224087,536.913145602951,-77.6522940557071,16.7262753411671,-2.17774658640918,180.415221034803,6.37710530903685,1996.68914447303,13.1880766860561,1292.65485737424,-85.054589998644,327.913577452807,-0.219316201503355,647.084591987065,-14.8361195344332,1710.14384619427,-157.167379310013,1509.6259023486,122.686226966728,1102.08145994773,-24.3403817896856,958.463891512698,43.5341628706676,336.098733215377,-57.3114754168633,2040.12104884576,-261.365390427757
2302.34989709456,-247.438944135905,832.063840246375,-4.04035439110188,545.3107762429,-81.9544175913751,10.9446008790691,-0.561924866496427,178.41274468753,6.56411771628714,1975.84481594617,16.5493476138082,1285.46774721213,-83.7103427268051,325.371400076673,-0.119660934710583,644.943414571599,-14.6623187636505,1702.25182646944,-157.840539308589,1501.71940874345,125.00847203394,1096.65765500862,-22.7491335884506,957.334863793437,43.0086496554242,335.250881806976,-57.3688795041704,2033.99602312514,-259.48456011431
2296.89232311768,-241.703863393011,838.949289541663,-5.98996697750385,536.64130450699,-81.1553940647532,12.5789915372003,-4.24020540516906,180.236895205275,6.66408833445301,1990.12649071883,11.9963221162564,1292.07443469834,-86.3953992782352,326.991139903663,-0.290854401241338,643.248068605968,-11.9285408590227,1708.84659168709,-156.567218766851,1507.83452836331,123.510401178293,1104.48659728771,-26.00684480394,963.383928076257,42.1470530553107,335.725468769082,-57.4301940143651,2038.72350655195,-260.528370386279
2319.03448968617,-253.481748466222,848.694471670902,-6.31586542688696,540.923362924158,-84.108188880564,15.6864723702018,-1.72185363417935,182.749715227207,6.41595509744144,2004.2808465384,13.6610219087898,1302.38819425771,-89.3028131096147,329.082194726674,-0.982565035548256,648.666102886435,-14.8527001500307,1715.15403807438,-159.895705618773,1509.85193055248,123.360524074419,1103.17466254136,-23.0533638329615,964.151669541942,43.2887371939805,335.922698319126,-57.5234090154418,2042.81236433688,-262.699988486587
2295.64320011581,-246.872928658988,832.71760431275,-7.65419721839819,537.11224431085,-79.3599222139288,12.3638411570523,-3.71718693713654,178.346050088629,6.36449375537594,1961.41332636809,22.0269424459493,1282.45217887402,-84.4852426608248,324.953268818429,-0.182844535716905,644.489034592524,-14.8063941574312,1691.72378144349,-152.824198064576,1496.91356273321,125.129172633945,1100.42043580262,-24.71901425119,960.833664717796,41.7926111826112,334.929954937128,-57.3274427696267,2037.12946600552,-261.073425517429
2290.83677833129,-238.157731486423,838.853367755805,-5.05458454164848,536.672317149951,-76.0229344551185,12.535630266207,-1.72258826983626,179.643160829319,6.56469435330062,1969.22883294994,17.5941175385511,1287.21199906648,-83.4696747172493,325.633096331886,0.0919773555406792,644.715174561929,-14.1312819483999,1696.58984699998,-153.045195606776,1498.43245420592,126.058857698609,1099.63431416784,-23.0637080283076,961.421677595926,41.4306956744923,333.993921968502,-56.727495500446,2037.76769820996,-261.323644574069
2308.93782855692,-244.750992489453,845.981221298127,-6.05871291291135,543.972008688402,-88.5068682380791,17.4191433391085,-3.10519780517193,181.37154439541,6.81483110089652,1986.79627511947,17.8396836180326,1289.69615948715,-81.753164082216,327.754734034955,-0.669533486464602,649.830677647373,-15.268034842596,1707.73718796856,-156.867880131796,1504.16807117604,126.246350968412,1105.75904315841,-25.1401754182062,966.737782346142,37.9500056409348,335.948158836203,-57.8192726935553,2045.56221354437,-262.732997601261
2288.62037169078,-239.189128748411,830.346688985526,-3.54716899945312,549.398140693397,-87.4463177316658,9.94927051436719,-2.61657764688801,177.698399605484,6.88853404639312,1946.05083647713,24.5840569381146,1287.35491287642,-85.6095018313273,323.801572829772,0.457547136034002,644.691814661783,-15.3695980083571,1685.24730474897,-151.0984306445,1490.91094427006,126.643342674962,1101.38984094358,-25.6571077238528,959.3522877075,43.1339116732269,333.645886063991,-56.7372320553024,2038.04829190417,-261.730120713515
2287.22090800551,-240.209090066133,834.43780243047,-6.71776184827798,539.424389411458,-83.9793883485377,15.4314538602959,-4.36808674367481,178.521770230753,6.78871119506954,1953.84439153406,24.4391513376237,1283.65264791177,-83.5506238268811,324.704415183428,0.0279350521682807,645.206646038754,-14.6441042465134,1686.99258326727,-149.496730601101,1491.02433855886,127.153408582692,1102.94389790579,-25.5240750684081,959.153533932355,42.8487701861492,332.816064915059,-56.5104001560973,2035.29413537605,-260.405809248004
2308.17251239615,-248.910725429045,844.445945400778,-8.35533225581573,545.052654150858,-87.3457374660302,13.7962764535581,-2.38831056944379,181.322647466083,6.69282436756465,1968.56608622834,22.7278885582944,1293.05576587076,-84.5199383740073,326.759033519936,-0.277488428584793,648.841365552242,-17.0223920422889,1697.86275055731,-152.624330305417,1498.51358796416,126.25947900164,1106.24881774665,-25.694460269753,963.308516525418,43.2244458933155,334.419867742671,-57.2686713406863,2041.89012814851,-261.932415738325
2302.36966913944,-242.874735983169,838.344586189439,-7.9423894278651,545.000800809089,-87.4066548800691,11.0965128511941,-2.69664352604877,179.118426180371,6.33859453778868,1947.44685034228,29.0524813144934,1290.11891019839,-83.7899651733837,324.581008859518,0.311526559187248,647.288650536172,-14.610256699702,1684.99982492124,-151.196075137039,1489.95114931749,126.927778064533,1103.24457640368,-24.6664021476212,962.102001327553,42.3573446697823,333.304961828975,-56.8929600122775,2038.24598475014,-261.718097003048
2291.87946820901,-242.02840328209,831.645839717677,-5.89290646827568,542.997208238949,-83.3296291923357,10.7382009289584,-1.781374302578,179.119326919325,6.64800522202197,1943.53515743723,27.2166379257823,1282.99750089342,-82.5558018574208,323.443465440283,0.545333531472151,644.230393465056,-14.3737632423,1682.72540723511,-151.135176955141,1487.59509400551,127.640350858085,1103.24350215631,-24.6662444610815,960.130708545939,41.5483204634737,332.399984044211,-56.5777411094555,2035.82098188191,-261.003983010483
2317.09108943066,-254.281103552668,845.384973159861,-6.49035976877223,534.910093083172,-79.7903285615173,23.0480905288901,-7.05639420755044,181.103064533885,6.48126169237722,1962.67304499882,24.0524620905404,1297.30401009289,-88.4231886818876,325.757234020855,0.204204925426929,648.008949427587,-14.7530041475966,1691.33750256749,-152.240368376029,1493.09288093784,127.393703881769,1107.93006970862,-27.7619136971232,961.318840558355,43.6440126679628,333.663080590318,-57.2168647693105,2041.29255932279,-261.631832549185
2309.61559686248,-245.531724229932,838.849920271833,-9.23534738842853,540.727976919799,-80.882736331658,17.8160304879354,-4.66685853266018,179.432105248375,6.15285277145827,1943.64830295514,28.8364400624658,1297.51113600671,-87.8606672980796,324.490687250685,0.463999044266421,645.509812732105,-14.5659123724553,1681.51161808931,-150.015294258981,1487.58603566486,127.633226809218,1106.00446478077,-25.0724668594269,962.147868625989,43.0735092279068,333.062478714106,-57.0159625943827,2041.95712466169,-263.671852732854
2309.88685167804,-254.635902246854,841.091192359618,-10.2485225654574,538.812168558816,-89.3025668075711,16.1812737007343,-5.45134935326228,179.533474772158,6.37835151455444,1937.78611610677,28.4920817363483,1289.19906172746,-85.6395692971102,323.558192274661,0.744555366471403,645.94473179357,-15.6567757671426,1680.86457125866,-150.582930521578,1484.77396679812,128.814458532742,1104.44596549919,-23.7443097968034,961.830850774194,44.1603184296259,332.714330112775,-56.9828026935205,2039.71239405568,-262.541512368994
2319.94448987923,-257.496577897091,843.466478372338,-7.09118735312344,541.990662539455,-83.5115113463726,15.2383131259437,-3.06904009006225,181.852887438107,6.20586027803503,1954.84434903865,29.8895721336516,1296.07639508313,-87.4750554168504,326.09163532976,-0.0829247124030212,648.115240226091,-15.5886522073217,1689.54315637781,-151.500871946967,1491.73283994192,128.375848537059,1109.14738544877,-26.2902795892234,967.772271418708,41.0037354750409,332.764374891206,-56.5824919684427,2044.66276339716,-263.628930653124
2312.80697049132,-255.136456708845,837.099445003268,-8.23422102406816,546.288137463433,-86.1757666657468,14.0711372159904,-2.94950486258759,178.596378636817,6.74163033177802,1935.22760685878,30.1097045536925,1291.24993213056,-85.5670368543204,324.122065207533,0.501291701089445,648.246596763275,-16.4847822049197,1675.55075559191,-148.521865685851,1481.88988746061,128.797367211914,1104.16765332259,-25.4472006930875,962.613492793699,41.4446067782566,331.56241921908,-56.4211770709721,2038.04412374437,-261.370479729299
2301.83002655216,-246.461187010076,838.404257567114,-9.56419278488494,535.745049285265,-78.0086893822357,19.0679528554803,-1.87080315167096,180.164358417227,6.22748541667095,1935.30190125122,30.4174508280381,1295.82655274422,-88.6930490513639,323.727166548739,0.635945005745392,647.440218632102,-16.8411339498888,1671.73468585586,-145.773096233972,1482.64276690504,129.024592045835,1106.68965986859,-27.3133298618149,963.054963175047,42.1121158942952,331.626570571251,-56.4896698136997,2036.64620688897,-260.821579427867
2312.32550222296,-245.349570841066,849.222122702971,-13.1951932066165,545.211490398365,-83.8922747633613,10.5825344683218,-1.92568552381209,182.367216161313,6.14001360298689,1949.52338851755,33.6987627793737,1302.54333123334,-90.287970001988,326.187793355598,0.152437467415979,649.017273316244,-16.0722669653252,1683.88676277111,-150.157607598147,1489.59899173936,127.587549971035,1110.99543032106,-27.517741402103,969.286078759046,40.4104809963354,332.148402937958,-56.7869717510746,2044.50541031817,-263.341157319426
2326.80624749614,-264.625111802896,841.127870920283,-10.8788137293658,544.470291946502,-85.7646359874335,10.4515006961782,-0.339906468245623,179.069527392413,6.3066869049006,1924.8570927224,34.6442591813267,1292.98066226732,-87.0135836380213,323.627826587143,0.675912858109012,646.247234992902,-16.5169562961763,1673.37050269782,-148.370250825636,1479.55750148517,128.602247086396,1107.54926560142,-27.1835880015547,965.224152416278,39.8141798737465,331.226892661586,-56.3976240203573,2036.26031477707,-262.328167639819
2297.21156004906,-245.399183428008,832.51456327568,-7.09872239271436,542.533981302439,-83.180128187954,11.8933895733821,-1.59422586898242,178.808309012859,6.27039109704881,1919.31620723673,31.4076488262086,1286.86913689985,-84.1961387283976,322.620065504075,0.776484356285895,646.42135837051,-17.4819695044941,1661.937932714,-142.714211197582,1475.7852905578,129.899123242742,1104.53870846467,-26.9966123848102,961.634708543395,40.8940866574515,330.096302518203,-56.2082002367615,2031.7748565327,-260.238504255685
2305.65173920315,-250.704183765786,841.182738239491,-8.47597717839243,526.63100992564,-79.4200574444054,13.6811543210204,-0.903734845002056,182.135201092877,5.72438164771601,1939.12549183339,31.5225395570668,1297.79406984628,-86.4185184932679,324.390798639269,0.406644537340867,648.633835122718,-17.7507753853034,1674.15420677365,-148.0129529098,1480.96397282137,129.109824774139,1108.22978153178,-28.4888800993069,963.629024943801,40.2814887317491,330.5620131625,-56.2612015213343,2037.03254021129,-262.859225920375
2316.24340895207,-251.603881913495,848.025066738449,-11.7051604830137,541.105933108103,-82.4583160734047,8.22842764135643,1.30385300098366,180.383665256315,5.89580407589046,1934.1952692528,30.3594678487094,1298.16291293315,-89.7067650118021,323.861823866958,0.686424506409638,649.348945361169,-18.0001927430409,1666.92480120124,-145.42375558884,1477.51477728065,129.392368184467,1111.01906879153,-28.7422527894225,963.665130057479,41.0255276116441,330.527899655934,-56.3596376772466,2033.76008729962,-261.193694032003
2282.77148821381,-240.139013528802,830.198408995396,-7.738084833424,531.00844431522,-77.9793246906808,11.0965918394936,-0.507147900460895,178.433546876449,6.326862466206,1907.13597561339,36.7325307366578,1288.13413035143,-86.8142254144202,321.289149053864,1.09840846776148,644.334004057827,-16.8315984389278,1653.90134308139,-142.544554923769,1470.01551666433,130.231322769983,1103.43136538372,-27.6033518616905,961.29202174484,38.1502208534924,328.461080064772,-55.8437878283193,2026.44500938813,-260.03140560987
2306.43092277867,-252.42886534839,836.160508312689,-9.80608987424515,541.248191080199,-83.0084129620961,18.2854816415182,-5.15151110250257,181.037471178921,6.02716802906751,1917.00034132582,38.8762766915258,1296.28549339961,-88.3797466138005,322.522065172043,1.12776539097731,645.178981832179,-16.1557804579805,1660.32883182657,-144.331697247155,1473.47336455372,129.579370298103,1105.12487632222,-26.4000933703769,961.36817096144,41.4054710220339,328.592194304694,-55.9340292656984,2027.93170488953,-261.030213569175
2305.63527564513,-245.154342096391,849.702403058556,-11.3914721738644,535.100104596997,-84.1137701925134,14.3184200295336,-3.90176393212748,184.210492714822,5.24059146681977,1936.25082045668,36.241947202577,1298.83565994463,-87.8148179940027,324.432608374537,0.809443096282591,648.139094709645,-18.6939023948382,1675.22172521533,-147.266540076954,1481.00886770696,129.242836945912,1112.68296848922,-30.381278970676,965.598676439489,40.3181841819609,329.65153453995,-55.9192538267517,2034.33442344734,-261.03582128367
2309.37533534531,-253.76447211832,832.999289175471,-8.4933235170159,539.48403208501,-82.4691262460154,10.4002790673944,-2.97250669840726,179.210365993898,5.7597641102548,1906.86236157214,37.0429536419081,1291.67132040908,-89.3386477646318,321.498286848232,1.11350088817305,641.150433819862,-16.4721676811255,1658.94898188314,-143.9101528569,1466.63298226407,130.433242095964,1102.94808407722,-27.552100195098,959.465960356321,41.0980250926991,327.647455892418,-55.6872421413273,2022.71762175054,-259.794280593499
2288.64928316472,-241.867807735512,836.083516014546,-10.4614842417705,534.789477549077,-81.9915116313362,10.7520587273896,-1.7695912683267,180.316263793175,5.78907427911825,1910.06193932436,37.0934393179932,1295.16813146159,-90.3288797578748,321.721371554441,1.40671167029653,644.379468388018,-18.2656352497179,1660.45108209091,-145.228808413517,1469.46289117924,129.661970657798,1102.62545957495,-27.6961827816837,959.020614642141,40.2852781168677,326.941174414647,-55.2713410466661,2022.33431769489,-259.646846103439
2303.15765310634,-242.829757041093,844.450810505414,-12.7575831220094,531.767658831279,-83.3044905833677,13.9697765411309,0.207806961266352,182.632423318218,5.47500509125797,1925.92495076631,36.6708696615183,1302.02965645853,-91.0512761196133,323.618321546582,1.07315399846655,649.338219518086,-19.6600301711653,1670.43219440372,-146.038974387115,1477.05498773555,129.174031678053,1106.34163709324,-29.9967985674058,959.32534835601,41.0535236088398,327.777209347477,-55.6882884873816,2026.5868844811,-259.852579764657
2306.94008778918,-249.082981604849,839.509679170843,-11.2710934870876,540.521867697478,-83.7547781415405,16.2651786370295,-4.15847141559062,180.656644287252,5.54565053299046,1920.79763553058,33.9243609229108,1294.86804464913,-88.5276698649496,322.810230209058,0.953440922070762,644.315632590357,-18.0016502550528,1664.36537926537,-144.640821969316,1471.73979645562,129.351306843583,1105.35063042946,-28.290832887749,961.245934551494,39.8931071193024,326.899197667251,-55.0642239369849,2023.680908503,-259.23137356979
2290.37178252444,-239.863066334816,831.887862112333,-9.21614079796198,543.94436260932,-86.510940341951,9.38416123748414,0.72431654882651,179.534292449985,5.6849892779374,1912.40806753345,37.4557395592505,1293.71384545802,-88.2447316551863,322.284454815921,0.757078221546014,642.438150646993,-16.6585175512232,1662.41777130325,-144.915741217027,1470.41788911233,130.109436998726,1095.26544260731,-23.6937372030241,955.474397407349,43.4366124875679,325.873864854499,-55.049757985055,2020.85552202315,-259.460303892313
2300.06842733454,-246.964051414677,842.71514086571,-12.2271648237087,529.461242726376,-76.3433191336187,18.2869216727935,-3.88250925129117,182.598140698909,5.13018981794047,1933.95680004881,31.3787138880961,1296.47091417796,-88.7382699811117,323.422455758241,0.524630396362617,648.4410835956,-19.2695343311728,1676.06667409198,-150.90957093816,1478.12441827528,128.94634972623,1098.59395359601,-26.5641329904007,957.469934640511,41.6544286848024,326.586951320349,-55.5462628736672,2024.76361558901,-260.454781473135
2302.29344500012,-248.5914902193,833.525137689213,-11.0625955088632,527.849774773846,-74.2013291328243,16.4157977444727,-5.23854789579534,179.926820547667,5.30890207700124,1922.5715316142,32.8370135594743,1298.92714177968,-93.4244774828283,322.809897175689,0.591334619348406,646.5923837237,-18.4437670782719,1667.00775967737,-146.648969721528,1473.33036814568,128.656154102823,1097.64099130751,-25.5285800707791,957.145138715492,42.4126077445416,326.156236491222,-55.4294671392175,2017.65611127097,-258.68005051792
2295.25543505368,-248.246410198374,824.89829342019,-8.79792831384626,537.479573113781,-85.8148952911788,11.8705322102068,-3.69260486495477,180.015438627998,4.94761080076837,1916.68748763604,32.0613697961617,1289.63795299984,-87.2676110696917,321.715854436954,0.757195011224772,643.114754850585,-18.6125979404852,1661.74836849362,-144.675985752806,1471.34985673733,129.424824469307,1093.05809384381,-26.2611746534348,953.839754392714,41.7386999059635,324.65943227706,-54.8266243779382,2017.29017844066,-259.952504833592
2292.4456050695,-243.269288309763,838.805936205355,-13.0109118101502,531.764465193499,-86.809055598271,14.8310329821415,-1.9632654730282,182.090230740295,5.07929895593665,1928.28583199451,32.7686627244195,1295.23095433437,-90.3550373626979,323.288162819972,0.60624925777783,645.731880164507,-19.0942987117598,1674.03944830796,-148.264923584121,1478.0973809644,128.220582193589,1098.63876763151,-28.7098874709126,952.999349953801,43.7439213337888,325.361464818466,-54.8215447473162,2018.8218662933,-259.231980528752
2291.99362632789,-243.039448852268,828.077443812686,-8.26247283421518,536.070901503939,-85.2264099580903,15.0896721126669,-3.158883721802,179.055226436607,5.26646701862368,1912.06127480949,36.2503409922319,1291.88306890445,-91.3212260735891,321.269427421523,1.05239487357693,641.242417935313,-18.05730189934,1662.15414346982,-146.437895065878,1469.36544443877,128.824307927223,1091.30397495683,-25.7407834508365,952.610815528803,40.5451725197048,324.24875959074,-54.8070840831042,2008.9368906846,-257.710148941812
2291.72066183262,-245.976929842587,824.855559161987,-8.1620072257547,533.367975699982,-81.2735868961854,14.9911940702999,-1.4572099048057,178.145582286694,5.553239168442,1903.45915548593,33.2505843567632,1282.83522305396,-90.216730227179,319.927374515546,0.903984437422789,636.669923014969,-16.6035582091064,1661.44539845799,-146.21919907626,1466.71625820336,129.832468325115,1082.88818499748,-25.306585960549,943.488172642535,44.4350033074093,323.068421701812,-55.0325744571808,2001.903084293,-256.731250074074
2284.16261518095,-238.51106930887,833.126417322697,-11.6112168586033,521.51570669485,-77.4433193960803,12.9064096867551,-2.58008575380053,180.04861366171,5.46744916461268,1917.57183577104,32.2364183357724,1287.59607922381,-88.9802009396854,322.248736010652,0.655060801728764,641.992952570259,-18.969456404461,1664.91120584723,-145.047961687668,1474.93962849694,127.042185240705,1085.63153333554,-26.4041288543061,949.640478564302,39.8182774126417,323.421083556973,-54.540811096289,2005.86101022472,-258.058933467346
2285.65307192549,-241.885088341338,824.505632662046,-8.47872155967418,530.912624362503,-85.5616890363937,19.8467439125467,-4.61572951586157,177.761742055846,5.42727967207883,1897.25899901186,36.8964836266612,1279.13745415788,-87.436068627523,320.726528952929,0.702388135495526,634.775195268649,-17.9778229162439,1657.70305603917,-144.589920338416,1469.20563961585,128.314157723388,1076.45410486182,-23.4840672228297,942.00659153021,41.5471263675889,321.170893785586,-53.6744185228988,1998.37991752002,-257.358170777104
2260.37556976799,-227.844221492711,815.607334398828,-8.07686116508492,521.25730257512,-79.6339153874551,11.1037154706096,-1.05658652645585,176.761441455128,5.33418175131742,1891.1052827874,38.5149199738875,1273.79026438147,-87.3490553528339,318.596469805872,1.04363872614752,630.537772482041,-15.758995315752,1652.79013715792,-144.5534475427,1466.68844554193,128.415113160151,1071.29480218712,-24.6449292820171,937.861819544563,41.2740511401215,320.142638855521,-53.9748007114554,1990.23929413671,-255.479432063985
2273.9250916035,-234.115351719406,830.426909212607,-11.4547218694478,525.436180744325,-82.5395354732067,12.6821600785727,-2.17834802124703,178.432625823402,6.09951336670059,1910.2439395741,36.4657335584083,1279.41218272011,-89.6134331435251,320.806682983165,0.567707124556646,632.75170608774,-16.8639615342357,1663.43048401234,-143.819046713467,1476.58749931525,127.047066647669,1073.8147383901,-25.4128233609879,937.523713266099,42.760142667554,321.384017431728,-54.3737254323662,1997.56603636358,-256.289500315594
2283.48515478272,-232.975150388148,827.540701161135,-7.58937820439045,522.148805686959,-74.6786981564462,8.0435880590173,0.141799220555119,177.612900606132,5.76592875820661,1906.27101374367,39.4050937781995,1283.69089819678,-90.7996935536983,321.487958392335,0.80581915295642,631.459387828694,-16.4474506976808,1668.89348788804,-147.807446044775,1475.97121545402,126.60386742583,1070.19040562393,-22.6119656712001,937.211663560126,43.257712906178,322.021532381181,-54.4746499261008,1994.88383511661,-255.291162308251
2256.90834466867,-221.808635103798,814.058514567471,-7.43426741480976,521.304486403922,-78.6861197140506,11.8897035967011,-2.17899178957151,176.479730766037,5.47220021492086,1883.09672708258,42.0986074057089,1263.24333741694,-81.9222636979276,318.907820345504,0.900073233815925,626.583046792471,-16.5278064970833,1662.17080190806,-145.014915211737,1474.93069226001,126.015477415283,1061.63966047485,-23.3977541520156,933.096260007026,42.1209963876554,320.206340963181,-54.1549644568878,1991.04994441081,-256.111986207715
2271.78218373919,-229.236196164823,823.254392197236,-9.53767615240094,520.399286622577,-78.9266754255795,9.23609943610276,-2.22290765062016,177.949219505359,5.75610668850339,1904.05372249811,40.7747411420174,1273.47199525952,-88.4360116660328,320.515672418539,0.700051187492332,626.090794574974,-13.9923701709608,1671.00308706789,-146.032781371576,1481.45671697608,125.54163667353,1056.45360679736,-20.8579168453683,935.6559313592,42.001269128899,321.163035029984,-54.2116998034051,1994.88314903461,-255.11401494837
2285.31770137228,-232.888878243459,828.406544129354,-7.65439321326344,522.184099892339,-81.6433001737288,10.6727188632484,-0.670259893480184,177.983528988218,5.7013683088625,1908.40429072137,41.6126397183095,1275.49923816779,-85.084467391348,322.344300248517,0.0152528859668252,629.860394819991,-16.7208679352561,1675.10755947159,-148.360095535301,1482.66892445243,125.239911901551,1061.29782996451,-23.8591343437606,936.551559411063,40.7690315105296,321.617032054153,-54.096408269169,1996.29709816806,-256.133297676618
2281.89909554095,-238.610379893242,814.780319173536,-5.30718521649191,523.219495496203,-82.4791277803867,8.76410395445123,-0.346256491240375,175.971488420534,5.80159521014545,1890.16272267456,41.1163026785458,1270.65335541241,-87.6941590048829,318.916637812325,0.821194793149029,625.248766751911,-17.0944010892439,1669.2460883109,-146.305464676727,1479.51160149761,125.288290555542,1056.75143360605,-23.6069612795134,929.534235335444,41.4584949970716,321.471519868574,-54.2141203340217,1994.47961362181,-256.046099002529
2266.0115096937,-220.277507616206,822.803231802557,-6.38648249015318,520.696271797583,-78.4321502314167,15.3157011768889,-4.12915141379391,178.225025185154,5.58937066264361,1911.56406383124,39.7152096587694,1269.59906679892,-84.3279468184967,321.785461693481,-0.192118444308548,622.74904324161,-14.5411601111051,1678.72841197408,-147.375552722329,1487.40457564319,123.943579215215,1054.80363500805,-23.4157281261959,935.43789849135,39.1454501515351,322.980292676619,-54.8372218976812,1999.86612288336,-256.651285848259
2289.06709199888,-227.546993495174,839.342283210116,-13.3355916926133,525.924450827996,-83.5970618142516,14.8032128172912,-3.65281673265819,180.491163205934,4.99129802921053,1931.68462650807,37.7617557195873,1285.99681061983,-90.5102902935879,323.50347098441,-0.22076250795323,629.867489540329,-17.1585121614708,1690.25184041763,-153.374937649045,1492.92811361922,122.469618644687,1060.01965691868,-23.9446954351714,936.823195542267,39.725200017561,324.387151285665,-54.7411736129516,2004.37412108277,-257.09638270572
2262.75628466009,-220.220624398482,820.724165310021,-8.04469285638654,519.502561799088,-79.2625077607515,10.9524541043086,-2.66077273790404,176.039451532358,5.89133393650642,1895.83678944174,39.6897646676376,1267.60687208355,-86.0114901439128,319.812945685329,-0.0720657735421798,618.090882401726,-12.8443719633159,1681.5888814746,-150.81586891995,1483.95235402765,123.320163145074,1048.44342666686,-21.8487667766488,927.836597726705,40.4412526433577,322.502829531917,-54.3989192307325,1998.26987888146,-257.244463940618
2272.68927929773,-222.567414502856,826.373683347013,-9.05571752790466,522.717097877575,-83.1841551313968,12.6423406622572,-0.257511819709147,178.185434068973,5.82998202864935,1910.39855713067,40.0249879404733,1270.39542728348,-85.8569701382357,322.057887699314,-0.68540803215472,623.705435962314,-15.3364256592769,1684.77343261093,-149.767513061425,1488.38467273467,122.764550612656,1048.0456025453,-20.6136247752352,931.373083012063,40.1042622440997,324.473085348065,-54.8527127337517,2004.7035812674,-259.13263759
2311.31973044003,-245.071124089828,837.014649136708,-9.80469253281812,520.479405732781,-78.6515063729029,12.7633368012511,-2.90309538813194,181.23118250746,5.14328353788626,1931.46283007413,39.3273947257914,1282.82798491718,-89.5618500038698,324.212352779967,-0.709287769563979,626.103825296808,-15.7303280621103,1696.8785037479,-152.681900498663,1498.58750042462,121.610933059502,1060.15154377415,-23.5079637118024,933.426046545901,39.3806902129844,326.726588527888,-55.401804287647,2015.20763152323,-260.105076787044
2305.1715684728,-245.335198722473,825.462088805695,-7.41991039440374,510.109612624624,-73.3700717278598,17.4244132467105,-5.50444922904964,176.803875108951,5.40944798534737,1901.05838804431,40.8787044881873,1275.49074648943,-90.0100275712584,320.897062782888,-0.342349414136803,620.930187070946,-13.392442875604,1689.53700949401,-154.592109100541,1484.516894806,124.273700352314,1048.56726353907,-23.2099009482275,929.738794183941,36.7267842395375,325.734804418783,-55.2189581140422,2007.67200976295,-259.756036495166
2301.19195769957,-244.195903178678,823.5938307423,-7.72414495353471,523.16503491061,-78.0320501119215,12.8138726318275,-3.28021598440363,177.847009042016,5.67519087401751,1913.92175656537,36.3327722015068,1271.0499882396,-87.3880968763663,321.193587251842,-0.44314641067198,620.660445893753,-14.8217907182358,1686.13982288492,-149.337659019274,1488.13556480096,122.4352856864,1052.35186250094,-25.5600486382276,926.996351234729,39.9531615321216,326.506106649076,-55.3207214886652,2007.43293588481,-258.511804125969
2321.90233524993,-253.697858984699,841.610443989815,-11.9386807744887,522.400602919816,-80.9975498384743,12.4315792041977,-0.696998194008825,181.804409512436,4.85755999391495,1938.41239337203,34.5578644459143,1280.94028833538,-88.4361200654153,323.834875258513,-0.813751423278235,626.005946957454,-15.0133929339528,1697.98570015064,-152.220711042967,1497.87888278603,121.583910332535,1057.71900847913,-23.2177321575557,939.577208637103,35.5417680152741,328.228130244884,-55.51002925351,2015.45347205749,-259.759046461199
2312.42159062365,-242.800380027969,837.29470189014,-9.73491518859327,528.532932730722,-81.7007451510208,11.174560727256,-0.204452994575493,180.265320400829,5.06029071420439,1931.60339450385,37.1539766314875,1283.65479277849,-90.3689494719991,324.753965049794,-1.06847240627053,629.471770620413,-16.0549842125051,1693.74747865006,-151.98968187945,1494.94705013913,121.128063039843,1063.31775084877,-25.0785635168179,939.661267146057,37.6242696520356,329.693719673197,-56.221570386923,2018.9035619765,-260.374370628427
2304.30813611532,-244.166157675507,835.35239870679,-14.4558389778578,522.737738787329,-80.5252690699464,13.5671359122775,-3.91526403825322,179.191176141329,5.08140482584403,1915.74848673889,37.5233345919049,1278.9696414203,-89.3097466077862,323.060866273898,-0.810065333220158,626.32651740898,-14.5728080270556,1688.80901347483,-150.456060204225,1490.70634283392,122.767423076676,1055.71775801446,-22.3835997332761,937.632864637391,35.2929424507789,329.239347538322,-56.0813310887227,2016.97608298691,-260.310942070709
2314.57235550118,-249.213221021992,842.618897022902,-12.3846352555178,533.628416838179,-88.0593748770583,18.7596657644286,-5.36441304854888,181.926752338372,5.06194424056201,1944.88167544736,32.5192246275496,1289.43507724835,-92.5269015187147,325.640086807929,-1.30328584776378,632.442025711845,-16.4411325317037,1696.64512107403,-152.031383676445,1500.77974948038,120.524534682455,1067.25894623438,-25.4113483565126,940.760465806317,38.7152273739731,330.720261345347,-56.4653777267518,2025.93890608921,-261.312398931745
2318.32215709821,-246.586469598461,841.254779435437,-10.4873576032456,532.797261739908,-80.0434396211258,17.5008814166479,-5.53508947973499,180.829876855397,4.82404674345017,1943.48990045133,28.6303339238569,1293.05406581353,-93.5322940315035,325.827498204894,-1.51218948940893,632.089702571127,-15.6589835226121,1699.58330542728,-155.439771117713,1498.31253173892,120.784141785124,1070.8743903832,-26.0742404892946,939.881988102745,38.9517578293623,330.542856476046,-56.3511782617774,2026.60835524308,-261.713916494669
