2285.80989794643,-238.768820712736,780.674034459531,22.4987615361145,493.323915485382,-61.8157555056702,12.0982251386696,-3.78362250262934,168.564391746094,12.6875604608206,1898.03261968777,39.6075761275917,1220.0015849658,-59.3636368199047,320.626089440557,3.3648959301863,602.179504639149,-7.16074432784836,1661.04231269395,-147.734615396732,1464.6632029789,150.05156414363,1027.5447181884,-6.59856802289805,900.684594907114,60.3704315414279,324.24930385243,-53.4643309599422,1859.36745064112,-220.211413265783
2289.00697500917,-246.053618057872,780.036504962802,21.8253272573844,493.525322495088,-68.1990643208519,7.63735043932702,0.864578507922632,170.503262425621,11.8917074887196,1899.22160520283,42.0798384909415,1223.82729779836,-61.9743420852581,320.721218189528,2.81619396888609,597.804223533226,-4.12165133107918,1666.22384590118,-150.67397743141,1468.47817224883,149.875116861797,1028.80555112244,-8.06980135285536,901.441641728308,60.423819636406,323.445979949203,-53.1318457920135,1860.93600938109,-220.650859930595
2306.33725882099,-251.718434494601,790.026461449467,19.0185679473548,484.232322327671,-61.1036701717988,15.619650338461,-3.14804870108466,173.069874622999,12.1275697284645,1921.36659327204,39.1975949106415,1232.70841645732,-63.8385826912794,322.633627952759,2.54083546080146,604.814844149499,-6.15673492276159,1674.05090375736,-149.916366092102,1477.99148217104,148.358591555626,1036.18708681185,-8.2678012792817,909.109478662158,59.2818427516485,325.329957764898,-53.895819935849,1869.56294717296,-222.123887709308
2313.06971314991,-247.817854764814,803.480654968864,17.7486852666573,509.218086665943,-67.8637819096759,13.1499722591498,-0.736520779889256,175.620164864394,11.6743339979019,1943.11571486989,35.8303840388206,1242.75190829645,-66.8680533720593,325.49660230645,2.2910519683129,613.444814909102,-8.28537851317682,1695.96010036419,-156.308164223779,1488.65771436572,147.18916265746,1045.47020827792,-8.09061305983726,920.10829121986,58.0559510618259,326.368986053098,-53.8383069837622,1883.2235123659,-224.976109923926
2296.15825529539,-239.800079874857,787.62845281622,17.270470483964,498.520180859862,-68.3644795840838,15.2548112981449,-2.80003900484237,170.871866505866,11.564589796028,1906.40357720856,41.7635085676674,1231.3275625045,-61.2003191813505,321.638707839072,2.7569852574564,606.409932407194,-6.03695766747441,1672.15675147495,-148.413934850733,1476.9236959993,148.491047464484,1035.63505113278,-5.84947801171467,907.702185227596,61.0495668916102,325.314205964398,-53.9335798402179,1873.55313501069,-222.731452733329
2311.82313796137,-255.033020915325,787.533160316627,18.8324016014265,493.789276181155,-64.3227108985388,15.3375149683054,-2.02688693068744,171.903285156587,11.5649305448271,1909.00971741887,41.5858135437255,1233.28985124137,-63.5557999181059,322.514930454012,2.5517369211105,602.243049716936,-4.5090546884927,1677.50343984001,-151.176657590988,1478.81514058182,148.085467149911,1039.00337094874,-8.08555834177474,910.976007094659,57.7811671669834,325.85363088573,-53.9923064790775,1875.26124903989,-223.414892413931
2313.39590063585,-252.291751645404,798.640600792051,16.5314341180996,501.624094464796,-65.803382299076,15.2704924511586,-2.6188444126722,174.366336228568,11.5565101436734,1930.934795755,38.0843330392217,1243.96631161941,-67.1933556426389,324.912434571357,1.77424397916398,611.114158546012,-6.34481790014538,1689.28460829713,-154.096426560222,1487.50114627071,145.969452617601,1048.50932849201,-9.77104810137423,915.876113237188,58.8212294407791,326.713722235032,-54.1839000932543,1883.17747864179,-224.933675146389
2333.64102208376,-261.340151243537,811.545436927349,14.3771895238687,498.194841366158,-64.2222395761796,22.5419124629513,-7.10918342396367,174.699653155888,11.6091155243382,1946.41949108591,32.152073353574,1248.55984773221,-65.0601977631492,326.286551162013,1.89726641713187,617.214551339662,-8.58780958308997,1693.36880398566,-155.754979449443,1490.04094029027,145.049445156982,1051.216489219,-8.62158967444328,920.322216683363,58.3487945806515,327.40332365032,-54.4599733985827,1886.87845220909,-226.073830955039
2316.78399202126,-260.881074061382,787.697002842864,20.7891635820311,504.731848997216,-66.5441390869802,21.3418083526807,-6.96194798506968,171.350216531173,11.8735181215716,1911.45062096549,39.756096109858,1242.03096774483,-68.7220963115228,322.036194591779,2.89295018524242,607.958991909589,-6.06833105717833,1675.83594341883,-149.708148744512,1479.66102290908,148.073371458412,1044.39622124105,-9.10438107364769,912.430839131387,59.5396362707963,326.53675864756,-54.1974382062188,1879.26987267128,-224.118175674019
2312.60811607308,-259.753767532522,799.093717337841,15.5940507219487,503.070714000752,-68.5297152887987,16.5384032230317,-2.64215583883856,172.371257316458,12.0270307466891,1915.85881081116,40.355347993678,1237.70206587699,-64.3229701423165,322.36792697369,2.51397402709666,608.062533704031,-6.19418231257514,1681.95914290046,-152.742540099888,1484.71388527705,146.32397439307,1045.50530898088,-9.16526640878685,914.971238052415,59.2598364934871,327.024702534312,-54.2442382418961,1882.68176369231,-224.557641783056
2329.50150977031,-265.493059901856,801.000258477833,17.9746512589302,505.649484143223,-66.5574574546041,17.8020338100115,-5.25453349071954,174.845868634891,11.6753706746549,1934.26886391546,37.7905456975791,1247.30886236722,-65.7033501140229,324.600457634997,2.3654739303325,613.22253901635,-6.54852000984692,1698.03317711627,-157.188218462471,1494.30180682394,144.543705307081,1048.06639639225,-5.40406748782856,921.884875669109,58.2238123936681,328.05696508174,-54.7578610284724,1889.96470427245,-226.664629971681
2313.59424687343,-259.590871607966,788.770683828146,20.7393303580841,511.977411166797,-67.7407728688839,9.22213024501237,-1.85025986515824,171.809591562286,11.5339620394874,1907.75872647783,42.0727574669831,1240.93297370193,-66.7898054809633,322.105743834428,2.69263991661443,610.165772755313,-6.64479106216807,1679.10475642891,-152.56259278508,1480.81109897041,147.6758125236,1048.01960587159,-8.94372640246246,910.542632941714,61.9134034977798,326.999193712377,-54.108376863052,1881.22231947569,-224.344950978126
2304.96327951465,-255.957664295374,789.957509880325,19.930661661537,504.378371388268,-68.6646662207885,16.8377216784411,-3.73755362031614,170.12767980997,12.3904771484435,1900.14162824167,40.0526274311341,1230.73422418115,-61.0794801680098,320.352632507024,2.76728179725481,607.271152655211,-6.45353542514727,1668.09262135477,-149.334764123887,1478.24927015919,147.434710357741,1043.28392052861,-8.26010400977525,905.962350010456,62.4444648405055,325.867482467051,-53.7743616784048,1877.26871905841,-224.990041262439
2308.12095531274,-256.351674290535,793.605420290401,17.9270202015682,506.891985577502,-69.2740644968672,12.7646420452705,-3.98464520195473,172.225409511374,12.0621503843496,1917.5654853632,40.7286602865967,1237.26061890637,-62.4713308041494,321.827464302959,2.85372328354241,611.606404627291,-6.86321175547163,1678.57541524934,-151.004152734744,1482.61655103115,147.579308103933,1047.65894634691,-10.4065152745141,913.745244680909,59.8537970068752,326.370410197263,-54.2888109041803,1881.15478821641,-225.353682372454
2320.84749814148,-260.301577486886,800.905442397574,20.132242040642,509.874831631647,-69.060792722804,5.39115683532635,-0.0152804644246442,174.90902603422,11.5763116701593,1936.58689853241,37.1077067720155,1243.93659259243,-63.2425297651712,323.87171913897,2.77884666911616,615.47135917801,-7.03446888236328,1690.78851743528,-154.482733166937,1490.75689385564,146.359302456595,1052.86305824943,-9.34339908103339,914.037138166173,60.5802557138102,327.644871890448,-54.0472919020213,1886.61600252552,-225.853610149614
2287.12201492237,-242.655657576058,782.427586136009,22.5577770628558,493.198038490965,-62.4967134749362,10.6353919613796,-2.78844860933579,169.482828300185,12.2472970428112,1889.25916400528,45.9109262395263,1232.28093020253,-63.3817297524082,319.593060746951,3.52421571524393,608.281010029522,-7.59493367118185,1661.97373423361,-147.849287451842,1474.06063468252,148.39777850751,1044.52414831879,-8.81877054740307,909.199626838071,58.952695545758,326.191588337768,-54.0709040506593,1875.46073147849,-224.143615600607
2291.06117211334,-252.695980862917,782.800914962139,20.8625701167274,491.593845028873,-62.8474995767064,20.858323314743,-6.12113951608524,170.395803541862,12.3209603529309,1892.7201516746,45.2928432235415,1230.46858510599,-63.6106769451099,319.486271474025,3.34528084389602,609.265500721099,-6.55423417532028,1663.55760615136,-148.19603020859,1472.19978053054,149.842976059127,1040.1614644364,-7.56280454903961,905.473973893229,61.7410227282687,325.401272127195,-53.8889947362446,1872.14272956631,-223.277389136584
2296.7488309057,-249.692131895606,789.453735065104,19.7455197003325,503.014922353289,-69.0845756858003,12.7861848168504,-2.3577622551183,171.712121944103,12.4651655910315,1910.94619777652,44.3386340341453,1236.72859992002,-63.003276720335,320.61092882036,3.63487576369249,612.091084016894,-7.70889926569315,1671.96832537199,-149.314817838248,1478.03865648726,148.845505275429,1043.38151870223,-7.30028187352811,915.639746384265,60.4278852270055,326.413871455901,-54.1203423465127,1875.62373295527,-223.567550819399
2292.29175781403,-246.492187325889,789.404408813032,20.2642079891733,505.460378383382,-70.4008385589664,19.7923986454482,-6.29004970013465,169.451033639666,12.6427834519165,1898.24840028526,45.361816018761,1236.15819601107,-64.2326033285475,320.617430080409,3.12982582076647,613.464032246672,-8.85599521417848,1660.1109120656,-146.609276329524,1472.64570447206,148.832890100616,1046.95130923992,-10.0730342810337,907.576486379156,64.1301079169574,325.134795221095,-53.7291980358878,1871.53352702744,-222.607073709585
2271.43749557286,-233.037941528247,770.761317759277,26.8719947393927,505.679977453793,-68.9189252467384,17.81817805716,-6.02754723272371,167.791632895901,13.0854136406642,1878.05596968165,49.7527495892765,1223.71731849599,-60.7411607779018,318.132088865128,3.80663682421386,605.971140952044,-6.6682906371639,1650.59046631171,-144.200447670596,1465.64381302931,150.341246908621,1039.8439954216,-8.55753623549575,904.198349967797,63.9373781221693,324.332682578512,-53.9509266652616,1863.64425175811,-221.313377026794
2271.97133714351,-237.500217044946,779.212072514795,23.0084274902246,493.102487626058,-61.7628171971857,13.0305901976506,-1.53325260609803,170.015924897727,12.6828371167954,1888.06484817402,51.9188561773061,1228.01748233202,-60.309356648593,319.052238090795,3.90570275528019,607.629855345461,-6.39320977908613,1656.52012780718,-144.605044706952,1470.57726228893,149.706789190959,1037.93212561628,-8.39806452581531,908.478466740161,62.3331898319931,324.478599056779,-53.6271491244998,1867.16799114258,-222.380268790428
2289.49907232256,-242.960592485852,793.568859480731,21.0497977805159,509.907146869579,-67.877694361859,11.4463210236123,0.788915952788032,171.407116620425,13.0913749168031,1912.52833387307,45.5406226174351,1238.76710583628,-63.1099588170908,321.029277896165,3.84239486081014,613.025917126698,-9.4580419633383,1665.60865101448,-146.547273684291,1472.89337416801,149.523376172457,1043.09919285118,-8.77537862786131,909.726570738793,61.5986837798133,324.700577353528,-53.7013669104721,1869.47238804021,-223.981065768301
2278.32535105428,-245.233868826074,772.979870321667,22.7139947136124,487.833735119904,-57.4413690406748,15.9138512868204,-2.9268410532445,167.122687305976,13.2399573627971,1875.29637406306,50.9366748159094,1224.35351793088,-61.201821164904,316.874867248629,4.39418222456219,603.387946522036,-5.38246592873717,1649.12441598182,-144.761100409181,1460.21421642361,151.708522877033,1033.60982052403,-6.35463257014413,901.47536960327,63.2692653872622,322.534248995993,-53.1633422390414,1856.62243951577,-220.332823006795
2267.91991219766,-234.637460332072,773.377848631231,23.2431377990783,493.751030750326,-62.4222235617298,12.806169472384,-3.2972227143387,168.342014766098,13.2913117278258,1883.16138929404,49.0618382237067,1225.56274774258,-61.0781169442181,317.489034015437,4.25791656816354,603.571251391478,-6.6315616337902,1650.81863932834,-141.079174215469,1461.64485223202,151.803798492504,1033.7654315298,-6.68864994782508,902.749746466622,63.0584023288018,322.176740704789,-53.0384556741625,1858.91121755548,-220.853399354356
2281.31953509821,-237.480209008698,784.106991482143,20.9803070646203,487.465507870313,-60.3460384244881,13.4468577663214,-3.54640146515154,170.457231422655,12.8861121501015,1898.53140408627,49.5743462277528,1227.80038381613,-61.6449693857974,319.597430655009,4.07732605400585,608.661032081721,-7.97457033043685,1663.13151719149,-142.834080875265,1469.93957403384,150.615063501864,1037.58830417276,-7.2827272163948,907.470967003441,62.1259219764551,322.586794846315,-52.8844888382812,1863.88419162819,-221.832399631205
2275.69247057743,-235.10482870806,771.669853915146,22.5430729162838,488.610701874123,-59.9670414300317,11.5136967174927,-2.55628556828852,166.488016696891,13.3358684332996,1871.55098941479,51.9699770694962,1220.83488931115,-60.4112347498379,315.842029609084,4.57672045192889,601.456967050333,-7.54490724928504,1643.34584940308,-138.844880128448,1455.68391722415,153.874820150148,1030.06913157676,-6.74830482802339,897.987992274756,65.0134835118217,320.977147211758,-52.7281702121154,1852.62690174013,-219.418772125202
2266.03276021596,-226.765601962864,769.115638339486,25.3148579055779,482.734389850258,-57.8293075076784,14.1742616578429,-0.326159416781194,166.834303477831,13.3171411024915,1874.66390610266,54.791994850898,1215.27262789487,-58.6027744990077,315.394687813001,4.85633072001471,598.726763545855,-5.64163858947738,1645.2193632158,-140.586323477525,1455.88765686169,153.747416068023,1028.04495495984,-7.80743636388369,897.717047513741,64.1298666053602,320.402538388022,-52.788158438251,1850.57419164496,-219.784299025902
2293.02848038561,-244.04203962306,778.405221141551,24.3359999566726,493.782234621024,-67.3974063666633,17.5363713060396,-3.49742525581198,168.780381823724,13.6219594703292,1894.32040414302,52.2927983411925,1226.99962682366,-61.508382956846,317.538257882751,4.52168923226982,601.870540947802,-6.51513043439084,1661.57857684502,-143.22374131192,1464.41545006053,152.017383348559,1032.55557428798,-7.14760505806994,903.633098270202,62.3875832786677,320.721267402384,-52.8140247099137,1856.50123655363,-220.348778040419
2290.59067590457,-243.620639373492,775.285392666752,23.1735940626063,494.951859998214,-65.633921969906,12.6437284180906,-4.04922450820038,166.863161049171,13.449565975419,1882.59970577973,52.5614915465097,1218.96104043188,-59.2142079505089,316.369634682817,4.41161409423863,598.758030781134,-4.39635396724868,1653.49006016903,-141.333071575904,1457.95023565905,153.394328240116,1026.79983873278,-6.49941526830182,898.782755296483,63.3394236186184,320.241161132805,-52.8729902292043,1847.2805036114,-218.05665241114
2287.4242633518,-242.682839925562,768.017826692969,27.1475383692449,481.990804153333,-58.179711162306,16.5378865748982,-3.39081585292219,166.141935373431,13.7112341164511,1876.17640271571,54.0101075397235,1214.44204412173,-57.6032011301868,315.356750130822,4.76817740873244,595.125242213426,-5.77456787555577,1648.74580319556,-140.841857564694,1456.78845576203,152.496787861682,1024.05710328085,-6.07296733196115,894.36014889753,64.0420604525299,319.275386604959,-52.2929994293583,1844.97645189961,-217.951610519606
2308.54100784185,-253.626875317501,773.55598993681,27.7347482756704,491.635393074087,-65.6885113002056,17.970993554173,-5.96278084667603,168.910362421435,13.4204622568444,1888.40733255063,58.922023508609,1225.07233435063,-61.5593163416231,317.446268013206,4.81898111138784,601.169758563423,-7.68890353503531,1663.24386258098,-142.119090208859,1463.91384715735,152.486738806508,1025.85704961326,-5.09205206929337,900.354006928241,64.7550143202018,319.390167805991,-52.3882069669462,1853.23507717521,-220.221990026767
2314.53471750503,-249.298401623991,777.973656077859,25.9657276240101,493.586243108685,-67.0695908401681,25.2335268990715,-8.84145430293674,167.544674924779,13.6047677217715,1896.91427120847,51.9502421815338,1226.04706148631,-60.5347587324975,317.962342643982,4.5839989309354,599.722791746013,-6.17623312804881,1662.4969867461,-142.275173933783,1463.42918783064,153.187101457752,1028.90706648384,-7.12805067731512,901.067847780305,62.6462015623354,318.911955920438,-52.1360226378386,1851.67971961618,-219.54847258462
2310.41770130417,-251.492328096328,771.704733279202,23.176419560838,483.449182085013,-60.4537960314886,19.8637603620793,-7.25950942118727,166.755055850945,13.4866450629778,1882.44048577781,55.0134678313487,1221.28796613295,-62.4393348128645,316.214278681735,4.61007265962414,595.654613265843,-5.70654715617461,1654.84268674914,-139.147067807355,1460.92906241126,153.273956600521,1019.01316343704,-5.61227225386095,896.354949298759,64.8725040653222,318.670773347773,-52.3464635447661,1846.71840382217,-218.726591218458
2299.74359092508,-240.393745864861,777.89907405886,25.1001012335156,487.580277820649,-59.1627896676623,10.7299233425863,1.25693873177076,169.118125483918,13.2784027164328,1903.99219747595,51.8282332245623,1223.53181004029,-61.7210259844464,317.901624859828,4.67194502230987,597.663165802932,-5.54827422276615,1669.4879328452,-144.183335536539,1470.90888571055,151.389863725755,1027.21874519058,-5.39293881757002,905.347136611447,61.6930227927093,319.152188663451,-52.3702330807713,1853.25793858816,-219.323927981835
2322.08060445838,-254.488080854065,787.817802327218,21.1899690031025,502.161213222174,-67.1792421437773,17.8675737827999,-2.72432150169735,170.387732405341,12.7149773670172,1912.9576260017,51.5459240305451,1236.68380184194,-65.3501227086505,319.723582390646,4.43342086295151,603.085500712373,-6.30122210591239,1671.0780483435,-145.226603514062,1472.98095018183,151.151440988119,1031.4300084339,-8.68589370375708,903.180892862622,62.2856011457753,319.069520420026,-52.1360748929329,1855.36164189933,-219.226413099377
2320.67079373372,-259.565535064702,770.676446834613,26.0546521937827,487.654383703598,-57.9217674372788,14.6453627398247,-1.6920822889974,167.310971008322,12.7844853119117,1889.34022558943,51.6274356624158,1219.90447429933,-60.6090345452366,317.711003389834,4.19897048920749,590.19352917339,-3.61260312744068,1662.07732809527,-141.938096321913,1467.41994515488,151.157211730413,1022.53550085815,-5.49317225614009,897.467493201817,61.2663073036101,317.419729544913,-51.8459119967703,1849.12321652508,-218.507173609097
2318.35472666479,-256.99833639812,770.080571680241,26.0694734841066,490.88945620628,-67.2429741688135,16.7167258687077,-4.83369373444818,168.415751978879,13.1789787201406,1902.36103004245,52.7299482491189,1219.81387156831,-59.0675869885875,318.251181193799,4.2571103922922,595.020355300241,-6.21666011114361,1668.34022965733,-142.30670181458,1475.4924347275,150.543514155923,1025.45044118077,-7.05453479615597,898.624995186529,63.1190685175013,317.500221326337,-51.6422863360959,1855.3086753338,-220.737966768114
2319.37863927644,-254.837141272249,782.945832958311,23.8660557041284,494.823365628041,-65.6436899948836,15.8361293016356,-5.02420939067489,171.514438242641,12.8682664178239,1922.13311776092,49.7256580820817,1232.87718406304,-63.5440265051016,321.34011638136,3.89078869406496,598.51579977649,-4.87177783700535,1686.44950023475,-148.815409621932,1484.72836591781,149.278501013457,1030.07594264791,-5.62390210485204,907.536071603493,62.579021320014,319.638332884756,-52.5249728565887,1864.50841810948,-221.810378896802
2306.91646816119,-251.686056032728,765.413854823046,28.9609352040011,480.998372836446,-58.0556401849492,11.6973226415312,-1.31323393057686,167.01456437188,12.718295194398,1892.5907436067,49.6077199816028,1218.4853789943,-59.179447240458,317.400714547267,4.32872670835566,593.113577938435,-5.55144624098661,1664.24473851052,-140.679354293465,1472.88994845655,150.38256502138,1019.33860859531,-4.12661862524242,893.846793096503,64.5164733880033,317.449945543065,-51.8932644434442,1852.34733004636,-219.634469904746
2300.90739303361,-250.837541924274,767.593983491627,27.4267567328841,488.032963268247,-64.8653167392221,16.3315681017829,-4.97748733259573,167.688232874845,12.8976879890332,1905.22017910225,46.7213270781962,1218.54960615435,-59.7863375391439,318.458522789845,3.78431325636248,591.363847066168,-4.57659862163539,1672.21294151189,-146.479129034892,1476.60932815027,149.522302025342,1019.21235249079,-4.71893030449795,898.165557156038,60.8489413360456,317.314408649693,-51.7166325825084,1855.7537802681,-221.17715736744
2307.21934448691,-249.761348622829,778.409801271919,23.8771012043533,491.717108342856,-65.1647780595049,15.5101761130759,-4.33104558428855,170.247146646777,12.7399845962179,1923.0468873698,46.9040264333915,1228.22759929054,-62.3022149392205,320.508648702652,3.9645622521021,597.123678620819,-5.59356656354676,1683.4088106898,-149.209878719445,1484.67497208419,148.968594036628,1027.1173541745,-6.77799718262588,901.493410157972,60.2746673173147,319.001432679162,-51.9963621892243,1863.18009449267,-221.767138530065
2322.78704667255,-257.677728006365,774.469519597743,22.4984477177464,492.32330154107,-67.5303550753769,16.7842126559196,-3.963262087485,167.419200311456,12.7921786155431,1909.95067347313,45.8101289250233,1226.28758047345,-63.6197521328551,319.793650691265,3.18582676032812,594.049400450239,-4.53523794997435,1677.16513000481,-148.373945290727,1480.36162510746,148.523231671652,1019.17356880935,-3.25237591120595,896.52396481604,62.8400348195445,318.446083907433,-51.7653962277697,1859.7710152741,-221.29728977244
2294.36403375804,-248.25225334973,765.224433770524,26.8389984940029,477.744461716586,-59.0431505777817,15.3886721133541,-3.28999673025946,166.746275445125,12.8005924749355,1901.17680332015,45.6951539548031,1216.01600784987,-59.8964398822919,317.929803769615,3.91697363269492,591.097281045861,-4.30289723656654,1670.04820247159,-148.126153689536,1477.52919161761,148.269189482576,1019.64556310497,-5.1065723541356,893.88328575434,60.597133024259,318.375015952789,-52.0428138576065,1855.71875391379,-220.413827049936
2297.96387874369,-247.273725515895,777.127144185169,23.8035535080373,488.051939312266,-64.2899716733726,20.2468948320813,-5.47412562429207,168.965463033788,12.5039897896053,1914.16197559195,45.2093183991953,1224.41898573576,-61.6216265302242,319.95241546945,3.57953246354098,591.481259166662,-3.86400182063578,1675.9033955083,-148.596982448823,1484.30578594814,147.392518672339,1019.02290750283,-3.8452395975029,900.386497905665,59.6777183920439,319.931331863952,-52.3233652378883,1863.67873213652,-222.07507133712
2311.94272739197,-253.691087560604,787.28881654066,20.7899801895395,489.720589990834,-64.2033732253333,13.2151929091656,-2.35869230899127,171.591191469028,12.3996848698037,1938.44530342453,40.9985426780386,1234.45542214345,-63.8252480706013,322.370707291486,2.88005752825259,599.780976792908,-6.21417227048476,1688.87717911944,-150.645691289774,1493.25367667632,145.858638191679,1033.45263929362,-7.10751913994469,907.288584482269,59.5837645713688,322.074271258089,-52.921030701286,1872.08648883859,-223.65824287287
2297.54462882483,-246.956580430017,771.087043819281,22.9386580764278,483.012634265394,-63.8709272971315,21.2892815611235,-6.65405568157554,166.7237906421,12.5889118556409,1892.82824992056,44.2513336186858,1218.0596551467,-61.3306338401157,318.124589890286,3.54507873869453,591.807611371852,-3.40823715169882,1670.79206148049,-149.167426014911,1478.09610636618,148.97458499964,1021.26389418396,-6.55342217909644,890.700359046071,62.1021712507008,320.959754887458,-52.6665969147871,1861.53893461217,-221.571445567503
2289.1602998075,-244.720508831587,771.732753230822,23.595733921289,484.220362238988,-63.9248477615406,18.6845882324226,-5.1095402299786,167.401236600438,13.0262911265592,1902.87025459286,43.384196928099,1215.51750682489,-58.3795036282079,318.109831819292,4.03118835876236,593.477365645853,-4.80284801668897,1668.00597508193,-148.158534500616,1479.918966628,148.021332434532,1022.66477368324,-5.24547940602309,891.637088200033,62.5604274117621,321.445122884221,-52.7175002195334,1864.4323260904,-223.249454067214
2293.28288588307,-244.753765226028,780.637217093716,21.6571892668943,497.546529714066,-69.199231922686,15.8372218733361,-3.96425500017145,170.248832635662,12.5095037247178,1918.01505450926,45.2353030353787,1226.91876387337,-63.240521490222,321.539677048807,2.76833559802983,599.549940720588,-4.98489932744978,1677.9415016187,-147.731236396707,1485.60305406081,148.319472908716,1027.99658029979,-5.47694199929695,902.448348195636,60.0569308435486,323.527386244543,-53.4817023573219,1872.50027719723,-223.727995290847
2310.1027420556,-254.525234416682,781.388376279003,20.8586538447595,490.23240526203,-59.7296323669431,12.8126404750761,-3.01897839025993,167.959995426797,12.4562108819078,1908.04079936546,43.1207122382757,1227.35804859916,-63.1633545996736,320.853218517543,2.71199871978766,600.081547186353,-5.80705433663028,1672.98450686447,-149.136099326994,1481.24374496869,147.418757833886,1030.87535560404,-6.02612109816786,892.339070071219,63.4131070385463,324.015614224824,-53.3327952453599,1868.92943158111,-222.355015827542
2279.397041847,-244.872498054867,771.111551484003,24.5965446546119,484.789626366108,-58.9545207438302,14.3655466845661,-4.81182228824377,165.90847453343,13.2293416235308,1891.24867560716,46.3998361042466,1223.52564585702,-63.2593128545658,317.848176192265,3.65542689905539,596.934320272318,-6.23381500828191,1664.07023241773,-146.190470276727,1476.59430555181,148.648353819382,1025.84552833476,-5.73027073715374,890.631402659761,63.0959195979461,324.168917439671,-53.5640822023936,1869.93768254154,-224.7233050845
2279.27310933164,-239.577251964068,774.216593145446,22.8877508459355,488.878078395459,-62.4402154501009,15.9925779739263,-5.68413264403035,168.657444659538,12.4401252682151,1908.15405761445,42.7149179741978,1224.07212821592,-61.5488550528987,319.512766261252,3.37509395875651,601.160183194843,-6.65343265238361,1669.79330769116,-148.438147633597,1482.77830817927,146.845589552507,1030.74313877751,-6.94132335958683,897.488202739822,60.2512084313134,325.482283759715,-53.6609186681284,1874.39798232196,-225.226943418077
2303.0862861021,-254.910737090879,784.660492750559,22.6592382799155,501.120776727503,-69.7914581970785,18.0858365935789,-4.95200235983797,170.801407150305,12.5546780494152,1923.68007352421,42.7684225837738,1235.78994588379,-64.6114702880456,321.671040655656,3.22542769684765,607.381798077127,-7.73541114620994,1677.91075557445,-148.453319489694,1489.41011735669,145.86224601928,1032.50477934577,-4.76510038174187,898.405412250802,60.0805007555428,327.409918995938,-54.1759927777395,1878.73136208337,-225.086493891927
2277.17843031374,-242.037025546443,764.652468471609,26.3592757970567,491.807774191246,-66.1527954655973,14.4065802038977,-2.53625776680747,167.03303075568,12.747009293369,1888.93167084421,45.4509959982659,1219.44851290369,-61.4734424363798,317.739081437207,3.81998355639612,604.366529015384,-8.54490438058331,1660.9240755547,-146.139314595768,1475.24462159567,148.385177496271,1026.22323352859,-5.05104856965216,892.657474139183,61.3401651929556,326.574891404468,-54.2261119450296,1872.77285029819,-224.485330804208
2280.7121845323,-244.843596756351,772.386266097489,24.4140645982373,488.738001730221,-63.2018143574504,14.0478118881912,-4.86066315870939,166.972751211808,13.2552487297125,1897.82118424212,46.1899295730876,1226.03633805068,-63.314389789701,319.079343189714,3.23594973500435,603.15102129728,-5.55383402067706,1664.98232571815,-146.179027284838,1478.93512720523,147.800367899958,1027.82298709182,-4.47330237732485,894.992219504485,61.6069042349738,327.624949169195,-54.3189216580835,1874.96656004748,-224.809719408467
2296.57869921261,-248.513107386086,783.009828594491,20.9769522669602,489.571946413782,-64.0420307325439,13.2573622744286,-1.1209387712732,170.278392184161,12.656985807989,1919.34175293452,41.7557876238833,1235.71792639885,-64.7146444781589,321.1757170072,2.99739171241126,608.342158805332,-6.71461159614754,1675.44496240849,-147.124909853898,1486.5240113672,146.251899167363,1040.29349622184,-9.96336068883837,901.155966632181,61.5243013492962,329.648485654266,-54.8836636127121,1883.91888523662,-226.96882589783
2279.49855088393,-234.954233571893,777.298882762209,19.6105399625484,481.874260031535,-57.2646803355266,17.4797397912008,-5.68637824307122,167.282055484674,12.6243479991029,1895.80066939916,41.6892286926238,1228.24106725743,-65.6041999569999,319.11918814932,3.19865323008647,607.972854924874,-7.59912767963526,1662.81985103241,-147.15272464374,1477.00388319681,146.959959263743,1034.95600659073,-7.32200616271697,896.44512135659,59.2853579705393,329.18902977057,-54.7140046964389,1878.55510980399,-225.897087137612
2276.1789153844,-239.499656618916,774.582940702448,20.5074074814075,490.128266792335,-64.748321867222,13.5430797716636,-2.49835304705502,166.424975637014,12.8244974173661,1883.84254237616,49.855075185408,1224.89464567244,-63.7331070988926,316.701062180173,4.11135956689457,601.777526341212,-5.56020798988643,1656.86846036691,-144.498459464583,1474.83138504739,147.385298676686,1027.92293827773,-5.47014210576556,896.834710854803,59.326946721458,328.699801602901,-54.7426417322668,1875.16091928578,-225.39666128915
2300.46890226941,-257.105019971621,778.449956776964,22.9621906021183,491.694257330223,-62.8822633137349,19.6892714412288,-6.20011242159114,169.374045498633,12.5062776743992,1902.38818947993,46.1820833392875,1228.08834086171,-62.1068281525598,320.0314913828,3.35194324291681,609.916473354063,-7.52874654766616,1665.5593882783,-147.23368506147,1481.19143592771,145.967373313679,1038.90867950255,-9.78204095706994,901.669603927151,59.0976030465754,329.960299845317,-54.9247482474539,1880.65987841937,-225.11255513629
2289.09383102935,-242.214838605834,786.639540511991,21.7272507470279,498.628141234671,-66.7027957009804,12.8896462033237,-1.59501951495402,170.946428746336,12.2079743235494,1929.93583340806,39.4192087889089,1238.33220702647,-67.0131759851203,321.944425795283,3.04780906634365,613.776451415279,-8.06062917742728,1673.34668157491,-149.190636524986,1483.28202784675,146.194503343038,1042.8818667083,-8.19214611045671,903.634586177117,60.420315293531,330.719418196959,-54.7850902871773,1882.18252461763,-226.171184899142
2268.18666805852,-234.38447765253,769.261215589879,25.062357380712,486.179628081284,-60.1604374094287,19.5376150136992,-2.40993742216989,166.490501946622,12.6600327294923,1880.10334977429,48.6398933068677,1222.68885964227,-61.9434110591091,317.45177513719,3.63175072586375,608.836838194042,-8.40190592504576,1655.77226771794,-145.858025806322,1469.92458296075,148.212888593836,1033.25262581632,-7.1272991145207,897.295948412717,61.8360281237067,329.135681499729,-54.6614901929526,1875.93042602846,-225.258924681103
2284.81193386014,-250.004505740152,773.202877063374,22.5768220991733,486.860592653804,-61.2951145459239,15.4110910341673,-4.29840197618028,167.912111847071,12.7297632866739,1896.53777300853,44.0078715990122,1225.50569936263,-62.5476839510104,318.382682389279,3.71847119902811,609.091249239795,-6.97407845323927,1661.24669108338,-147.617853888957,1473.24911771158,147.278998547049,1035.90718065138,-7.95127898363466,900.829525764175,60.9281173704594,329.559613039081,-55.124122894001,1876.35155698714,-225.393277096571
2287.94965040832,-241.389167188613,780.532727812632,24.2368097876305,501.493727811721,-71.1050268592737,11.8356552284555,-1.9097713399209,170.990761034766,12.1898953967237,1904.09239480949,48.0323314451441,1235.95919592876,-67.0686895110623,320.632354504544,3.21956281548478,616.145007430932,-9.56737653097864,1668.15211266315,-146.495635912302,1480.11873945076,146.658303253628,1047.03378976959,-11.0451805473167,909.440331231834,59.2314353647087,330.702370830931,-55.1851310276015,1886.52372473268,-227.200677341235
2288.83635555674,-242.485765710248,772.84950212781,25.7186197902361,492.245143551489,-64.167531095681,15.9030708976813,-3.66208177967686,167.723216009036,12.4257597529209,1885.93971479935,45.7164607407136,1231.41317576375,-65.7689293885361,318.913399705925,3.43259219202476,612.413082838743,-8.44330486788919,1660.3666338075,-147.809732327505,1470.60853529861,146.901687353883,1040.14854451787,-8.81014319810793,904.840499759113,58.2564753344949,330.152246909219,-54.9441283555406,1878.22382910742,-225.02962731144
2270.34222058492,-233.558833251199,777.665072471971,21.0854418825486,492.078075300047,-62.270549524346,13.4943129976279,-0.0361570736932154,168.149294406641,12.1738859753091,1883.66585523984,46.8488721006694,1227.26073840085,-64.4805315310609,318.04422858242,3.66926541775966,612.055971387286,-7.68624678804092,1657.15704571569,-145.847391445366,1470.65145824929,147.391847273281,1037.85558519897,-6.80201073875221,903.922168672616,59.1891890680106,329.764206544973,-54.8765510100893,1881.94650360846,-226.557857244979
2294.28276144268,-246.103931379983,778.924217443686,21.9629419365429,498.206851722893,-68.5846570703866,14.9689755921317,-4.86343322261242,169.777676377402,12.1696590355197,1901.7810643544,46.7185798914806,1238.16812245795,-67.051542524727,320.581193517826,3.23831054119562,615.125297185622,-6.83514593666776,1662.3732630317,-143.952768495785,1476.36577435214,145.443352402804,1045.20913416887,-7.75757783808082,910.877105044866,56.7922951266705,330.109621576568,-54.9834848396648,1888.72592551777,-227.123164583481
2306.74941865576,-247.417240474924,786.785133437441,22.3853761273991,508.866484843578,-74.7747055124293,17.0640219506487,-4.95805326895496,171.285197977681,12.3122996382538,1923.98770138025,42.6811247339802,1241.99559767631,-65.8208159181789,322.22599920359,2.98791250795933,622.100245314064,-10.3675521221833,1669.56986508998,-148.519297498167,1479.66404309003,144.977957491117,1051.78767453059,-10.781982965083,909.541878029542,58.8187578662233,331.089866721978,-55.125922584331,1892.83064265279,-229.402033140143
2281.88058997421,-239.563872218031,778.382834730389,19.0144828705607,499.736319041928,-69.7028414863132,12.2691393343867,0.499760707043661,167.925136547588,12.1919054490694,1884.44386495758,48.7349542201268,1232.49291590654,-66.4024600648372,318.519422554254,3.25676215600767,614.113617162287,-7.76024315700727,1655.80472117324,-147.154865107777,1467.06453860841,146.864341209623,1045.94339415885,-9.49013859207664,904.239282033954,60.0025534843137,329.982654431565,-54.9636761153881,1887.8944691571,-227.979076035702
2279.49510320313,-238.995494948129,777.972112372452,20.6149400076187,498.236956116382,-66.7521713768504,20.1074453594964,-4.90219551617739,169.386648544156,12.1626433813915,1896.49309214717,47.7292991541984,1234.9801980199,-65.4066143947002,319.618176623262,3.47050477692834,615.955350588589,-8.92127858189622,1659.7605908208,-146.582009408534,1473.83794477801,145.589721737867,1046.61877377826,-8.22176243390051,911.624413060203,56.6514169630668,330.104541690892,-55.1413353488023,1891.09048932105,-227.598568107481
2306.86622236874,-252.740190607191,789.157010136473,19.6634653736943,502.093967361945,-65.8993271636961,12.2010998813687,-2.81250044390722,171.477909413406,12.1858958793401,1920.88449955194,42.8090509716386,1245.32639148269,-68.0244100914535,322.641283814427,2.67653352320957,621.362953983472,-9.31814710826515,1672.30345943714,-146.734547843071,1480.68345715956,145.15935265733,1057.15754732358,-11.7634112818425,921.040300314448,54.2147399159892,331.590977635875,-55.750782158662,1902.38750800265,-230.569804833731
2295.44238884426,-249.075665667913,777.619066676539,20.2492414587236,492.199235600517,-59.9512923566849,10.3556508534968,-0.943430827133288,167.459274132655,12.2348909774154,1885.87898850318,44.5610749120405,1230.84918331694,-65.4100027840745,318.671000311103,3.48333374794837,616.018572948372,-7.96460806372167,1654.10663730954,-145.437046064975,1466.89943582784,146.718874002794,1048.61333575484,-12.0739062855116,910.434521525975,57.844517692295,329.344519935761,-54.6406929764761,1895.95376104456,-230.129830482565
2285.50683639908,-240.824352660356,776.278616305155,21.568880324924,503.205913577543,-70.5007343358708,14.7262222564048,-2.3728646195714,168.739450089017,12.309646954068,1891.33557659548,47.4739728541881,1233.03557883992,-65.9726186699084,319.315015445168,3.29194932773274,617.702295417131,-9.11037414207138,1654.64365152578,-146.58352263405,1468.06875770879,146.565914494194,1048.60764197926,-9.98003255131476,909.370053545573,56.54580360045,329.43848324845,-55.1834370916289,1896.96982356983,-229.432639546889
2298.80187505553,-249.028547772006,787.472834868966,17.6880913581451,506.842805724567,-71.0509743297839,17.0699198006929,-3.69244108995093,171.456773887119,11.8178712067364,1911.95485505207,43.1941142279853,1242.95203708786,-67.7330823681452,321.28292120865,3.30817597410176,624.856092554704,-11.404050767816,1665.57678784802,-149.348013824484,1476.76492328967,144.952913095502,1057.66076082944,-12.2161968281059,915.425038287207,57.6785356453233,330.229440429963,-54.9582300770218,1904.03069601155,-230.638929951095
2306.59792375282,-252.658103240851,786.04138585803,16.8275257136816,501.906604207095,-64.1678556341604,8.9177613618867,-0.683820506559042,169.251726084506,12.0696666756179,1900.17652365773,44.2545013607965,1241.10948804066,-66.5843384069579,321.835926771486,2.18796054522266,622.657051963676,-11.1758311551901,1656.65483456541,-146.083367369609,1470.07991078783,146.190261581314,1057.69168020613,-11.7769229560831,918.217785061032,54.8369651547927,329.984358376877,-55.010394969044,1904.11215685637,-232.025896094169
2275.21854909595,-235.655594637217,782.109147568417,19.3174347395963,503.823267995684,-68.0369702652682,16.0995662914542,-2.64525366655475,169.150949879227,11.968365001443,1889.30948950685,46.1287298901915,1237.2779790696,-68.7368375585066,320.329494897795,2.86498684957693,620.877527775576,-8.81076252512897,1652.37691319571,-145.967140306641,1465.98165282036,147.100389721193,1057.15578629613,-12.1172538361853,914.480803871279,57.9419350707866,329.190386169737,-55.2160066343428,1904.57144601777,-231.967307054487
2288.78231064198,-242.465915070932,790.112186558273,17.7608840777081,507.612381075339,-68.0690070875123,15.1202981666678,-3.36041164349563,172.165646458792,11.6475285539772,1906.64154033496,48.3676943329633,1248.31554771048,-68.8426244516839,322.317480951451,2.94984580685695,625.809198978154,-10.5208951286486,1663.71169954006,-148.244921924295,1474.70055314298,146.401899402946,1061.41993619258,-10.2935748421566,923.927976392386,55.1166430300932,330.00812981024,-55.1460942948875,1911.02178464931,-232.126370686817
2290.34800104608,-236.082310305357,795.855264754022,17.0072310265642,508.215320748217,-67.8249664409638,15.2323123884225,-5.36560929025446,170.764891673958,11.7408323478132,1910.67298955946,42.3154130123558,1250.98012083238,-71.0428706448213,322.250681576624,3.18696291033295,629.866765727506,-12.7367895316501,1658.62139277249,-147.292209704344,1474.87446378825,144.916666684167,1063.41289394087,-10.9316379065227,921.004315389807,57.5154921618295,330.486032980161,-55.4427495754707,1914.44782672859,-233.267069438058
2289.26298019978,-244.349777137931,784.447976474277,18.4443612239707,506.724264641266,-67.5689376596088,12.2323410794154,-1.45142112121705,169.196595229975,12.2599237964468,1893.18568607841,45.2362037978997,1245.54286974458,-69.2933811546746,321.069226019347,3.31756263187257,624.986580866286,-10.33559632633,1650.96656963377,-143.883875288054,1469.87757792664,145.797358350075,1065.58687804065,-12.0068986715224,918.507069449053,57.3628481885479,328.956563895063,-54.4914032825739,1915.52024176494,-233.597974849117
2294.3140735051,-248.527809903995,792.517595001452,15.6986340352502,511.62480151289,-68.7963596863205,10.8604209718119,-0.275768028916313,172.01560845168,11.5739093045436,1905.55146558319,46.1449096204986,1251.30893729121,-69.5303950146345,323.841429375992,2.17976987533164,629.511063758796,-10.9494391518759,1660.11730407248,-147.303185036052,1475.94161192756,145.703928111123,1066.62292540027,-11.768165416448,925.124046795029,56.1476641627143,329.957318661085,-55.0863654779699,1920.13298696776,-233.268193314264
2300.14323861658,-249.345993053099,789.842943241145,16.2520018594859,509.594857909683,-69.378280093403,15.7499334309839,-3.73856021655382,170.64884861028,11.5144508517581,1896.12373538406,43.6763847908854,1246.81474655267,-69.4112469888986,322.595607521149,2.33748558205047,626.14009079554,-10.3077830118076,1657.24118295725,-146.63259356076,1470.35034946025,145.982582935277,1069.46626818909,-14.9825771996133,919.291763269695,58.2987218577766,329.695850542629,-55.0746130584352,1918.62382728995,-234.17901436051
2287.63699854173,-243.022928718613,787.451362605046,15.2816396648872,507.851609774439,-67.5388564004229,13.2394335895724,-3.26366572918553,169.993617149393,11.8834579429773,1883.52099624467,46.9870385521773,1245.77590121648,-67.9459193173231,321.405774861482,2.86428668871871,628.452096751969,-11.2171007457133,1649.67402661078,-143.5995378979,1470.44292298121,144.815398278125,1067.12239372791,-14.6775399832992,920.670151231975,55.7573475258169,329.048129009968,-55.1048280114847,1918.68630163878,-234.63802640282
2295.17357934273,-246.833256074254,794.106654608848,18.1047327111669,516.211821131878,-74.1087325554431,13.971628631171,-2.87864523393629,172.437152146565,11.6649915932219,1908.49089029955,43.684598342514,1251.98492400317,-70.2106084088049,323.309472826576,2.83256395678825,630.678110265115,-12.5341145435132,1660.94844168715,-145.984432658507,1477.20652397409,144.522001001845,1069.10493622401,-13.8645948390943,926.958922292427,54.3314533854927,330.020882529137,-55.4447041648301,1923.30026032876,-235.391233159354
2294.24220470669,-248.654893495869,787.841512227129,16.1133795627944,517.81674438894,-72.9761297155961,12.8770815646259,-2.67574767428628,170.298508200046,11.3806408570888,1885.44917093901,45.2547217050243,1246.99983689464,-70.0875428251116,321.782480743716,2.71989270156568,628.692975218819,-11.2365709424815,1651.82459956809,-147.119327800224,1469.2834806266,144.976262659674,1070.00314054719,-16.2809556695531,924.144644800631,55.6259788518115,329.14668832616,-54.9646412794209,1916.83209681717,-234.67713173075
2282.82835899752,-242.07577925527,787.209176204607,15.0136559988283,508.306317925816,-70.2153025349248,18.0171369861838,-4.7789749235054,170.756306855256,10.9872085610151,1878.01356226535,46.5847143511701,1239.12851406394,-66.2378903460004,320.960470112129,2.78863179710884,627.099512926204,-11.505866224053,1649.80496681344,-146.144906885276,1465.9817617428,146.41356150635,1066.84349524484,-15.4620855109013,920.966927876061,54.8510674951656,328.341153565883,-54.8201982455122,1915.32886617417,-234.093261738478
2275.19049982495,-236.422663887704,799.181932469644,11.0197791276786,514.685888191029,-71.2049082631645,14.8479056816922,-2.65405817655219,172.501764137292,11.5915076043224,1901.25925282262,44.7461026090002,1251.37010629729,-70.4905488518202,323.560311828394,2.45056627456522,633.029241689387,-15.2562237998258,1657.48081045676,-145.903162145329,1473.59318008574,145.243622034214,1069.95069944082,-15.4924548552713,923.144263271139,58.4255323483072,329.196702777974,-54.9704394175892,1918.63544354519,-234.504428722424
2307.27905072097,-251.942668741944,807.713213027498,12.2264680789568,518.045072686232,-69.3958472488091,10.9846540660292,-1.34807289343631,172.575839282067,11.2169492514706,1905.37077457992,44.6372516693739,1251.91657567392,-68.1507614378868,324.680794676777,2.12806052355294,633.038980927045,-12.9148405417296,1657.09513263233,-147.12702833606,1473.63108146035,144.030722160165,1073.86158893579,-14.8705151875174,926.312569637067,54.4837506857757,329.64269740102,-55.1000771524975,1918.58364487161,-234.28721279762
2277.69859937335,-240.728482491016,789.541038841177,15.4618439149875,513.140540041858,-70.2045517291091,15.6862287987137,-2.81133092788765,170.772759053857,11.0366812076615,1875.14396821736,47.6362480125272,1243.93771713233,-68.3178222044648,321.326357675991,2.48437717516678,629.072955634537,-12.4638050363825,1645.38581747221,-144.790769395293,1466.73838257276,144.565091845699,1069.17445829465,-14.3553984642756,919.572707675144,56.9069824850925,327.652824860741,-54.7416597719536,1909.48314145978,-231.906936624651
2285.65910357058,-247.153156948849,796.181481503598,15.7113200011687,510.564452895241,-67.7919168420272,15.4005943563586,-3.1673153550283,172.962180512897,11.0641589137567,1892.64536893333,44.010986317362,1249.51676117191,-70.3195919078338,322.367996458739,2.7563553243292,634.137843982351,-13.5539902400617,1653.5988229258,-145.540073767515,1470.71545060706,145.314820032162,1070.13024653425,-15.4229594601141,927.619831774196,54.53156640882,328.26312197296,-54.8311696380129,1913.77000035046,-233.170773858079
2292.95808141277,-245.017587990021,809.047635983517,12.5787071053205,525.277333173383,-73.9959258546028,16.0779504924718,-5.0310105432494,175.798448426448,10.7282542888769,1914.41692170304,42.0507566684583,1259.45582480042,-71.6665061893304,325.492568402491,1.69812827819564,638.932455694231,-14.7639302494519,1672.00848388367,-150.289841996236,1480.67745715927,143.116089547124,1080.52458754135,-17.8484150752646,934.167434655287,52.101242087799,330.261181014036,-55.5303135613529,1923.76689906022,-235.133642348296
2295.82047707588,-250.734288697772,800.423156472981,12.1320572390409,514.850742977557,-68.6955690330955,21.3994037839057,-6.79074046105129,172.608843529633,10.731059934833,1888.50697271562,46.4541326493504,1253.55451059418,-70.2497497795001,323.520736023782,1.94893267024823,634.090221503839,-13.2557012238684,1661.63909838848,-152.538225290093,1469.75834682476,145.132404403346,1076.40704343693,-17.2420292994999,930.306139201863,53.4312702679468,329.066030423303,-54.8287176921313,1917.43620480158,-234.589368874993
2280.04608551783,-239.323269360945,795.018604428812,13.6733778536835,514.5892256381,-72.9838392750708,12.7325700290301,-2.32853376207047,172.642574274419,10.8769635295963,1890.33904783392,42.8976220331135,1251.12005655851,-71.398909806167,323.359824193378,1.95596602561271,635.779653584014,-15.1880703072366,1654.76083766296,-146.939770957337,1470.72077435612,144.006090792619,1077.16857607844,-17.1086010737262,924.886123022338,56.6888211669651,328.609925447294,-55.1172277098954,1918.40403221135,-233.997924609221
2288.36789501049,-239.645360368545,808.840079777614,9.22909685160278,511.002246888462,-64.1929430002106,15.5448796558154,-3.29487812335687,174.480181676062,10.8950742032044,1909.44298646213,42.0970662957512,1260.51372985249,-73.0831973884869,325.240056599208,1.67133226210329,638.752466173933,-15.0252935612225,1668.1527309579,-153.075479917568,1478.05669895142,143.117787348348,1076.60512824329,-15.5923043885668,934.56468756633,53.7775884367085,329.459168763442,-55.1984486116264,1924.16584938117,-235.684965400166
2301.19781031823,-253.381522194154,796.241872832724,14.4212688823708,520.308224541449,-72.9712351837279,12.7643456167897,-2.79841942827048,172.490774451712,10.7119972425586,1892.44202174501,44.8391774830807,1257.62835957646,-73.3359353592592,323.060454166028,2.40314042957029,635.92221922455,-14.3499666914813,1659.90139166942,-151.182126547079,1471.36216116791,143.404515866107,1076.72003863672,-15.6327204693941,927.840351261757,53.7801871246974,329.137904692715,-54.8629765051842,1918.95708164715,-234.885937579522
2294.87928157267,-247.593514803113,799.232744263099,9.55967176113068,511.356556515751,-67.6421048389614,19.1661382836564,-6.01031835888657,172.753245070596,10.9114672796758,1891.66941283942,44.0957039625259,1253.49734812334,-71.4906836738527,323.158953819152,1.96134219892949,636.179400047707,-14.4956477644772,1659.42124615279,-149.284698475413,1472.10498800257,144.205623556518,1078.73751758348,-15.7503731671441,930.010169399529,54.405634836304,328.234595375785,-54.7508918163166,1920.73662847623,-235.428693505848
2317.89237576069,-263.994245098315,807.846788032695,10.3387767281434,522.413873843997,-79.3141337506094,15.0366368018608,-3.563812287459,175.806237274427,10.0913235936353,1915.08698118381,40.3828258473899,1262.9149638519,-75.0983979250037,325.368938057891,1.49331189049675,641.56038593361,-16.702904853373,1670.560809998,-152.859755843798,1479.91059870216,143.483427071877,1083.52007078643,-17.2018904720204,935.916079798573,52.6481515979928,330.046428576606,-55.3004197624575,1925.11795002654,-235.398701536612
2281.7493055354,-235.176627382614,797.855808683949,9.88161519274017,518.616711630965,-70.9295102837941,15.9209308440731,-4.06242379000445,172.033572951558,10.6567801599182,1891.2241840645,40.5502207919455,1258.1888047978,-74.5573086171221,321.899310030893,2.35918787498812,636.729379785459,-14.6651226088206,1656.28412518923,-150.558002404895,1470.02795338725,144.075516973251,1079.91796216537,-17.8476989242427,930.721637227335,54.4976543122793,328.967154634086,-54.8457967098168,1916.22871202632,-233.332675449836
2297.73061606401,-257.838364831884,794.196642449632,14.1582913556812,517.904847179066,-72.156541739486,15.60891498531,-3.48708391196652,173.285400893604,10.399261611969,1893.06589940286,40.9825109011288,1252.43787201999,-69.7205095717656,323.471266728826,1.7186567097989,637.421821579265,-15.7101555143138,1654.15155846781,-147.746004356838,1469.91494463549,144.474229097053,1081.91645285729,-18.2279876151757,928.939865190522,53.4076808697578,327.785505901235,-54.4844617531764,1914.65994792542,-234.366262546575
2314.86121728796,-261.713491229212,803.595219745526,10.4316445333394,525.097429512569,-72.9753827355017,7.40024155565602,1.42825828986488,175.087704880273,10.5537745493431,1912.38608450216,40.4049936280007,1262.28658352745,-72.3601606793118,325.007341046674,1.68408600286895,641.195208259609,-15.8453988171892,1665.73117314929,-151.738887319305,1476.3433403853,144.187699097765,1086.44117081189,-19.9886980203217,935.2846810167,53.0402897409276,328.588817406319,-54.8413416519882,1921.39348141583,-235.517171310802
2305.90928283635,-262.509665152502,794.391790367891,12.0173179929609,515.456060271828,-69.7861914249903,23.5164290558176,-6.91232266226844,171.828225996237,10.3798412392782,1892.94208824094,35.5011486024829,1252.15229783657,-73.8574028822814,322.485519161064,1.79411919666624,637.762043059964,-16.6587629999235,1647.23864673385,-147.124068334053,1466.00688478737,144.547819139757,1076.16048332193,-16.4290066660046,924.402030446533,56.2362953066481,326.972534432333,-54.4895460494318,1908.49738049769,-232.890634027981
