2261.77459086583,-236.859481317797,766.950045180323,23.6789254713133,494.131914479853,-72.0259597870002,14.3930997208397,-4.07288272686833,167.033214482969,13.2543561641117,1868.66801696303,45.8199883512988,1199.45142482045,-53.6292504787438,318.75002084652,3.74801225358259,603.537618253086,-10.4053390351118,1607.36608090117,-134.267549971346,1425.02785643668,160.327510622214,1013.12963592292,-5.93603500714975,893.331451443779,62.8500785934115,314.57894035595,-50.9673178588685,1778.81912967523,-204.12815006322
2281.64662464979,-249.694001529527,778.407355781673,23.820012545051,493.595713408144,-65.5737692418478,17.4351199542022,-2.63039610938545,169.987284789923,12.711909473397,1891.45680399504,41.7857995002393,1207.99264344671,-55.3676736106351,320.946923171268,3.36744606264428,608.995935082488,-11.334257600939,1625.74143725474,-137.618416888336,1434.30178838876,159.921655488632,1016.98300261802,-4.59956659322447,898.04545935596,62.880312104243,315.843470850273,-51.0729216718779,1787.43250376804,-205.303733548995
2265.34551062125,-240.407955216903,762.814577653253,24.9134024159879,493.890728109653,-66.7281180345561,10.8197039273637,-2.84644826549253,166.078476868376,12.9321009240743,1866.80101607256,39.624540951651,1197.96558685683,-52.1715114053552,317.751295775125,4.00773980038116,603.497113555973,-9.36982731561197,1602.67798592517,-134.75594627543,1422.67623137618,160.326877373426,1009.56228227343,-3.18261867723716,889.064035927198,64.7028096716762,314.200199326943,-50.7758128917265,1775.32343561189,-203.242922403369
2257.33588728149,-235.782384242497,760.450801705234,23.4077748454482,483.41420734798,-63.8101377820826,20.3641567812567,-6.51058941963018,165.922449744159,13.1672818586258,1858.79211268581,47.4522151525033,1195.33470996304,-53.554787372397,317.007638292321,4.32570402984997,599.930345450402,-9.44209528101297,1600.20044991778,-132.464869315424,1422.45774423788,160.943251177913,1008.11730955987,-4.75788075455456,887.98269178286,63.4093090432486,313.585016487827,-50.666619029324,1772.15635849995,-204.016984736515
2263.86309103391,-238.078187976684,767.244123616345,24.0322024774204,498.999942831925,-67.719565174964,13.0169574594284,-2.99736928338934,168.323687198471,12.7231805432165,1880.42708624465,42.0553966751597,1201.21053645127,-53.9437581378433,319.14227881564,3.95804992878046,605.793715357226,-10.4180467780989,1613.17758033137,-135.366561800741,1427.36663819747,160.528124386569,1014.12002523453,-5.21868081814478,895.210083286546,63.3957067730118,314.460149870369,-50.6026948748381,1775.93925010862,-204.24700243993
2284.01969426949,-249.676438179745,774.847852909182,22.4008397823973,497.86850126908,-67.1401058860677,11.8249260457308,-1.40153623855333,167.55672320586,12.8154482375137,1880.48352036144,39.913475122521,1204.12916118624,-55.4912033660427,319.38587070812,4.00055636931752,604.059595950212,-8.89308426599403,1610.8398923909,-136.811764490818,1424.64437163438,160.142973427201,1015.37068015443,-6.5476265217714,889.878311459054,63.6997607449664,313.90624995822,-50.3525842642631,1772.80429447352,-203.508293297569
2257.6884288097,-236.598799109222,759.145297753073,25.1474452093812,485.016706160954,-65.9140624188276,14.9445746474072,-3.78429620372215,165.927376386883,13.0389273080272,1858.82538512152,44.6372901543617,1192.60365246813,-52.5264779045673,316.985082430376,4.07689237371612,598.280215715075,-7.72262536421976,1601.05790704137,-134.811772181779,1416.95852149844,160.820850035347,1003.03214537611,-2.20969022739193,881.401919600843,66.7448627264926,313.15434231814,-50.4361398489559,1765.46110798436,-202.506299775923
2256.77766018065,-236.382830382225,763.97770918602,24.6391654940989,488.97205812751,-66.4507759488774,20.1945180934917,-6.70827183581595,167.291075792271,13.2868658314393,1877.9983153128,40.4015286962617,1198.28188772393,-54.9771608800091,318.221496143535,4.2615253115151,600.00110178107,-9.00803058627897,1609.846286035,-136.388050774828,1423.27445204874,160.306258409096,1006.48809826795,-2.07724686550174,891.105231113622,62.2434486547121,313.507286711619,-50.5071563883198,1767.82811060199,-202.914729910412
2271.58482674636,-244.024900473112,775.905797645729,22.0719436312013,486.57692520901,-63.3524785344053,18.4590796263478,-5.72478540572055,170.378796447983,12.7348310351883,1899.0826534737,37.581821510769,1204.74481222466,-55.3410700075639,321.136638249456,3.28921737279307,604.937033434295,-10.8982203367723,1626.02585186671,-141.809571658767,1431.99648603908,159.432020078331,1013.83628289175,-7.27518700851431,900.929491207335,60.3307179968737,314.725416169014,-50.6568806082142,1775.30504232031,-204.405565009539
2256.46151583722,-239.548922362085,761.94360291862,24.5394342432783,492.930191438827,-69.0455069187629,15.8489196804438,-2.8493998502549,165.690008418408,13.1689759823841,1868.09359952311,37.8164683301708,1196.69177590015,-54.4470207649755,316.801388266101,4.23926350558604,600.440299770252,-10.6014529742373,1596.02834141786,-135.712098574812,1413.40542434239,162.206004316678,1004.47240020422,-2.4286612137764,889.908432480162,60.9783008927438,312.801387305679,-50.0588260309895,1758.74765033919,-201.157989051327
2236.74259914471,-230.270285786913,753.834450378188,25.863483786991,484.385474548257,-64.5452218123424,14.9045307267769,-3.30404503365653,164.584281062796,13.6461749540143,1851.1091851168,44.3186442900411,1185.46605829297,-50.5562344618259,315.820337378915,4.50180285529249,594.958853351975,-7.74558422513634,1589.72587042814,-134.583842798143,1411.63144077148,160.739007426817,1001.27721688436,-4.3263270655382,880.173411001174,66.4101961692445,312.305579226307,-50.2857419115961,1754.06918181908,-200.116884817196
2243.05394129736,-230.023061687241,760.23547174026,24.6837381252273,485.789418182378,-67.2764732889559,13.390261212956,-1.84150624086696,167.38131719911,12.7667517515989,1872.29761475322,37.7977652674935,1191.93268131648,-51.2301609056204,317.578569639351,3.9072339122215,600.422932816554,-9.3088177057946,1595.5794040951,-134.127491368404,1414.4847257367,161.334828972836,1003.1247163362,-4.24403927173043,886.041309571451,63.7024215168779,311.736096938361,-49.5307229845408,1758.40582507529,-201.993475691305
2262.96612078311,-239.05043704889,772.563748892042,21.0396459262435,488.537247284493,-61.9260373471339,16.8740169688301,-3.77155104477467,169.045462043524,13.049472434753,1897.77114813484,34.2362005033249,1201.38171718118,-57.2788633361638,319.499610425359,3.95107872014784,604.50525415346,-8.82548068112008,1615.7165876737,-138.243968509947,1425.00057315937,160.501299721183,1009.10333349148,-5.05255127863187,893.900422688877,61.1628492047607,313.548030724017,-50.1614139785583,1763.37495507258,-202.484192888645
2230.2329612423,-227.690207923386,754.219137702678,24.6630079862354,489.400710913288,-68.4337254303973,11.3131669894811,-3.75020213918302,163.529596303416,13.5249307206772,1839.51723818628,46.7397186262775,1188.14490258055,-56.303790793439,314.578319154186,4.68029731218468,594.950124392284,-9.47999016571294,1577.08503611877,-129.762940385115,1402.41444832082,162.895407560503,997.343213688057,-5.00969178550436,878.890600159284,65.2857763459135,311.016364501658,-49.5741877144096,1745.90801973421,-199.656315142891
2211.98057449061,-217.033125596845,748.337071028386,26.7018995192531,478.672229133062,-61.7280786650071,15.1032730537369,-4.30902361902056,164.264930330119,13.4527537371939,1839.22901948982,45.1256370692319,1178.94099101761,-51.4656843275232,314.539145121462,4.56142985463248,593.629829907487,-9.63624370628691,1575.96340546424,-130.263702248607,1400.39735270448,163.954183543171,989.498003082388,-2.35190682187317,879.622732851861,64.7059263299102,310.832644853048,-50.0026841530428,1741.74291273112,-198.120154059539
2228.55542714891,-228.743786071168,757.832575942192,24.4588488585035,475.162460499842,-58.6564604799098,14.4702568746862,-2.96781516458323,166.031663951777,13.5309354802879,1856.60204663574,44.1017557268648,1181.96745617478,-50.4408624548144,315.642339264689,4.76391545127985,595.078528181604,-8.10093728467075,1584.04042389161,-130.227626972435,1407.77533666543,163.160850283769,994.66466416926,-2.72599824432029,882.224119651473,64.5902621693329,311.475137181101,-50.1883511686114,1748.18613423784,-200.323061806745
2250.33061211136,-236.088463048759,771.744636832281,23.0854405570262,486.802690922973,-69.5753818106361,12.7238070785434,-0.838914793776879,169.647739247771,12.714141945625,1877.45623529871,42.6665293023393,1198.04576424838,-56.4699715366281,318.680266173328,4.36410936329921,601.850384901513,-10.8806795207281,1595.41786112639,-131.377239734114,1416.8381727947,162.734726620072,1007.20424589871,-6.04505264833642,888.126553124264,64.6351481656623,312.780116085731,-50.002968445639,1752.50441048509,-200.025023417947
2208.22498809655,-216.011280214353,747.85167511165,26.1034331632158,474.461199736591,-64.326248951217,12.8250760009158,-2.12779905873746,163.736926285912,13.4861578941696,1826.33862698989,50.5127224793434,1180.38739874222,-51.3828663441205,313.873981569991,4.62283505860326,594.235896580395,-10.3072801412997,1564.60995778388,-125.549523849017,1397.24066118003,164.933988467549,986.81371986437,0.331099447630151,876.917736455033,64.5456462607256,309.898271767492,-49.1897152595707,1739.81318357205,-199.048232005059
2222.67808750807,-231.654607075149,749.672486298477,27.5467475084363,472.607455993595,-58.9429698402614,15.5806877091538,-3.49709000880674,164.952371191493,13.345070767327,1826.09977567274,50.1368205743536,1178.65944902182,-50.5925777600991,313.89152876707,4.97850369104413,591.524393551547,-7.85004253101094,1564.92022217729,-125.368664538126,1398.46938549354,165.186267748653,989.06586755712,-2.14482919172769,876.862118985304,65.5529329816158,309.633635839468,-49.2568982034771,1737.19661756901,-197.958236314117
2229.01380299181,-224.741113959204,757.7989445964,26.8051319407778,472.117773946735,-63.0143404762367,8.09863422754282,0.511231371476942,167.599202786695,12.9855455742261,1845.00619059258,50.3063873550566,1183.60698667836,-50.5000872164176,315.849117095599,5.05548251968766,595.496175787731,-9.23268542000279,1580.89023713352,-129.161999569315,1404.92128068097,165.338120670986,993.073157116301,-1.39953386442079,883.589972538957,65.8935691119525,310.102477926276,-49.55272548965,1744.41731206356,-198.842405908986
2252.20570085658,-234.101575628429,762.574101406576,26.7870526040163,489.799059824815,-67.6051336986812,14.4034851342723,-0.67009911175318,165.621130652919,13.3154021484282,1841.83285897775,50.2937307115813,1191.03745142289,-52.9583977026452,315.463111072311,5.20707340623638,597.388146486626,-9.9112813756561,1573.74406246817,-125.25933827349,1401.7472095156,165.637078748854,994.403619122862,-2.96413658161716,884.760610765699,62.5503156627973,311.051604117947,-49.8631005318587,1743.65559644237,-199.134011250723
2215.28264297894,-224.636949743421,749.833159685173,26.8641200508963,475.429031549168,-61.3143810497991,16.1768481537658,-4.28969774095674,164.233293529995,13.6751853562888,1823.20732623285,51.00059474603,1178.93704791417,-51.0498356465647,313.202236987466,5.31657671737264,591.737570417243,-7.71174458912797,1559.9176976924,-122.517222785309,1393.4895018456,166.976999374775,985.734464272322,-0.773076071109509,880.255024631658,62.027712914658,309.410565815603,-49.2112493350848,1736.46021007846,-197.266941764892
2222.20028418867,-223.297857420107,758.152947916427,23.8780102579946,485.927856682357,-69.4739150008617,14.0375064080783,-4.4001793750404,166.591394329732,13.4482907167853,1828.63714831971,55.4325706318351,1187.37254893734,-52.6554543547827,314.809012417434,5.33906690773116,595.512702772359,-9.07071108598531,1572.42155451593,-125.999259070186,1401.27456668775,166.102661213663,992.02740931403,-3.42580381702384,881.56874977311,65.2565499994478,310.223854298743,-49.5639780643247,1741.3303296811,-199.137913257971
2243.38895921432,-230.472166649479,769.333628351304,21.7438500393266,476.210589602164,-59.8185204985291,17.7216038286568,-4.04445343873479,169.025903589645,13.2173807827092,1854.43860095108,51.0211290527124,1197.39012235157,-54.4131471338945,317.22741371392,4.61986067368795,598.972560133309,-8.05963113340908,1585.56236447266,-127.59521362216,1411.49393673669,164.878289302224,993.07369481282,-0.799129137025404,889.592640468623,62.7788601771133,311.738446943262,-49.833942189257,1751.1881307768,-199.986340777554
2227.19408436969,-225.534287440549,750.270989845957,27.6825080535104,478.059916068165,-62.1623328141307,19.0240992973509,-5.43842994284205,163.792992596909,13.8566697828804,1807.40981343082,57.1034209668428,1181.72809657784,-51.2545963072375,312.820179101798,5.44736672720265,592.357984900828,-8.19401557963903,1558.62763062719,-120.233386251983,1392.58094651113,167.884349398307,988.256819324329,-2.78001265407871,880.393566713202,64.3103749307313,309.22955749721,-48.904825773338,1738.93299570575,-198.402108484544
2219.66935563486,-221.233531212553,751.968474696524,27.2968234663607,481.484957103112,-63.8109751663491,17.0385031324822,-5.86181954336375,165.086263908657,13.708196045566,1812.12580848845,59.765245200137,1180.19422314475,-50.6865687906958,312.167012974987,5.63731080551543,591.164620037891,-7.30192222965525,1562.53495397652,-122.124881063388,1392.24564455827,168.139133347417,984.514537268069,-2.0094010340279,879.421003507595,64.395024093436,309.230892453126,-49.2012204005343,1735.61750902673,-197.163523316576
2238.36733777308,-226.11024778589,759.400585157252,24.6611599699099,479.635813682646,-59.8696192695863,17.0851314111982,-5.25371589853328,166.788033646707,13.7672150459195,1827.64097040012,59.0693192406506,1186.61424088219,-53.2264907559574,314.139664620786,5.77669938329065,595.300503527982,-9.02514486037447,1573.50409691429,-123.884238297632,1399.55037917899,167.561817423542,991.07334770663,-1.59355829862677,879.63953719784,66.0560864681894,310.323094150447,-49.4753248085607,1741.8540391933,-198.037015937916
2233.46026103973,-224.742450826324,749.378784081963,26.1163230544276,481.000250460277,-61.5389825080055,14.984549440447,-4.78257326986909,164.425489540351,13.2593746570121,1798.79091220234,65.0095408288674,1182.24594145764,-51.3071933125169,312.019772198048,5.75470501995381,590.911673739327,-7.79908733807412,1553.62889452537,-120.072163634684,1388.24957076779,168.521836521517,985.996649965241,-2.49736171879398,874.747970046311,65.8165993226297,308.802682590139,-49.1861905290454,1735.51587871123,-198.252142356386
2215.42048970528,-220.878002753699,743.409257814548,28.1469889208608,475.060285083836,-58.7347477849517,14.2812553846497,-4.14123463095042,163.193668686169,13.5233424195273,1783.7974524695,65.8140196831299,1170.95883698513,-48.5055625258161,310.003027111218,6.30574854697109,587.265073922919,-7.28997499278915,1550.45559510842,-119.306417827273,1381.08284399843,170.3933021139,974.377424005784,-0.679535874144495,872.027368796612,62.956133114413,307.26492775689,-48.5031987175521,1729.11103594063,-196.722709573174
2226.48525046383,-223.930440053289,746.359785924683,28.4452369131288,476.020140673793,-61.2359845931762,12.1117014739012,-3.47891269382466,165.125520987117,13.5410309571303,1796.21301393525,67.2089129851697,1180.60053955603,-52.5061839152535,310.789444250744,6.50805616923163,591.158019413484,-9.1780335301777,1559.21930015625,-120.51147793722,1388.9683753919,169.728915852322,976.457960987398,1.14799133802844,874.124501402487,64.0254711299121,308.135297838755,-48.9341303057867,1732.4402368948,-197.939326057433
2236.11124392569,-226.2957561793,762.704709022324,23.4140421494651,473.190511952068,-57.4366884375732,20.7677279343551,-7.08550019005362,167.565684087328,13.1348331836016,1817.65993530042,65.4914887592861,1186.56679623425,-52.234326174908,313.574579653479,5.84214027673678,595.279445714287,-8.51044706051994,1565.14438241116,-120.150556200332,1394.36468741787,168.392610592679,981.920590460639,-1.09795637827641,879.293375874819,63.6313950169393,308.448573604793,-48.7385858332325,1734.90185411224,-197.803106996363
2224.88965920344,-231.29529706271,740.996115617909,27.884022949938,475.047388907862,-64.4837123967897,12.4338759155785,-2.40918439924101,162.570952818675,13.8825730409673,1774.48530053126,69.2691037553126,1174.71408846162,-52.5227814214845,308.842218506866,6.63179262119917,586.897936965359,-7.32080189566549,1547.39528277047,-117.21722072303,1378.60541315106,171.045286339598,968.43320242592,0.567017466793511,863.951818703491,68.0425331740028,306.243639276925,-48.5809250598539,1719.6652996196,-194.994739885134
2223.00110759049,-224.740608376095,748.208539199922,24.9705982493611,463.509446018575,-55.0124112012276,14.7275067185309,-3.30678088868148,163.913173201437,13.7786292648674,1782.64807111994,70.135855596021,1172.17767885871,-50.4795839115311,308.645849903364,7.24585120266832,584.932763085926,-7.68696111217647,1556.13342643906,-119.005475564177,1381.12597853919,172.262777724251,972.662818870172,-0.298764749887687,863.130146624509,66.6232475726867,306.248231149788,-48.5316345090587,1720.27395016983,-194.168983733638
2226.62337163471,-219.754792068888,753.377439838135,25.4341825251716,470.535039456335,-59.5960760338749,13.433695053808,-4.00796518034061,166.982260666134,13.1598661950379,1802.79492160914,70.6422466250544,1181.35681697646,-51.657431930972,311.678404221263,6.2829712887367,590.69988354761,-8.38078707415926,1570.3249453653,-121.041741657459,1392.05489763243,169.857149645703,981.275131426791,-3.35093749750655,872.084384600204,66.1460836850052,307.866022479511,-49.0383241643776,1730.76546275347,-197.265286911772
2209.78245029579,-212.817949671798,742.740934882512,28.3181565614599,467.756705574402,-57.9803216362671,20.1032274817984,-6.21271411705615,162.961834866848,13.7351894689242,1775.79525911997,72.5066766627376,1175.61151025915,-51.1518381826037,308.19316977228,7.10717567686901,588.34802443636,-9.21716891431928,1555.58029497832,-119.987437772223,1380.97234357435,170.767596009088,969.231274029939,0.548099456420159,865.429771431982,66.7109193614069,306.174443404579,-48.2999699467605,1720.98323014259,-195.061563105399
2217.00885384222,-219.008920728472,740.911597683396,30.0009954385439,479.251162869594,-69.3912699647612,9.98132211218352,1.58926707829833,162.740820801239,14.1662726794516,1772.7030109616,75.4306631989114,1168.32235862274,-48.0394396224002,307.943813433712,7.44348646816037,584.155596326256,-6.30039703053404,1558.28376090477,-119.623911434929,1380.41066969053,171.546497044306,971.051004361372,-1.74038592249195,864.388492444721,66.9080070397147,304.898269355501,-47.8785885990879,1717.76274051631,-193.974231871568
2229.46990497594,-220.501182584258,749.935983422283,26.9660487100452,480.630012401096,-68.6047632498783,13.2799229097954,-3.12387029366431,165.246086216422,13.6453401098363,1795.32004433341,71.265913171359,1176.51792944488,-50.3114613868995,310.281590178012,6.97191552765497,588.946929660238,-8.50859208410582,1573.51680008844,-122.028056612222,1389.28629279229,171.328031238176,979.446414783174,-3.5426049657982,868.651625706876,67.7792282339254,306.397862915491,-48.4013619369634,1725.02930045567,-194.963546861076
2242.89638201815,-227.39699371542,751.752351842819,24.9429201490395,471.432185125825,-61.6513063589131,13.0076545260773,-3.27471220353054,163.506478831267,13.5491550549804,1783.71446850034,72.0369325357709,1173.32507489603,-48.2661463473926,308.983964904711,7.08380638924174,586.151257786429,-7.30454434016048,1568.84389683948,-123.320064431942,1384.85306229838,171.222217238921,969.390223690938,0.179059835771754,862.20586770789,68.5589778314488,305.470132895652,-48.1584102743033,1719.07178906689,-193.937278869776
2226.3977380783,-224.629704953926,740.909192588486,27.6819733160744,470.194853485371,-59.6411945897811,14.9369037469357,-2.06922490723436,162.587145243937,14.016189861275,1768.47124162825,76.2893483723618,1170.93474074744,-50.876844129554,306.991625074212,7.59818642294421,580.995493506942,-6.47556123891405,1564.9773754868,-122.781888243751,1381.05001656401,171.689516237422,965.970603215158,0.552852549503071,861.281097222554,67.5961742411417,304.668967445082,-48.224563979478,1714.70587716661,-193.527130763221
2247.08885252625,-234.126576067156,745.337506362449,30.6469516903235,460.256359726382,-53.542393328284,10.1449092365867,-1.19835004149447,164.728936250931,13.9104555666409,1791.48737731914,72.0870538873044,1174.17029967986,-48.6736912508068,308.706716539523,7.55049698345197,587.06447540513,-8.73169618662478,1580.59768456319,-128.824579812087,1388.24945255678,171.496260220891,971.478949624104,-2.09451614541001,865.347767855552,66.7614400401763,305.526393429988,-48.2522797082272,1720.30801513584,-194.040483730759
2261.59864231573,-235.313701652466,757.752759654864,27.8194053688033,487.400224138902,-64.1329269199332,7.33436550629709,-0.716416222237993,165.695226708241,13.8615097241797,1808.86976143561,72.3034673746863,1184.454555493,-52.1910066173654,311.284146705096,6.80259858457842,589.996605980492,-8.10885941941904,1581.29033467149,-126.85640970604,1389.53790191707,172.74438398767,974.111010830472,-0.78832146406917,868.565530700246,66.770352028665,306.375683414912,-48.5111262508117,1721.91766840778,-193.877387067018
2235.58038843997,-231.179645387888,742.196707642487,28.2551481774739,476.317899383558,-63.057258086332,19.0584847616657,-4.88920469472415,162.083773555226,14.2231507922345,1769.0101298685,78.4288703860085,1167.12030631259,-50.1776217170532,306.686367373233,7.69209860057617,579.370766181245,-6.52061091046575,1568.61795735243,-123.936342722999,1378.74788693696,173.111768572037,962.387483948773,-0.86091788897147,857.387095795534,69.2393863552131,303.575168377958,-47.4414305675375,1711.33414251465,-192.919659968906
2244.03806332356,-230.439444532044,743.648408990921,28.2437931639704,463.53383900976,-57.9102184084509,15.5128558569886,-1.82667989929891,163.075175975334,14.1812506190413,1784.87597334373,73.4148706349984,1170.72773908882,-49.2947536462672,307.766398482869,7.29043542202032,579.312029875383,-4.83704128697465,1574.35916242673,-123.659649991092,1385.13871359873,172.781874737443,963.960131191649,-0.0205938204287997,859.083984314164,68.1482847526517,304.197529567803,-48.0104894772456,1715.76131777143,-193.628745984023
2248.48196938327,-228.754622464006,753.721483705138,24.6564490690488,476.619643038403,-65.5285902776239,19.9069034360198,-5.5049236634276,165.706642997464,13.6621295400773,1809.72010636485,69.0184341388316,1179.92982961911,-52.6952469769945,310.300567996706,6.83870333452084,585.274308321924,-7.17530747486062,1589.33984544783,-127.526270577662,1393.80718354128,172.959087537562,970.900668893154,-1.095992274732,867.498321932178,67.7322474716656,305.445852690517,-48.1673048378491,1721.1473571229,-193.508813106686
2242.58105876988,-231.791159988638,740.635320878671,26.8454783334923,466.835438272056,-64.9251690921281,12.1263707539577,-3.97067515136628,161.319581603158,14.1800646362081,1775.88053116277,73.0150205910987,1163.56478089494,-47.8509275374018,306.662953178339,7.52834715708311,579.088301140131,-5.89762490702938,1564.83225711281,-120.993536581676,1378.31913751127,174.181759820218,957.94505277979,1.64095841420294,854.920504793092,68.1221045969019,302.57065714251,-47.3667238231831,1705.98816606235,-191.347935996279
2224.04533848486,-221.889264786609,736.438907178005,28.7795191844907,467.009995246827,-63.7843692601737,21.6711633233906,-4.90089001986743,161.901148611042,14.0070258157914,1775.24416593455,77.0704375476492,1162.18090516502,-50.0520082133591,305.820279250969,7.80701425712082,577.596586984957,-6.6121185903189,1570.83716852436,-121.425741509775,1378.89073212829,174.322309982706,953.612617758422,3.31065598141504,851.63011461678,70.8990980647731,301.641898101669,-47.0650470768744,1703.17773392058,-190.11679916306
2226.74387286003,-219.876497484778,748.66803637328,24.6774363804942,475.889316483953,-64.8809518699834,18.3947022166246,-3.56632129486113,163.544846041641,14.2220192599435,1799.92483099362,74.7005431139176,1170.31464164833,-51.3533229155888,308.549395762779,7.30886048497785,582.807314450784,-7.4912730735831,1581.61821193934,-123.384993854671,1388.53926695162,173.810171852842,960.323902657075,2.14633419205794,862.883396552738,65.2569786957312,303.009579007442,-47.3604171309724,1710.55698274637,-190.776162705103
2253.86193633607,-233.563181970702,743.95499271052,27.715179151349,468.840596434151,-60.8497444331191,15.5712076294036,-3.21178775176232,161.474119730161,14.5555267141357,1791.41287055371,72.6166145894654,1163.06295561368,-47.4010187869766,308.000853178023,7.17857419076388,578.558500526832,-5.34731117517184,1573.83625040508,-123.921267520029,1382.91645801716,173.767286380799,959.543033837988,-0.650206386057538,855.723233811998,68.1453935451586,302.28655051846,-47.3117250254235,1704.44896682183,-190.83895797937
2219.29159711122,-220.824979788027,734.157404522541,29.3348736942513,454.690780464994,-56.557371008238,16.7123068128737,-3.98670692827589,160.711763042275,14.525076931982,1785.08459717452,72.1537246388339,1158.87894266096,-47.7430288874191,306.272787541529,7.63585003611089,573.0566407046,-5.41528763681697,1573.04541403326,-123.237195114958,1380.65198424146,175.007821899022,954.269483503267,1.70359996495178,850.779262024674,69.5863122213491,301.101136557234,-47.2545153395088,1700.14796159934,-189.704487961257
2238.45139120832,-223.732565597069,743.284212791384,27.475403564791,462.887547511799,-61.4128728540775,10.8332596827819,-2.09276168438511,162.728474785363,14.5587662327863,1802.74446300938,72.7208644349892,1167.38333847882,-50.672275680015,309.200637515077,6.78361439343896,579.477063838629,-6.54236219798591,1582.79345324748,-125.133002400944,1391.06691592648,173.538157003175,957.005719895091,1.22262789763389,857.843319043473,68.3491874200317,302.591081070988,-47.4176781388547,1707.25965475986,-191.638514084651
2261.73321663903,-231.271815554718,745.471963353604,30.0442590958723,465.816467039873,-60.4433845537749,10.3856725349725,-2.22663727355351,162.690315245124,14.1352795463049,1808.1983434647,69.466093869328,1169.93504039098,-50.5938838978256,310.1488274539,6.63709298704735,577.716915101532,-5.39100168523614,1578.05742244513,-123.602221085923,1390.11073795301,173.643659632263,961.23981125004,-0.0316225045060591,854.951934747215,69.2239369749853,302.258256531106,-47.2501134699011,1705.08561923384,-190.6945424296
2239.54930696106,-224.477854333915,736.724349219243,28.4980898175037,464.298787104224,-56.0898104206751,16.3726122557995,-3.79064494388397,160.533243572766,14.7852416223557,1800.2393118073,67.9829910508932,1158.57341831738,-48.1704074569311,307.571958848506,7.37229074886415,575.864589811218,-6.93923970418529,1579.86380547626,-126.173051124583,1387.9378251627,173.193070451894,956.670253355196,-0.87269813584315,852.684364304049,67.760036824564,300.958896262174,-47.1269942469605,1700.09555604458,-188.93910732501
2244.83679104732,-226.111882499017,741.532952985962,27.3271913413021,465.366633298146,-62.5831044516499,15.5121311932196,-4.38533592903331,162.509515563923,14.4166099127892,1816.3008305099,67.3464444343782,1164.6278277894,-48.1814423857798,310.15167282374,6.81567671974005,577.190083609322,-5.61680379920873,1593.16578302177,-128.967088471114,1397.23854245568,171.794473340498,958.644212054317,1.54210353510453,853.91021823597,71.9513446482654,302.286766866992,-47.16751589527,1707.09006756594,-189.744473065584
2280.03125806569,-242.570045726601,753.507001879054,27.6432816638238,473.512470050609,-61.4266051228302,16.1490046712889,-5.56539448341509,165.059871907891,14.240769486916,1842.09111434025,62.3996379755104,1178.16104189167,-51.1912194430565,312.924395242204,6.43578586944816,584.150905861459,-7.19961544840675,1600.79024945047,-130.265211111309,1404.40257681659,170.602990616661,964.742249908823,0.124619234916599,865.154995390529,67.4950109815941,303.127790637217,-47.1823364353396,1712.12534959278,-192.539514600695
2249.60169587388,-227.043884772947,737.62627831343,28.5789350937357,464.768750838819,-57.3781309057122,22.826893635466,-6.89751256991748,161.732689389067,14.2941823902854,1807.70918548726,63.2972549902778,1161.7646969402,-49.3393329457453,308.854429904839,6.83311070586866,575.725598357026,-5.49918170324106,1585.07655752262,-125.330220589145,1393.12045167986,172.130202567244,953.062483274926,4.31403938879794,854.958710781395,68.6202095729621,301.437722462348,-46.930684610526,1699.83405757848,-188.11520764829
2258.00716416841,-233.074479094982,739.270363590291,31.4824578618162,463.28348384843,-60.6266656811287,13.876254757991,-2.48115132651487,162.794819950314,14.4175888681194,1820.62182294304,63.4720242999214,1162.89296249201,-46.7531674190869,310.486488864915,6.54095487894865,574.218199546704,-4.64881612894128,1593.01978461099,-127.029668993636,1399.18338710835,170.937146316115,960.149254149121,0.137461626657678,859.790756458467,66.8594870946572,302.930671463618,-47.22800458835,1705.58273058979,-190.595115431967
2269.85571887677,-237.877062720073,745.97470134919,31.8942476055245,461.929305944604,-56.0387666420174,16.5442065197369,-1.66511863748436,166.23446750111,13.6921533381309,1840.85317122121,60.8928692414103,1176.95137290212,-53.3829643023785,312.792872674405,5.94718884086841,580.545817659111,-5.09322708504691,1611.26394913488,-133.1817732439,1411.85792007603,168.942866324652,966.278090617835,0.964605225184584,868.080761038087,66.1860845376394,304.690666211235,-47.7423098015741,1714.29504393531,-191.553112056952
2258.5606270554,-236.912290841148,738.387892458483,28.1867824494468,463.523211541065,-56.9218827130154,15.0280278640194,-4.95456994994383,161.687942526138,14.1632501933506,1806.18299112201,63.7604688562234,1163.18310515992,-47.8410063213403,309.983525578359,6.16449672166886,572.982938579022,-4.77101280713105,1584.39625185099,-125.933913669851,1396.59045491224,170.331036761736,956.9954727405,1.78472875227712,860.32818399085,65.7884254572615,302.790872570108,-47.2479277761665,1701.03992217809,-189.037759245919
2253.47126368948,-229.395893978366,745.064104183824,26.4878667819824,470.199559514126,-64.8112252567825,13.7004215778956,-4.18084124238765,163.255940819733,14.0412101739983,1817.33636176267,61.3116789145728,1163.28627457361,-48.5441084482271,310.279689323054,6.52811878895315,575.455158266797,-5.57673237464056,1594.48731232755,-129.258519630252,1401.4494277499,168.765080356709,958.834802983895,0.543478011808993,859.672281228505,67.3813359989619,303.613616606335,-47.5446605062644,1702.16546246278,-188.933148717039
2252.2906798999,-225.084899230953,752.787494903801,27.4257350671642,468.616556160884,-60.5057571833576,8.88122329536602,-1.06136336866962,165.4966609003,13.9546565157457,1840.72511562268,59.9740144999051,1170.73099625293,-49.7042129640213,313.240720221747,5.65221755535045,582.673976779119,-7.85721442230175,1608.22082535072,-130.625280924716,1410.50928285364,167.852056679892,964.887878252606,1.21307900903653,870.507312210974,64.5849988575104,305.399486160613,-47.7994967814061,1713.5069349205,-190.742671074507
2264.94897006265,-238.797272976934,745.615072065662,27.9665569541829,466.855292578025,-57.6416090741665,14.5134176731016,-5.22501080132017,162.97609870778,13.9954899970462,1820.44668329235,59.5351257119444,1167.93788670962,-48.7586710214991,311.353854812492,5.99368094564772,576.504353345106,-4.34614645210344,1595.74218517695,-131.104749399615,1402.71583217559,168.272013478137,961.660026747755,2.11831035685221,863.283330175053,65.9144925268059,305.014205593184,-47.6787153518496,1704.80627110677,-189.116790448076
2255.41468842708,-231.245377065129,740.211064039796,30.0157236029839,470.407258941667,-64.0546460723321,15.7482378037999,-4.36775406233542,162.822672903379,14.11805951425,1812.11033342682,61.7739238140466,1163.26643971876,-48.847859339418,311.167494376408,5.93549255656787,574.890374064054,-5.95708186139262,1592.61363636242,-128.316347467337,1400.05838018395,169.129206862354,956.546686578988,3.31096843823089,861.682737667854,65.6971738733075,304.904180557519,-47.5766378245766,1703.01281919188,-189.170428988068
2261.50209584634,-236.575956082389,748.414937155475,26.7597698921802,479.385859024296,-61.6175808117314,8.67507320690089,-0.206570737934516,165.340767724417,13.8863941991546,1836.1781972993,58.52754468618,1176.78091086652,-52.9317697257483,312.772639095374,6.21686659892876,578.467237863792,-4.77360926097779,1607.34070254537,-133.826107454215,1409.80882238236,166.656228480424,967.73253296428,-0.39957144256248,868.15731441196,65.6431080666042,307.236014509343,-48.2334003781272,1713.15366994895,-190.588379354137
2274.74137155521,-240.989363878864,752.974859415056,27.188909373267,476.786071282465,-60.9721714710154,5.97892824104135,0.898175047091093,164.490098560349,13.5878103221903,1830.58861562961,62.0693243180966,1174.42948400155,-50.3610054636153,313.071639343897,5.8993102675142,582.681529855662,-7.15650948254678,1603.89603776584,-132.65538957618,1405.63662260842,167.81929496445,967.381409913246,1.31200387846168,870.757779519095,61.3076506644256,308.159778305318,-48.4181255578301,1710.28907873033,-190.40164718789
2256.49885060432,-235.336069635893,745.025180396615,29.5020967399251,469.819884630026,-56.1479675912027,12.0161311263059,-2.58491690260826,162.829060921693,14.0732744243468,1819.58126522159,60.2483731230441,1169.01011380453,-52.03333960871,311.402591414796,5.89249432950885,577.529119093874,-5.67588809060628,1595.785400082,-131.450912069802,1401.23594902926,168.047737865664,957.390215537921,3.88632225287129,861.826920930258,63.618433525291,307.980488128203,-48.6381163942772,1705.48777280241,-188.337423431202
2264.46862287659,-239.382356639121,752.580426976621,27.4378704347905,475.569340953072,-62.8998954601586,13.3910392468508,-4.73599617191082,164.969381290733,13.946108357843,1832.60331238053,59.4318775451324,1174.49459243789,-51.129051007494,313.085813454953,5.86697818976401,583.562845865373,-8.16659737765845,1606.26097060179,-133.849347664991,1407.89483263983,168.287272443795,969.286987004941,-0.248938719593704,865.676501351402,66.0168383264716,309.36064078843,-48.7456116550738,1713.99103208315,-189.917069878527
2272.90389990825,-240.191052008546,763.012042140186,26.3455996605471,484.466871273552,-69.381885428449,23.3980161061779,-8.11577495792947,168.631413390728,13.1526823791647,1854.83780577705,58.0515296442491,1180.93915348886,-52.0485890713389,315.658983233096,5.44668580681871,585.061912966601,-7.51065026496407,1622.87016884131,-138.14869403262,1419.52989447914,165.843381015401,974.765798679167,0.465120091526841,875.242136980245,65.839003914864,312.389285262126,-49.7530114899246,1720.97154043604,-190.975023281491
2261.1915270627,-234.147360181028,754.347581077412,26.7337657919337,478.096259274397,-63.7148905293801,10.0995940228949,-2.26404532315724,164.909792910873,13.7040324069369,1818.62087073778,64.0164816856559,1166.79926860628,-47.026230594774,312.360367696729,5.92093309729322,582.068817778924,-7.05064455036635,1604.76397569944,-133.268279973782,1405.29497981117,167.395695158116,968.913196653384,0.144750410953636,860.494362975275,68.835563746134,310.380611575321,-48.5829175963651,1714.81949066483,-190.702280632873
2253.15437675806,-229.403930450938,752.175549507316,29.0770774560996,471.20992041966,-63.7524772095876,17.5413806659977,-4.58693226848312,165.599876309006,13.6779396301786,1833.46551928101,57.3283838942751,1171.96387698398,-49.2661977852849,312.623015181749,6.05766572000206,582.028405685244,-7.49491525007184,1607.73640605097,-134.334859980724,1410.08986198673,166.700878002663,969.664332610967,0.689458252789508,865.194202294021,69.131816442698,311.556795283788,-49.4028009585609,1720.06880383788,-191.347506727619
2267.72406337619,-236.725813567262,764.240772547131,27.1657683841397,474.576383550562,-59.3318950458895,14.9699680857594,-5.25722188092613,167.787255510996,13.7974377904769,1854.79427442807,54.770603825625,1181.40379070498,-51.0294520727516,314.773323392571,5.85669454108338,589.140566530225,-7.77801595200594,1623.85882955068,-137.589461222436,1418.7316944241,166.216302414659,977.911444403875,-0.361308814110072,874.853456766789,64.9997606990781,313.504142360855,-49.8470582179184,1730.56919048462,-192.760719283906
2257.79912698829,-237.345476563563,756.184202963834,25.7582338645638,489.760802437305,-68.1964898849938,10.9113492594662,-1.62205414988908,164.900181505123,13.4544594052367,1827.97879122576,61.0026196607249,1172.0698717132,-48.5031366887487,312.848844487737,5.74037125144214,583.685645569113,-6.53086737353241,1609.13575830995,-135.448525833664,1408.17805307809,167.647220571615,973.616747950056,0.384278556167473,865.960208020116,66.9423618807258,313.175116001161,-49.7219268628062,1724.9130883295,-192.313661551137
2242.20546276934,-219.699794929541,754.082550997328,27.8208410028689,475.728304903762,-58.0979535035626,19.3565749729641,-6.05633293460581,165.419375948015,13.6344653937865,1829.40251248192,62.3099339587544,1178.6802972249,-52.9832513077968,313.360813582268,5.80581503095942,583.805145976226,-7.31540972125723,1607.32081525841,-132.803830824264,1408.5156523808,167.949456602897,971.48792470034,2.04720476757066,869.670971178394,64.9078076121148,313.124725262902,-49.6120720356696,1730.72705199718,-193.836639449928
2273.00634786655,-235.413179198403,766.153488227789,23.9315519766939,486.222626850996,-61.9853354016485,8.04612403584369,-0.128871044109882,167.592351530875,13.5638946050941,1855.27778626866,56.9294641180538,1186.94945287465,-53.9391638855163,316.083888581314,5.19042924157604,591.11028932667,-9.68185440343927,1624.40308512322,-137.866381324112,1416.6834733688,167.366724482947,982.873038020281,-1.47389796168276,877.311266324652,65.0725028904852,315.107467838181,-49.7714811774106,1736.63121217777,-194.569941602025
2256.91732164664,-232.872862350509,755.781955455594,26.1052485514943,479.98285931388,-60.357449972317,14.1634436261097,-3.67888967050806,164.143541435352,13.9451984758154,1821.19205473857,63.1571356394422,1176.91448823552,-52.8648312897477,312.64514759164,5.81408439439011,584.172803605739,-7.44747459174741,1602.75444971727,-133.00901819701,1403.39799857825,168.866025741903,975.594334731079,-0.655727706298337,867.988350727957,66.074079929744,314.583591768516,-49.8433605479144,1732.2323103079,-193.670129277699
2250.34244886742,-229.345086986986,754.882699826536,27.7866411450808,494.788618180428,-71.6414335567304,14.1837519232866,-4.68768810472139,165.531742014683,13.504373043553,1831.12746649238,60.7187135535173,1175.62911347219,-50.5706361856947,313.744879665499,5.55765812816446,584.739053222745,-6.31209839108886,1606.2416253845,-133.912385304123,1407.56487827195,168.068287382796,976.469513782372,-0.439643820892405,869.354265033207,66.6780366344305,315.395007404195,-50.0919616705579,1738.89045345251,-195.990103823475
2278.60318440047,-246.754327217993,762.362967358591,26.4871077267237,486.980186262471,-66.0977097455696,12.0043765110801,-2.66551943354399,166.851628362775,13.8753087999117,1844.75115780902,62.1087464153978,1191.42846071676,-55.895162965228,315.009780936437,5.6288474981042,589.263483360888,-5.94490007990603,1611.61969014336,-134.232523616521,1411.74029251908,167.711866089408,978.762794573519,2.49142233133405,875.775676853645,66.4351307946188,316.273331041113,-50.2032609778004,1740.30753797621,-194.620861540218
2241.22115468923,-227.021492794039,745.66284473328,29.7135326018763,480.649113161212,-64.7211849927642,20.1383497882428,-5.12817765437094,163.129758749564,14.1239734588223,1811.74524045828,63.9705857719828,1176.43015759688,-52.445891836654,311.008693364562,5.87974616848066,586.484621212361,-6.53455701483962,1591.79753890725,-132.200954093319,1396.0953550492,169.587457850482,967.826747651358,2.21007246623049,862.230147560869,68.2000810974232,315.411611933183,-50.3226704000901,1733.20474932546,-194.083627773796
2251.27834390644,-234.883790390322,757.644670874832,24.171857542431,474.402908117979,-61.3849238002031,13.220076324863,-3.64805079452432,164.294616311622,14.3058821378713,1816.46302097133,65.7730534825942,1176.30633154127,-50.9001298990619,311.831148893635,6.03754037633444,585.419281865522,-7.13439130480909,1594.95029392015,-129.668184914944,1399.38529760266,169.756875888011,971.730316924714,2.23641361733057,862.542382449136,68.2929575127981,316.558419382863,-50.5255386729398,1737.33882622916,-194.501574809436
2259.04534369441,-237.719657901282,762.083138678271,28.0078964630763,491.450117451556,-67.5638843996781,18.2200359141889,-3.50916232188336,166.016723469543,13.9617220027022,1834.48736041016,63.5020111610353,1184.77842711409,-50.7106289636814,313.332891852204,5.82863962076042,590.979015994029,-6.22742158277307,1601.31876265505,-129.812210994501,1401.57645469719,170.006350324735,978.971147185784,0.344164933537743,867.869428394055,66.8571163498297,317.084069432107,-50.5598550288049,1740.09333162257,-195.896058688185
2235.62193825999,-224.136012360536,752.307750518267,26.3681449612338,483.367123692834,-66.1236686578316,13.5806463879694,-2.54287761232812,162.545076451075,14.3076147425781,1798.05577429497,68.7134350512016,1174.22777669278,-54.6558075967935,308.857274970679,6.76852081859896,584.194764696308,-6.75375446348119,1583.42516705966,-126.472001762745,1388.46201467949,171.938507056656,968.32982260554,0.795088862092213,857.275780532169,67.7064688221602,316.321192987397,-50.5156525067718,1733.05632681749,-194.250565718975
2249.61418179663,-232.538099379665,758.120522997203,25.60120028605,477.804788970523,-61.5398288493674,10.1824990422358,0.785564979374,164.583097923705,14.1309015687926,1806.86090222448,69.0992325155943,1173.24467564707,-49.5489427148868,310.083129469237,6.99951733480921,584.681179763139,-5.47255222970583,1586.91617424478,-125.521175285569,1393.4768876394,170.923111585758,973.470151781701,0.977987542303454,859.213852378974,70.2532396971342,317.048019656569,-50.6067779261622,1739.47146316338,-195.743989891448
2251.3377616779,-227.805091575012,765.30016506716,25.4478656857748,484.277335252343,-62.8387539104304,9.07548959160555,3.97863983340669,166.949260870813,14.2036590373842,1827.92331393985,66.0558274897425,1184.48387668783,-52.0461335153089,312.513436001574,6.36437196317388,594.19747897121,-8.99024752861681,1599.37754170942,-130.876518646159,1398.61866961429,171.047695517707,981.569646909796,-0.828041391110835,872.249350895289,65.867749903972,318.317868512645,-50.8575706523427,1744.87713551039,-195.411836161143
2246.78945054484,-230.490946217773,750.398581220816,29.5963276724156,480.899774984325,-59.279431255156,11.2613476204182,-0.907655610041712,163.6035298383,14.0831282408325,1803.61703304476,67.5053070433226,1175.70382641452,-51.6371420039626,309.759335437638,6.715763822997,588.412767825489,-7.90869643196114,1583.35464478362,-126.868600417258,1386.7188120346,172.688144550562,972.656698124444,1.97003668284319,862.217964429407,69.4108974966397,317.067788878483,-50.3989992296625,1741.21137130046,-195.686050588024
2253.75580067169,-234.683095374366,755.472010997311,27.5116614819566,474.544819704615,-56.0333188532805,12.8661890473367,-1.98781397774835,165.452259873352,13.9520755985289,1797.91451173474,73.4904034102016,1175.78001461473,-48.4134410104068,310.637883059944,6.76797900684391,591.223956008281,-8.24878228301119,1588.86200572914,-127.526852006628,1391.01769369007,172.804774950834,976.158332665197,1.31744958415303,864.7649439834,66.3062171545624,318.263388284487,-50.9681163042672,1747.7562691367,-196.825490250909
2255.03197083287,-231.227499257083,762.811173251898,25.1742654639686,485.034330733424,-59.7180691734062,10.3205022532535,-3.61931790259777,166.520207395636,13.7300487990124,1821.15247268483,67.0416270814128,1188.34288003976,-54.4793282708565,312.744943806451,6.22389956948373,594.112880184793,-6.88398167580169,1594.65224226346,-129.972800668059,1393.87240940007,172.483944889298,982.186095082354,0.751617995128385,868.509757481441,67.4308762502375,319.245882849963,-51.3326102057731,1752.70973685261,-198.341351264201
2253.7791108788,-230.351346381582,753.145054522336,26.8973188620775,483.292153762636,-65.5476091073964,17.8453547401853,-3.9537043407532,163.720852909161,14.1582484396629,1792.81048961488,73.2134716380139,1181.22297321865,-51.7077531906367,309.657055989498,6.755081924545,592.43712767907,-8.9105012886607,1587.07948172372,-129.571887021957,1388.77953823202,172.266169443139,979.927010527503,-1.29259635240969,859.842925533358,70.9792266568906,318.500086069907,-50.7863226975613,1749.16575008894,-197.978279122124
2251.62446241152,-224.618035263471,760.4293563232,25.9245714212969,475.623188315084,-58.0035965444808,14.5121792176405,-3.36874941611268,166.115187439283,13.9601629470732,1805.37516660954,72.6171369162726,1186.65058116153,-51.8589126016528,311.704366474492,6.07900590721423,592.816148689699,-7.76548566757399,1597.70548380768,-128.941103210857,1393.73769663091,172.375916575288,980.76880104337,0.207510903597104,864.020664308519,68.3187309508795,319.43415771822,-51.1627127201111,1756.87183859219,-198.749892081202
2268.21086186985,-235.435645345162,757.082610594483,25.3964189595896,488.269102277701,-61.4305733243916,16.5618441298016,-4.90082823008138,164.589557955265,13.9480302888165,1798.74214758774,71.9526095755378,1181.26801894763,-49.4722735635145,310.203203570044,6.53928846147331,590.103705301553,-6.72523494943167,1590.04334144649,-127.688591114073,1388.73329822275,172.267657988991,984.817194446658,-2.69294031320208,861.288747380239,68.3548608482776,320.142092005959,-51.4396547663816,1752.0006844431,-197.653499838513
2250.35088387305,-232.468368679303,747.032756296029,31.3861246861345,482.304333954234,-66.2908193062187,12.6744327548329,-3.4600396557845,164.375018101446,13.6377953426661,1791.25916434731,70.5909091479048,1181.7379557732,-52.2922178592932,309.078183198288,6.82566387271241,590.898326923184,-8.50713499970482,1588.90461260548,-129.550895170983,1386.61430370663,171.814221016633,979.395196461973,1.07452815791909,862.220883574666,69.1346093128828,320.243275628974,-51.3492599851843,1751.9000149894,-197.603492283186
2263.43959457603,-233.329798565225,757.060397682961,27.4580547337472,488.651684630797,-63.3274097074595,21.7986407619489,-5.33130591014255,166.537066618774,13.5207942111168,1807.34630297669,71.2588253056252,1189.88149689727,-54.4226356076483,310.960969727051,6.78201146952869,595.259696377349,-8.66081539123019,1600.73736319527,-130.630130696714,1394.05042817603,172.273853638481,991.123880780871,-3.42794310468969,872.194864408832,64.4420766827159,320.401835880488,-51.2545684666524,1763.29199963094,-201.023166384755
2256.10622775604,-233.125382739489,751.344429533237,28.0920068098393,483.939338762108,-63.7541355220617,13.8838204704385,-3.39607546792794,164.063956311307,13.7110728812769,1791.47353086095,72.3853315718068,1180.80323576223,-51.4401099840715,309.459217625408,6.66040166718071,593.880329950559,-7.77240248891743,1590.55360114427,-129.273953758635,1385.64200177523,172.531016610996,980.052359973998,0.809002564102629,859.156380457943,68.8244557088191,320.021838626572,-51.4561991024776,1756.26612571735,-199.431795368886
2257.43700441013,-238.580996168095,751.049368938622,27.0575486296897,488.566374050597,-68.4070557830315,11.5109029639416,-2.97307542100544,164.149638749341,13.4206881400121,1789.66021049922,73.147990927831,1177.09104789673,-49.6976730817531,308.774606137343,6.69047626008636,595.920359098366,-9.35361914917472,1587.82461213066,-131.514601781939,1385.79447185014,171.854300045183,977.718724351893,1.09465433464689,861.828657095826,67.6882367680123,319.640551368563,-51.455829584311,1755.4827302579,-199.154992466943
2265.70563210381,-240.911193816769,758.730591438097,26.8568668813776,487.908588374561,-62.4134947681219,19.8535790944027,-4.93893798929685,166.159726966862,13.6965334320954,1810.8816667549,67.5603886821785,1185.45045965177,-53.4475919286645,310.881745384986,6.46753419120938,595.399723013573,-7.26198229546214,1598.69503395402,-131.685776315286,1392.64454043387,171.34197550442,986.20367569006,-0.494935345809458,867.055361042734,67.7913357317617,320.873233782619,-51.8239676565577,1763.66320812223,-200.867398997278
2250.14598070748,-228.176943001853,750.534303128844,27.0537893801978,489.533625097607,-69.3526286386479,15.3519774001045,-3.81204110048847,163.810836401291,13.63217943304,1791.04674513985,70.4087348989884,1182.76292430793,-52.991434499046,309.005547887468,6.90953906454375,596.601886776251,-10.3832839299932,1587.57969304697,-130.911235241137,1385.32690072371,171.59306184715,982.082169237439,-1.7300156890781,864.534921731243,66.3550987271402,320.263152732774,-51.5763767990701,1756.9576534836,-199.482889706821
2249.60069172508,-233.249473776045,748.485188829932,27.5172322678048,485.861467016296,-64.4647635573439,15.9781405188843,-3.82006693089847,165.239040704925,13.0661208323177,1795.00886574977,72.2368182175108,1177.83443875581,-50.9467313708458,308.863128350087,6.72095009283282,593.466194706782,-6.38095680037217,1586.23580067768,-129.356516839584,1384.53643812361,171.39197588754,980.293921946453,0.339357889578024,863.265495195173,68.9665757774596,319.429241297675,-51.1144066179668,1757.80560528975,-199.495622682788
2260.26630885832,-236.602080449317,761.948749240767,24.7284009366522,488.610522948851,-64.9753875681828,11.0942862851178,-0.945661887400971,166.322626661496,13.526172308481,1815.95157933499,68.0989103999544,1189.0764006198,-53.2936804134065,311.533014401035,6.42602036673924,598.134372992302,-8.18880706414502,1599.84584438554,-132.924347037534,1392.68065442951,170.879395945571,991.885296230243,-2.77913027603069,871.02074712142,67.2613619906006,321.529579408947,-51.8749210391026,1766.81641307789,-201.083065666062
2256.66418662096,-233.017677763935,752.830906470411,26.303339995413,485.568361380104,-59.2431591849251,17.4537072112748,-4.61275355727356,164.58598141662,13.4930690725225,1799.21713125338,70.2386291146501,1183.99579478059,-52.915924173419,310.533808583302,6.39165437845541,597.333528758642,-9.12515558448694,1585.79755389886,-129.906951866023,1386.50533002437,171.211608037272,987.33491616403,0.576130582284964,866.115240538637,67.1131334530883,320.287490175899,-51.4235844586408,1760.74237439898,-199.972915886318
2265.08332624857,-246.448958879332,751.231156093103,27.6325948455315,485.713991752773,-63.2790718048272,10.340814976204,-1.54679376287748,164.240946774959,14.1956413393568,1803.00580360645,66.9580441019739,1187.87495390941,-55.4127658294789,310.477257954935,6.28702410223407,596.845647251282,-8.10236550533082,1583.72925240861,-130.74744007334,1386.12080097836,170.815335246284,986.32369114459,-1.03570269058837,870.713554961252,66.1529095177426,320.269535306846,-51.6100035743161,1760.75201211159,-198.818752457965
