2343.09272187157,-260.394806643096,882.475269447702,-20.6712768623391,561.748387048908,-90.7377667843049,18.7965326894466,-6.59878781813947,191.456923856169,2.92839056160877,2009.92592057584,7.20089699850148,1343.38961778083,-104.135595995601,335.718555390487,-5.07395183573607,664.406592251065,-21.914627857417,1747.31502234725,-170.942123184469,1546.99047698989,108.451811244892,1126.34494195311,-34.2393742914109,991.402847272432,24.3332596538968,338.614361528153,-59.0768095775705,2100.55470417577,-284.553207601316
2342.10081782893,-263.317401206084,868.584983306186,-18.1907583696017,553.081439051696,-89.4214549595709,11.977512745215,0.296734436489854,187.4902664588,3.59269506438463,1995.182470412,7.27854644803644,1342.82613099683,-108.227425951014,334.435869714359,-5.34994316301899,659.556236770389,-20.2158562361153,1733.86693778036,-166.681351482462,1537.3419818931,109.181704946225,1125.00917641288,-36.2351899113898,983.226945288658,28.704625128071,337.667676165715,-58.8861350931767,2090.52459843305,-281.201979265803
2313.22920871343,-248.487450008137,863.960865269078,-16.6591246595625,550.672668051426,-87.3804451691364,18.8622408288035,-5.05570529092337,187.287060537278,3.20676655327101,1983.86906818517,7.3857865771161,1334.29272419024,-103.284803879353,332.971895437338,-4.85561997689573,657.661416326561,-21.3954651575558,1723.89414671782,-166.966459412821,1531.94218799939,108.893689370864,1121.38542051698,-36.1290343746365,984.460678676396,27.3987546179298,335.651162846184,-58.5549164891995,2090.3367333266,-282.855809619559
2338.50818282422,-263.704854226275,870.785246620181,-19.9030798592701,550.278742141103,-87.1980293388579,14.9058563336311,-3.36652562523159,189.511074841338,2.85455408722083,1996.13089082208,9.19617407061529,1338.22038419604,-104.955195815394,334.666544829991,-5.61682047005126,659.067395699722,-21.8285961637236,1732.51652585227,-170.395698255989,1536.31972697173,107.995855897843,1121.59066736682,-35.7094469484496,983.930359494851,28.765316920724,336.04997041615,-58.5671180537111,2088.91465839169,-281.297666690252
2346.79722203061,-263.228909059889,882.169657078656,-21.5192186248067,560.229708397123,-91.1623866399681,17.1636799256386,-4.38934328529562,192.123503368014,2.70195865551115,2019.00412511229,4.66927261042523,1346.71352099125,-103.616319765026,336.969792877012,-5.9813191333427,661.824305998353,-21.0909240412812,1739.7125486093,-171.734676978319,1544.98703064911,105.302285574693,1127.73198035701,-36.1540169635012,993.87650964726,24.1976300741777,336.962712349913,-58.7621633034897,2092.94354539441,-281.871872603549
2347.1608350067,-270.811935165146,854.577057724789,-15.3087053095771,544.577447395059,-85.1518248497073,10.9737842762634,-1.04538782260336,187.182918884444,3.12091209385294,1980.59836084065,8.37286664985429,1334.96826374085,-103.783168008949,333.232081265296,-5.44464227604803,657.334199624537,-20.7838942291258,1720.72224140476,-165.965176479651,1527.58090251313,108.260068217799,1118.26359049658,-31.8556116639419,982.481714270561,25.5048918079872,334.963519634566,-58.1428483679113,2084.31916920269,-280.469735477832
2323.20160845499,-254.424733622886,861.092274282917,-16.975658179722,547.286623239376,-88.4267772239915,17.9844568643743,-5.3132656444783,188.243152935232,3.23469333203541,1987.91150611377,5.87041153070583,1338.83308587755,-106.993216453066,333.23121648294,-5.56276070193734,656.414599484407,-20.1984496899177,1718.74426485233,-165.578339790943,1525.76479648013,109.450548983057,1119.79115472863,-35.7951298980184,986.262153444851,25.5574698663833,334.772489149901,-58.3601303375967,2082.17594628793,-280.727157871987
2344.07362980879,-269.31571875339,872.476312396465,-19.6766910618889,546.941318979969,-82.8627616339904,13.5001460132959,-2.36266011123829,190.078033192054,3.14611634551002,2006.9773814085,3.82944166013219,1344.6148428087,-108.307858506587,333.882751544724,-5.47665919482985,657.954907504842,-20.8724374958873,1725.084736076,-166.636786336585,1531.96513980474,108.166197080521,1124.27364673587,-35.0803616016214,986.746398910246,26.1916492058857,335.389218714924,-58.3995599166443,2085.82410966913,-281.335843481653
2343.08018787059,-265.953252286582,865.582522579335,-19.6443421660139,558.262780588774,-89.5664490868406,13.9314285812212,-3.71436598752735,188.338153096266,2.47167326722943,1991.52236095801,0.786000073541883,1339.06614580696,-107.45515903158,332.943062074363,-5.25888550214772,657.095648631401,-20.815279591937,1715.07812445672,-165.707524413721,1523.48907056794,108.934802797146,1118.22397965862,-33.5713622412442,986.933299985411,24.4260612966642,334.609602966629,-58.2623243532379,2079.52786138759,-279.88562288146
2328.89748192748,-263.207583621387,855.720886912835,-17.7857672685915,541.73647025428,-83.9481601645331,12.5512724937935,-2.80700949136341,186.571225576805,3.02394722257544,1969.97550528281,6.30254684471569,1332.87250558965,-106.297949869704,330.481089846557,-5.06385789813161,653.280565874175,-19.6404128762212,1704.99202796058,-163.467367039276,1513.81415347615,111.110853289512,1115.11761793787,-33.7539009712035,977.551598286993,27.8712286770303,331.96917497551,-57.3127839715156,2072.34611037322,-278.380943194979
2327.97567776994,-263.477007400517,856.584318183496,-15.9012997500831,555.417660595572,-94.1587737642919,12.3010258700902,-1.33608759919332,188.885527695728,2.48104453262083,1985.48425866576,2.4431818236993,1339.11531352188,-109.148303720047,330.954380235133,-4.49834899775878,656.132135016292,-21.0362259694708,1702.96081369132,-162.602887378042,1517.66981373694,109.994346582547,1117.23305564175,-34.8945137456775,977.66697004589,27.1455650521559,333.165010313265,-57.8531321283878,2073.70424941169,-279.00317484836
2331.8785995191,-264.217115294846,866.273916916656,-17.6309829860639,549.09064582925,-88.0548142573739,15.9308395183046,-3.48622762098693,190.254130793802,2.93942555080912,2000.59059739514,0.41557714798861,1342.07908696311,-108.150158144275,332.992538222776,-5.10292798996644,656.619646883895,-18.9000782340364,1714.79285604526,-165.788196046674,1522.40077465588,109.767174062469,1118.76560449739,-32.7979851700685,982.330067881688,28.5406664731772,333.497138628667,-57.8340316472638,2079.25106095656,-280.511653038984
2325.62084992443,-255.714078615403,859.55821054017,-18.8062776384237,562.045637399765,-96.3965692739664,14.9839640281925,-3.63080331960972,186.973917782101,2.66937298831028,1977.60842761378,3.15089659018507,1335.5810743306,-104.93879607924,330.264533679542,-4.08958088927414,656.076398649442,-22.0526001735418,1702.00901165185,-164.32351791935,1511.85021888998,111.516121320141,1116.95565307693,-33.2238586024771,978.93183361757,26.7425157731061,332.21000424775,-57.4871505119064,2067.78415443742,-277.512814188324
2305.84617596606,-251.917261890242,852.372595330698,-18.3972431520129,542.506886951271,-87.4068958884264,14.2053926477127,-3.22362209933075,184.961898913823,3.00724918458716,1949.74651837935,6.32766727911628,1319.43222938057,-103.8201961262,327.541711277138,-3.85521690525952,650.39256281019,-21.0912939247755,1686.40741970852,-160.385497520175,1499.11041078342,114.996458487409,1107.45684607873,-32.2111083646681,968.242993202143,30.5351827294337,329.355974121787,-56.8254937089016,2057.40098201237,-274.396879522329
2307.55026118013,-251.473949067987,851.86057003345,-17.2712841458841,541.258964412068,-88.9734495859811,20.7976529928546,-7.26726671190429,186.616543666326,2.8025440068295,1960.42199818129,7.23503788644243,1322.97198236737,-102.619785213606,327.897568423898,-3.82715371153265,649.120212842006,-19.1013656245559,1685.03562932366,-159.39498218161,1500.30999226582,114.159633463654,1106.51159056259,-33.8215295410384,969.973973906005,29.5117498835635,328.949669376588,-56.533267669642,2055.37583581726,-274.262423902897
2317.18794019967,-256.748559212816,857.942791413399,-15.7129865239827,541.730447840795,-83.0954411424095,22.5883608671102,-6.95257261441918,188.384259991358,2.82756662840962,1971.1029107037,8.02482317234488,1326.7453757441,-102.363150424009,329.467116722402,-3.77755138408978,649.945357989354,-18.4074004752004,1691.00825345617,-158.375996456387,1504.35722803975,114.794845048921,1111.65147887468,-32.7901806237219,972.747458458543,27.381938485069,329.80428144333,-57.1176373219708,2058.98594665866,-274.772851561567
2303.09121437456,-245.267024204573,853.936841444344,-16.94688160182,544.461230144752,-86.4003016748037,17.477469651566,-3.82930076231589,186.279506870371,3.05320659658684,1961.37165647383,8.75716640680356,1327.14039955672,-103.159159801474,328.605161007629,-3.71821260705416,651.057112125853,-19.1740242125835,1683.53083707462,-157.585939702779,1497.97119327116,114.794450296429,1112.23251587053,-35.7478414336783,968.565723726473,31.3405568995743,329.093541119237,-56.7370815108642,2053.7817199828,-274.96718552237
2283.55044948715,-241.434110892569,837.370279345535,-10.6541177385033,531.09470291023,-81.1605775150239,12.1751979836332,-3.63158178539167,183.476902910224,3.4199654383892,1930.0227160647,13.4387755938889,1309.63297205316,-101.140856519715,324.58270125933,-2.93778934087839,641.811692224349,-18.5280526225447,1665.77681175567,-152.725740578288,1484.7051922378,116.818983223324,1096.70856337266,-31.4675544633483,960.631462878626,30.6728601722658,325.523485290347,-55.6892769795815,2038.61584229855,-271.258958523251
2280.7617347075,-239.534421876058,846.247652313255,-15.6792624918792,541.660364239433,-92.7997513841793,10.6368352168416,-1.81904127062774,185.292995852135,3.38553922742093,1944.69953788319,12.0034773307192,1314.48129952892,-101.54300689686,325.599188967242,-3.09805133196035,644.942241968228,-19.5807729043602,1668.9629898326,-153.169357287371,1487.18254865787,117.478290016358,1100.02843408469,-33.4884707808684,961.057370451966,31.7653495997405,325.292579080104,-55.6072218625956,2035.5808753838,-269.850417666381
2293.67944044967,-242.657375182665,851.315527309772,-16.2241372808123,536.65687768798,-84.5526791149753,19.948138509785,-6.83809153487626,187.216874989057,3.1744868096108,1961.57927322091,12.3228417952853,1320.06079646839,-101.138836699269,327.616731729502,-3.37281915748527,647.411781091077,-19.1252962314157,1682.60276683446,-156.855279819394,1494.65343878273,115.928444904271,1101.37222119127,-31.2490938230964,964.75215046689,31.0935435511864,326.668768602006,-56.2230042915931,2041.115653873,-271.07846885066
2307.18563308781,-247.540487810227,864.107656962569,-18.6826424912949,535.936515385554,-83.8766285924592,15.1916660066881,-2.47723098908619,188.957232718074,3.0043831235419,1979.60819183878,8.75089249856233,1330.90120197529,-104.426971611339,329.39629034325,-3.30722876555416,652.283835348645,-20.0246799209306,1688.01086015927,-156.424399005572,1496.52756154368,115.713806004238,1107.015099186,-33.2231757801821,963.558640128785,33.8291315743191,327.244851050506,-56.3020435431383,2042.87981479194,-271.808728131112
2284.30397068427,-243.23206796252,838.304078052245,-13.1682682703785,530.829278652408,-87.7435489435015,17.4362584940827,-5.51838186367768,183.478579763732,3.50337674238617,1938.95838944744,12.1230236760795,1307.91607570448,-97.9454043624605,324.280857765115,-2.9017871426638,640.919852379256,-17.7930577724235,1668.68955001873,-153.196441137942,1481.73023688815,117.9006651305,1094.19352483445,-31.0586770152865,952.90959274346,34.2323584949578,324.526616940974,-55.8701265731261,2025.53756509779,-266.971253234436
2298.30574446756,-253.417500817199,840.095565828698,-11.6770457559806,524.218899216112,-80.5039988846633,13.4736250032847,-0.826222017173968,184.706445980861,3.31736657143991,1946.0843935478,11.9835019115827,1307.8705074691,-100.358960870126,325.636081795466,-3.0388458914113,642.83813492653,-18.896563271813,1672.69621225032,-154.345706384645,1483.20087808367,117.678797325469,1091.57352412788,-31.8982224414441,952.88692601659,35.210033223994,324.121327991261,-55.4124431760063,2025.03118956776,-268.28811666434
2308.73447547259,-254.645549940473,849.951357399608,-15.2833055079502,537.971472441694,-87.7309536009494,16.8249720039217,-0.720620065743813,186.321424152194,3.658685850585,1965.97866863537,11.9254152365924,1314.66605996047,-99.6966006618183,326.559317955127,-2.99427167710589,644.896371749698,-19.5357452547739,1683.72235051337,-157.106303930715,1490.70621070148,116.923870879203,1093.27931348191,-31.0191993464294,958.502497593363,33.4454010446476,325.121479217165,-55.7273886727101,2029.05451093328,-268.725734076291
2323.17170956867,-257.30091857616,859.862530956382,-16.3783838803163,533.713438999907,-81.8426030450774,18.2428924649034,-3.520876724573,189.507989962227,2.93838829684195,1991.59052263935,4.62154545274678,1324.94949363592,-101.763910513296,329.015606158179,-3.35615940804074,650.299073478447,-20.7678152012033,1698.32296564545,-161.192581836353,1502.02505015918,113.851821553433,1097.66486978647,-28.8941709597318,961.025548064009,32.830397480234,326.342140122835,-56.2202820500155,2034.05678130872,-269.579075301107
2288.52524201863,-241.315930798798,840.031055756978,-12.248473430783,531.048956578587,-85.6166814359857,13.2449909372725,-1.39797188726224,183.654269809907,3.58115578235401,1947.87742568441,11.9731188756673,1308.72848111926,-97.2958267290603,325.782551394957,-3.2985274534764,641.017346860789,-17.671088583273,1677.65957719064,-157.075555483553,1485.94220063795,116.639863595054,1091.09520815597,-28.924606961556,952.534948028197,34.7194213695479,324.627268059694,-55.6077434804116,2023.60162514215,-267.363935341512
2306.0613437843,-252.993392602075,842.339110663877,-14.282182995512,528.397911391796,-79.2952421949132,17.6335657072936,-4.73487796920838,184.573817162754,3.58383886648909,1955.34228704963,6.51394680720868,1307.38979970031,-96.7259790863992,324.998207108684,-2.88380191694774,641.893730861091,-19.048544551125,1675.92522348265,-156.648480554399,1487.52343190382,115.985086404102,1090.69973278896,-29.7189513432081,953.662667118065,34.1404552563996,323.670059385968,-55.2042672785816,2020.10129086108,-267.695749844877
2308.54813807054,-254.455566138131,843.885431069015,-11.3042204712486,531.397383098138,-83.5179652460566,11.3753914976709,-1.13691987628215,186.534332825543,3.47683162207813,1975.66531035321,3.00327779805096,1315.60462980865,-100.599033431398,327.8320756235,-3.73962244478313,641.288732155147,-17.5577979726874,1685.6320000541,-157.016201905877,1493.65161280993,115.968716511728,1092.92484995922,-30.441054042596,956.918634065886,33.9795439251401,324.992569302407,-55.7578729883288,2025.10039029623,-268.612809495934
2320.94498612978,-258.794861625831,855.746055739611,-15.0723284779091,543.086664154563,-89.3277591591115,14.7187976170944,-3.4244632777968,186.202320082986,3.39048210525744,1981.80183086078,1.68481226098726,1320.62779032092,-101.689433295787,328.393690328846,-3.60891997911101,646.094928823323,-19.0606476521919,1686.75773371776,-158.375041671159,1493.88549020564,115.092634860446,1093.2952368895,-26.9620579938484,952.52859497586,35.9275803956078,325.827880956302,-55.7190082619668,2023.68415832103,-267.402195892651
2313.95806896929,-261.678607337068,837.712342490695,-13.6694713248126,535.612326907771,-88.4820054243272,10.96445663555,-0.268313059159377,183.06892984892,3.79377629881605,1954.76203906991,5.44576176063761,1307.99144004799,-98.7770112846562,324.727187035089,-2.84314525560571,642.023343780312,-19.5371501706357,1675.7435392776,-156.08561435853,1485.81747723592,117.033275572704,1085.3201642985,-29.7778057090441,946.707478993242,36.5923007199674,324.309483344652,-55.4945452603685,2012.08169358123,-264.846391016749
2295.57281918153,-246.811015283657,841.244646138366,-13.1227582626514,528.225711999521,-86.6629876610775,12.3223078203552,-1.53876194591382,185.409803409121,3.17554291924273,1967.18470379967,3.26617473658743,1309.99618957555,-98.1157635063024,325.472453113895,-2.86376527186647,640.789742028739,-20.7042518986368,1680.52415878167,-154.718241095397,1490.95124295736,116.395239268366,1083.09606012157,-28.1806797784936,947.880331431757,36.1651544953317,325.086049877558,-55.8310242105021,2015.36810243882,-265.975105843398
2304.66396813211,-248.054128702864,848.497099462429,-12.6769499280826,531.036688070031,-84.2369685821358,15.2641118240462,-4.69876921555546,186.981794832261,3.43077281277909,1986.76693772245,0.854506558991804,1318.6669140729,-102.031848343824,328.429386480381,-3.56933462737562,643.054153502347,-18.946639724194,1691.58389839685,-156.276953653855,1501.27685173457,114.381929602551,1091.68430759169,-30.6882496697666,954.487909729541,33.4718671489753,326.369085754574,-55.9613421947626,2019.80239586742,-266.89653027426
2323.381975684,-258.849528701462,842.851261619891,-12.6915419157433,524.050641566555,-80.5638316569422,17.02067978959,-5.80288641244623,184.429726493982,3.42131823613417,1971.41409544067,3.17316528698612,1314.89717427277,-100.419685049617,327.263868158107,-3.57209890631204,640.75417733736,-18.8292113359984,1686.56418276062,-156.690971181861,1494.68898381392,115.334090201856,1089.90660941772,-28.1824276619215,950.190616248144,34.6160969550576,326.352682109098,-55.8790876997087,2014.27062679383,-264.992441676272
2309.30081138146,-256.875736940807,828.500341824824,-8.43333526662514,518.593982922262,-82.6732880291552,7.40825983445619,-1.93670826574793,182.602355467175,3.79014331246693,1946.09759465978,10.8702069003125,1301.82618904312,-97.8650096504592,324.294237425445,-3.10880560264128,632.887984358841,-15.8915179437921,1679.31625011949,-156.37469463172,1489.62152003103,115.543423701509,1075.99346973793,-25.8380120963606,944.053587040792,34.604861124559,325.206981248131,-55.5342050106648,2005.46833839616,-264.131543229046
2303.89695011449,-254.625380480079,839.66649565049,-13.1440315226748,518.512985383464,-81.1322822589974,17.419981978307,-5.49843039075586,184.099031512266,4.06161620677541,1961.6515202462,7.70088647741732,1306.07637325072,-100.087730007472,325.858573479474,-3.27106129166567,636.372703761707,-17.6767706779231,1683.92596408795,-156.352887269989,1494.78137379782,116.327215738369,1080.34057895204,-27.8129447692036,944.123235975526,36.0305708257843,325.914259510487,-55.6969522575944,2006.38077509597,-263.423844634169
2333.91354939815,-264.538783612817,849.425911574876,-13.7075532404359,533.557355959385,-86.408908818558,17.0558484661686,-4.67341573317285,187.262689959978,3.23874345186641,1985.08775076938,4.82217410855768,1315.59158030187,-101.246321421827,327.956905496228,-3.52445737560067,640.090268587215,-18.1234304401519,1700.78141123736,-161.390539353854,1503.06416060073,114.63777673343,1087.81604936722,-29.0021068754219,951.954146433332,33.5761962354112,328.356519754891,-56.3110339076903,2011.31743294431,-264.467599564883
2333.28213573755,-265.041442965125,852.308469277496,-11.4639755460947,542.128380593172,-87.2231819042304,20.1273521128624,-6.07762325749373,184.542342990815,3.91791256783865,1984.21940131847,2.33252572433718,1316.09800332048,-101.460696273881,328.350526271987,-3.61081978353909,642.773076195686,-18.961761758752,1695.27419382509,-159.142897738505,1500.76460445838,115.02059687123,1090.24109514734,-31.1748549168655,950.127019127304,34.5879239960241,328.789252426925,-56.4728094587003,2010.68093786899,-265.42230383386
2299.79064751001,-249.387690990681,834.054855875728,-10.6305836267272,519.056572542688,-75.8017937686046,16.198303906512,-4.89291721321846,181.870591194925,4.25928706714486,1951.54296347159,6.95357557596327,1300.56063894895,-97.7825707441868,325.086427299855,-3.30025813413578,631.89937951516,-16.2493177933317,1682.28096872275,-156.763904859453,1492.40749308986,116.225755438756,1077.73694249213,-27.5367623149208,939.632481871874,38.1614399168005,327.136149810563,-55.9553580533422,1997.38404468144,-262.173586948352
2310.28816230673,-259.402422341813,838.371650130221,-12.3571912161163,524.685830082374,-81.6422015755642,12.61347941862,-2.49392278353737,183.734400890106,3.78527181678992,1966.8861954276,3.78251199692416,1301.79915885961,-97.4395728623895,325.775025841324,-3.04538072608778,632.740408019925,-17.2948157257614,1687.84845920947,-156.281225017296,1495.77575219832,116.588492086671,1079.4325755915,-26.8722083284876,947.179442269331,34.5830506346793,328.166300860269,-56.2618394689434,1999.05651300094,-261.542310738918
2312.139294222,-251.207515830568,844.455715769738,-11.209750266414,528.488448153861,-85.0549811509804,12.2317394008393,-4.38327441651764,185.894504726523,4.05943299016152,1979.62393753112,5.94677173314804,1309.46736783647,-99.5917996257464,328.373372703574,-3.7784401015957,640.6760919983,-18.7888495635774,1696.44067679603,-160.650458139815,1502.04645850056,115.524301507042,1079.3495651809,-27.1585591690815,949.944809158651,35.222672287095,329.74345082775,-56.8786144336897,2005.46328770187,-263.895687471855
2299.84637323607,-246.313211240765,838.500560530131,-12.1207758652261,531.842592262354,-81.4131571897408,16.9864079757203,-5.55630411548015,183.3927132136,3.69193415971925,1972.38738697085,2.71417685890059,1309.55418444005,-101.01875391594,326.325210916101,-3.10020318660116,634.868359030223,-16.562192192308,1691.32007379712,-159.73205073225,1495.35948476874,117.212305879085,1082.2726643009,-27.310530665354,945.255137609414,37.1056341571873,329.390108704575,-56.4979338946498,1999.88735048484,-261.56167000763
2298.17039223761,-249.777602289184,826.969063574698,-8.46530871337657,527.062501410753,-86.520572968975,5.20681907584819,2.4394752917589,182.233446386931,3.42784787588263,1947.83426037898,9.29004921863753,1293.10174066156,-97.3723421542868,324.308100810538,-2.77924744819497,633.175219160931,-17.3097756957594,1682.64617900922,-157.092338057296,1489.8306304544,117.185988589441,1075.19723235124,-27.198259098887,935.059308410777,40.1486443183706,328.688380555314,-56.4574262432406,1993.10820999628,-261.606463818375
2298.32721627514,-248.477087651901,830.306300312301,-9.55271949471117,530.586903571497,-86.2507958794175,11.7621461777858,-1.31060647493435,183.490843311087,4.27162078835753,1962.28548327568,4.16613334905955,1299.3518023683,-98.3397655918712,326.636353146816,-3.59113562394621,631.172991759878,-16.137298897789,1685.01206373081,-157.869584244391,1493.46728829696,118.085640710948,1075.69086146092,-27.9438647999642,942.875610852394,36.9379454820936,329.406527068568,-56.4598069604521,1994.38940128429,-260.680009615214
2325.56578261088,-263.826747411,846.548196653872,-13.8041864128825,529.676175225079,-84.5879831939906,8.70898812382159,-1.49440051422809,186.082619124241,3.55805643858058,1977.03721588356,5.68684134575779,1307.39663456573,-100.473013483471,328.942235953596,-4.01286623234216,636.335494102215,-18.1701847828598,1691.66141053306,-158.451849024847,1500.45712848984,115.893783899354,1079.52198278885,-27.5768224032827,946.712993776673,35.7764826292174,330.417380822071,-56.5026060599534,1997.86897138259,-262.464538664986
2294.51104026429,-249.798639949713,826.33157511227,-12.0391024257193,520.141588896883,-79.3406807065988,18.3560077165037,-4.87613775851718,180.452537953864,4.06072441079361,1933.87886775172,8.23735886959021,1288.84427106616,-95.7866612354392,323.708451347126,-2.93462986260073,630.870528011934,-17.7627615347684,1666.93398656738,-152.756662699037,1482.38979782138,119.88772169964,1068.07108371522,-26.1236219976917,937.348767410956,36.443352552753,329.096764704898,-56.6518506527325,1982.93523347269,-258.886922115015
2275.78706505973,-240.436145376615,825.452541227384,-10.8096257292388,519.387087862716,-79.6864560425652,11.9079023392692,-2.66681146010821,180.693881962496,4.49159655331835,1939.18485384102,7.3888174837145,1288.36976665835,-96.2403374523691,323.722661611034,-2.656228088703,628.006045458778,-17.1631906531601,1667.35243983626,-151.118839891905,1481.75624433364,119.708125307221,1068.78343240852,-28.6854743866711,937.993256728404,35.5006754825693,328.391002935144,-56.204563219992,1981.14461607709,-259.008934028719
2285.84495828758,-244.300576669182,831.990275565348,-11.8528094195255,511.80656551659,-78.4658341176895,18.8874566974218,-3.50938874189519,183.0693597119,4.23330299906613,1951.16005116687,10.1613292457772,1291.27179999338,-96.1168414782285,325.135087963855,-2.68622167921205,629.247202202591,-16.3913393715944,1677.35003604788,-155.090946962728,1487.23846930493,119.623645532742,1069.88291628819,-27.5371957966768,943.345491969668,33.9636343535004,329.536962346853,-56.574810158543,1984.43074618826,-259.256201751144
2308.05940471217,-251.360533167924,833.626827891719,-10.8338339274015,526.372874660418,-86.4065797654525,16.1952905405158,-5.84104235364712,181.376086882826,4.28913115916893,1944.59256711481,11.6963478852064,1288.71136308366,-92.6214976188425,325.271053784399,-3.0077400090855,630.064881672804,-16.9090980108157,1669.56479020681,-152.293008924208,1483.43920722293,119.640963470741,1069.18861406321,-26.3869372719925,938.301884654055,34.8915297855005,329.616177890912,-56.6280720965027,1981.01410905327,-259.110705401605
2274.18622074553,-242.037980331671,809.921595636112,-5.85016417994731,514.74776827202,-81.1252967661174,17.7784905288978,-3.90839425411705,177.801336535263,5.02363183860338,1908.07139726983,14.4776688609875,1272.58477741016,-91.5074048992964,320.608386534168,-2.08020061345882,621.31973401225,-14.5099812843954,1648.75431290601,-148.711183655541,1469.88173603647,121.836288073317,1056.5150565045,-24.9935248532034,929.857193585415,35.3249181633669,328.276261759026,-56.3818516910707,1964.5815896681,-255.898949295579
2286.85998621157,-250.731767494247,814.269728336651,-6.89859713386956,508.923339069184,-76.725781274163,14.686970143019,-3.44860170359089,179.650428148851,4.77361361232892,1911.36901894949,19.3975202205616,1273.19756095779,-92.6418238927849,321.345055707405,-2.01061012692982,622.318950860419,-15.858404818832,1651.05396644498,-148.603564258276,1472.72883160702,121.608215252564,1051.48143815085,-22.4159027687274,932.617754019014,36.6125437040918,327.098200705427,-55.6567500496529,1964.10792658173,-256.081220956608
2285.32062516628,-241.802111631991,822.666665906651,-7.27466687001942,503.394164243065,-74.6282559613114,9.43038279402024,-2.30894447564538,181.289762513305,4.8775585428572,1930.76761670268,14.8064794658204,1279.39973407516,-91.4449337151628,323.55963464451,-2.24816129550505,625.82999943846,-17.4755168548651,1660.64786899138,-150.264377924541,1479.14056852299,121.832937017591,1062.55656742566,-28.319178553475,933.45000967571,39.1890083676207,328.82375587469,-56.7234202251775,1968.70515231353,-256.481705283329
2303.12685979266,-250.257582891414,836.235769973906,-11.3624257348242,516.32442804783,-79.7593726315515,15.4996425110595,-4.99248172527737,183.763095486932,4.46761907429988,1953.60612922537,9.26708522638918,1283.73071190877,-92.4440061377252,325.571876021176,-2.66909496345733,626.947104951003,-15.1329587356123,1670.40648459145,-152.360162040055,1481.74494251042,121.891563702115,1065.49361136005,-26.7861641788398,941.084873493831,35.2127585722485,329.951744933663,-56.7379673591289,1971.19264446375,-256.975278388611
2274.23893850211,-242.277156883934,806.348226373875,-3.88501656469452,517.136141695571,-85.7540345359758,16.513297511277,-4.22639955719542,176.751880597951,5.08435977788035,1887.67351449019,20.2829847451944,1266.5983148091,-89.8579310507882,319.642719522097,-1.94897711574383,618.717291298466,-14.8791513097888,1642.21040964113,-145.397383212674,1464.36631179584,123.328191149732,1051.90317072222,-25.3980489446021,924.828965853201,38.4834685438659,326.772095225099,-55.7821678746568,1954.64533289537,-253.58357465516
2262.62508543712,-232.897755229073,805.262306984313,-4.34897968838347,503.029545886362,-75.729563334786,12.3103722529926,-3.30830745986607,177.603166384586,5.15118194497332,1894.53370694442,18.9562019608405,1263.40066126778,-89.039481504521,319.248092631154,-1.57722883415727,619.933202446146,-16.362021294047,1644.07867290698,-147.457962433559,1464.09292892776,123.713365410463,1045.18401903999,-22.7661818572376,925.660270089643,38.129363374484,326.109057705645,-55.9212765343591,1952.66635951938,-253.016570583668
2281.28631260619,-247.600711937247,814.478957174063,-6.5741121133534,498.554755273056,-78.2711341518476,9.71461037915958,-0.674452405295136,179.143369581222,4.71627141930688,1909.10405469035,18.3564508412056,1267.78017722328,-88.5815165633066,321.008466571869,-1.53839520775108,622.771999707906,-16.8170169046436,1657.68366328733,-151.570777998922,1469.85322676483,123.872052256857,1050.53797082506,-22.7554464659582,925.204925034651,38.8179400125832,326.138875401782,-55.6312212588073,1957.76490071182,-255.219243205323
2282.65724458376,-246.791518871339,803.38042852852,-4.68956302472758,501.808300364339,-73.6407686902832,12.5831516403793,-3.71146806794248,175.927345800851,5.5231816995584,1879.61820651657,23.5371801740928,1261.73359376762,-89.7802448267094,318.720690852272,-1.2085586436423,614.648751786349,-13.9605772948894,1639.04869319195,-145.716786726387,1458.34788708656,125.822579600087,1045.3757748919,-24.1117944240316,920.948288560444,38.8825909015157,326.306022490324,-56.1048054456538,1945.49410834909,-251.894633116434
2245.17403204324,-224.786499314253,794.037447901975,-0.65815619574867,500.707860704272,-74.528402678534,15.1116086925752,-4.71614796703972,174.887017336729,5.69384470621397,1869.98323163896,26.5499776614988,1249.61772060656,-86.1252248284969,316.062435887353,-0.306418598081728,610.741700380361,-13.0967293603194,1632.02865839802,-143.897909624105,1453.59696245588,125.696630025549,1037.42302800281,-25.1056329006034,910.826648865401,41.6210791954879,324.311361548261,-55.4413791234151,1940.34718937438,-251.903986985236
2275.23812064601,-246.451818872202,802.013597357024,-1.85040157166293,499.050581004141,-76.0448051824016,13.2671623910616,-1.73072998282077,176.610821258201,5.62853137711217,1882.58993052013,26.7457657610605,1255.63407569498,-87.8105299111344,318.480615541272,-1.11349415400714,614.380463259232,-13.8728419990673,1640.38824520827,-144.703018256403,1458.19691431151,125.418518214516,1038.0320911627,-22.376872329726,918.278356791535,39.7902870800378,324.957058276891,-55.6541444489107,1943.17513381682,-251.970599310444
2281.32751621337,-245.142335797997,813.362640829813,-6.58230877722957,501.699256751742,-73.4703576591748,17.8865286613048,-5.47499944732169,178.663320752874,5.38795926167395,1901.98667497313,24.4400486792573,1264.66334945149,-89.5305965590449,320.583644307867,-1.31212626847043,620.210420905836,-14.2835321950159,1645.4041050291,-147.439569813373,1461.81214909171,124.593754843995,1041.84843337073,-21.783768051681,918.928332832293,39.2401739034847,325.489311715306,-55.5859307110614,1942.11729535016,-251.515254149831
2272.77358797106,-251.344287723798,794.450869483071,-2.35247538709976,502.205006219616,-80.6997530798019,10.4591752356192,-2.23138076211114,173.118847990882,5.96503110986076,1850.48485601722,31.0822328111095,1245.11419754069,-85.4317088844718,314.887412447556,-0.424031576712336,608.664212070611,-13.6706854892388,1623.49556006571,-142.496344981769,1446.29387389366,126.862322481732,1027.82171749228,-21.8086756509098,903.577941653509,44.2436379994177,323.032226756646,-55.3386708025041,1926.25081060127,-247.309265161077
2252.30519450466,-239.287281005467,795.115719975211,-2.30552045537723,489.535275094564,-67.9444240975866,17.5845598345806,-4.58207353876743,174.266575762559,5.80298841288637,1863.620986539,27.1192758240558,1243.36355682344,-85.2035846290935,315.619812867606,-0.523981992380255,608.49398066272,-13.2221322656078,1623.94565303098,-142.295102096961,1447.32689372917,126.322582060624,1031.32936129001,-23.5138753947585,907.467688337891,41.8646344240672,322.192855541336,-54.9640577642016,1924.88189519638,-247.779421137457
2265.10666037397,-242.82681616835,797.920067904899,-3.05151520541957,490.694157860639,-72.8740581977307,15.452521427798,-3.9226253612064,176.172620041919,6.0274953095346,1881.62076361424,25.0111137303673,1250.94728122878,-86.6305784733022,316.702033127618,-0.0143039457765914,610.593124398161,-12.8998598325992,1640.55054280299,-145.009320405221,1451.80164475157,127.53401120751,1030.68432406036,-21.7822324305834,907.509679827669,42.7623529911506,322.758233807491,-54.8180890681655,1930.40204562758,-248.640895133743
2284.22963064328,-245.024901242147,816.287198840846,-5.53899684059176,502.761659947931,-72.5750482733946,11.4086587379028,-2.26700310827877,176.128505197785,6.07904900587658,1889.50029877788,28.8812028070529,1257.03356551569,-86.0464011592217,318.347772276535,-0.509991089119889,616.594144027113,-15.7613886543851,1641.57099563542,-147.20262047804,1452.69172496127,126.380678524933,1036.61546986824,-20.9093084926143,909.63433139963,42.2645505042757,323.706064321658,-55.2768474272246,1928.96636236163,-248.63159391392
2252.98626230633,-239.077629298628,791.949452590316,-4.56922172425441,493.54655028623,-76.119598387024,13.6618220972097,-4.07828879863339,171.82704967597,6.40745273186748,1843.44813932506,32.2535270509255,1237.23770275951,-83.9313829649481,312.871997847218,0.107814574710748,603.446282870524,-11.178630082834,1620.44772300189,-141.223963452006,1438.9184867279,127.476654218789,1017.03811163067,-18.5608189067837,899.473450473671,41.9930355318863,320.495810869702,-54.6565082295901,1916.29750546111,-246.994787128739
2252.66512816805,-237.546130132779,791.225630252232,-0.913438714783804,494.615410181717,-73.8143367850592,17.0092358978799,-4.89671097779822,173.027292655904,6.34643426142925,1853.95081596407,32.4619405783613,1235.04458578209,-82.3967808186097,313.871452298055,0.0822507185897867,606.7794216228,-13.8501672856443,1625.60581273145,-144.396398461112,1441.88089116424,128.191553721904,1016.57590915673,-18.9299489316041,898.911841996607,43.4879178255497,319.524992393998,-53.8917987819282,1915.72770383828,-246.425860472106
2249.22037177948,-228.223227935744,797.513094876621,-1.42405632026299,499.742046592,-74.4112524113441,11.8575528016905,0.000139401178199107,175.221055196924,6.13216002620484,1877.04539194533,29.4981468812027,1244.52651941403,-83.9886375089791,316.153044337023,-0.178744583057575,607.884405416095,-11.9913616151292,1635.38714455147,-145.081317252245,1450.25330072695,126.902466845474,1022.93550239127,-17.9032212505943,905.295900698698,42.4060785098143,320.312023488537,-54.094758812235,1922.94505182016,-247.08291912563
2271.69398380762,-236.643366939908,809.55275783406,-3.02786304355693,503.833039870129,-77.1115856611143,4.95846003817206,1.68261241632118,176.940651896244,6.00944582063455,1900.33848918723,25.2118161490715,1254.02472552083,-86.121050276343,318.304901521466,-0.544946028320704,613.8659430847,-13.0615799518914,1641.04922779886,-145.347906376391,1455.30940502718,125.547268521428,1030.10831570285,-21.7631592333248,900.961926567534,45.6486365946784,321.411625527425,-54.5410972551386,1926.0524592841,-247.881124605127
2259.93562714965,-240.432445374105,786.137340743229,0.012508777497101,493.466703867504,-72.9999951671918,20.0435246810567,-5.82556903667227,171.209469341181,6.69961779421516,1852.67692456522,31.5065791911902,1230.17624611265,-79.7202283804664,312.241312255895,0.587357613319572,604.244452885004,-11.5814791763143,1623.52209795364,-142.690067716352,1439.60182009477,127.845358985243,1014.77225302038,-19.4750748406597,896.514463882241,44.2808337463494,318.917059258698,-54.1574086267137,1914.24610721695,-245.993831629567
2254.78861336167,-236.371926701359,792.312752307073,-1.64955033877357,494.271361898724,-70.9170788769182,9.76113908438369,1.17812062143819,172.843165303895,6.48836008054471,1866.0652662154,30.7202928320995,1232.67025334936,-82.3102984229474,313.434073919895,0.311432473268125,604.29176960884,-12.1043261723454,1628.1702975561,-142.061291974641,1445.30546549864,126.270584613685,1013.79554373891,-18.0971775692144,893.524803999223,44.1708049479632,318.900717460859,-53.9462445466067,1916.24736814998,-246.715544724411
2270.19426091104,-241.476656390816,799.256469606952,-1.7326421919878,494.656190124756,-75.4405701510528,8.89912780737369,-0.899399511121094,175.019034092261,6.34076967340338,1885.08181537389,28.3078113384274,1246.26769414986,-85.044787230823,315.16367839028,0.438371117366206,609.636752604738,-13.2623655409305,1639.84472943487,-146.999102385338,1451.93284648973,126.359667777893,1018.88693260403,-19.1570275474466,899.612974577858,44.0522919510372,320.304810456599,-54.2468478861873,1924.81594374149,-248.180899811932
2279.75310517687,-248.727148084564,792.618754137177,-0.39457459702336,498.324842861368,-77.0993683913094,15.7309838719596,-3.82512385830157,171.416193310308,6.89413494844922,1869.53388671498,29.516140323465,1238.08971172832,-83.1930967931442,313.52505570788,0.26589354158355,602.672438318878,-10.4886282458102,1633.22309554402,-145.201899914538,1442.82298479374,127.202924206098,1013.6048941591,-18.1645451334556,891.09730142874,46.4849308241383,319.214082128986,-53.8909375059994,1915.32249476829,-246.222490032082
2258.67065456196,-238.661905910053,787.707745622788,0.561185866817377,485.278047103957,-65.220997164556,11.9418891974605,-1.85342889010195,170.567200103142,7.23824698243263,1856.22730563468,32.5141366983508,1226.29246404736,-79.6765314562376,311.748549179779,0.803481627738978,600.324939496885,-10.3263131058449,1628.04783730278,-143.130928468917,1441.12726211042,127.402902665662,1007.21562006004,-17.1227441190394,884.698036012988,47.1308777859879,317.983299679053,-53.4821508802144,1914.64587360305,-246.006104824399
2266.56200100716,-236.166122493729,797.938847956159,-2.10594579482459,489.823413675577,-70.8393529526221,15.9596723642968,-4.31546515076419,173.098356485597,6.74513421454488,1880.3525121476,30.9458813543894,1232.86067643636,-79.2608510401981,313.603912395267,0.607018491938601,601.76987003938,-10.8579579839033,1640.10765846284,-146.915522768553,1448.50097305841,127.662197941277,1014.17060616882,-19.9836201804549,889.717068776383,46.5726370535747,319.087102044627,-53.6608182014888,1922.48450892504,-247.31542000615
2270.43137101945,-235.452356268062,810.725438748745,-2.58148485108488,502.213382153659,-76.2739660104651,13.4669470411563,-1.81927431860971,175.538674513955,6.82384622510943,1902.83797427021,28.7712539762452,1242.61731533,-81.1840613378751,316.405608940015,-0.00341345253787855,609.886383665337,-11.8333251505904,1654.35969654641,-149.82821206405,1459.71142277055,125.843276920958,1020.47205458946,-19.2229586435529,896.985274930573,47.253021559471,321.256537079491,-54.2834967477185,1935.10864720115,-249.906221196524
2263.04465201914,-233.832610280448,799.146856952115,-2.42865371970062,496.832826841252,-72.6128399252733,18.0757628657867,-4.26207984465031,171.24235788808,6.92214792453827,1874.22125246089,28.7293006357715,1229.7243046151,-79.5644413634673,312.884259686018,0.185151660984917,603.880741711399,-11.3112848426657,1641.00588360347,-149.081010232936,1445.39275667386,127.926592560126,1010.46057717575,-18.7854370293536,884.60243121767,47.5823586424681,320.52431333622,-54.1924344699004,1924.21362817362,-247.74284684934
2250.47187862669,-229.185463676895,795.955132045672,-2.37090910070451,497.125985636763,-74.12887518823,15.5355198972416,-3.97012481604007,171.115742737924,7.10819792326626,1866.49357299578,30.6111650143659,1226.0837067378,-79.9695762514202,311.874868588453,1.02666381773469,600.856646588065,-10.0078551765483,1632.6087857919,-145.070256174447,1445.80447631716,127.74231510677,1002.67766310602,-13.9858520386719,882.90764190601,48.5083677655043,320.230414816681,-53.9410118832086,1925.13923679828,-247.788778895103
2273.91473821788,-243.151047639987,803.3921726768,-3.29932318270077,488.741506624982,-68.7824682728962,15.1566315101576,-2.65970050338153,173.055316806861,7.41953823466275,1890.73429038665,28.9185736545016,1235.98260201517,-79.5331870634203,313.828436512139,0.759020739826981,605.740791755511,-11.0794469997657,1643.3899414017,-146.507642881898,1452.34366341998,128.136304135805,1011.31979792845,-17.1655998626852,890.719474726642,46.1702935826238,321.996643852099,-54.388565257054,1931.12243822023,-248.501367862143
2273.07132084359,-234.011756850948,816.764324449484,-6.31304763249943,507.135414137812,-77.2992555569037,13.4504848267621,-2.11178652432177,176.421947242713,6.97471463184984,1911.64745899111,27.3160412285035,1244.19749214299,-80.8704056936454,316.505517923246,0.355946849698587,611.718788946346,-11.6196314828219,1658.42257215935,-149.949387901349,1463.98735164293,125.816135631178,1020.05488003813,-17.865863288776,900.527689615737,44.8322271205776,324.336775776033,-54.9526042562478,1942.74759832528,-250.129507010095
2285.9245901074,-245.649413003642,804.978816712058,-0.27454598200004,496.545136852406,-73.7332225790519,13.9981322032066,-4.42954983493229,173.59249950392,6.94940686644123,1886.05850797211,31.7840503946241,1240.56631629298,-80.8961647650389,315.058711521202,0.121760262856611,609.298462753997,-11.5178722574283,1649.56150415813,-148.102320974956,1455.80291310105,126.899460969733,1020.98595738464,-19.0537168258495,893.068353782433,47.2555203240661,324.737153661349,-55.2046878076736,1940.33006604197,-250.070381908086
2259.69103790818,-235.012561888103,803.935505246714,-2.99525833473055,493.935180299323,-71.4370826330647,10.9629514449142,0.618266033482447,172.236995770946,6.84715182676691,1870.61874789689,33.2700241931521,1232.73426064468,-79.8538300848047,312.780887675244,0.702879729612773,606.395933317544,-10.8066782342356,1639.24872604002,-145.479179109428,1451.2156843558,128.057485221705,1014.79372996042,-18.8108462259241,890.073370139604,46.9018259508586,324.155567370396,-54.9532652209819,1938.77306306476,-249.429832598171
2274.55955009936,-241.083324309948,806.074126462593,-0.948614241808856,495.327185429278,-72.7306013579951,17.7191587319912,-6.17311798208783,173.857455241699,7.38206971990502,1888.05728105901,30.9770922519225,1240.15423350492,-80.267036557542,313.763889542672,1.0333627736566,610.822243306603,-11.613917958765,1644.85999949376,-144.201574619206,1457.09259590754,128.680355765834,1025.10232631398,-22.0271706614115,892.443672372231,47.9134429120622,325.382366159438,-55.29242411095,1949.58686233193,-252.670372140062
2282.82165767379,-242.582322519509,817.462595224737,-5.36657415310378,509.527295943143,-76.5087510612141,18.249618041514,-5.40918242110579,176.294524338966,6.85721805808844,1911.60069200395,27.2701425353587,1249.37403234219,-81.8757349200097,316.645408912133,0.224402228468282,613.322522099689,-10.1326076855421,1653.13974219634,-145.400689722853,1463.02582326546,128.063163672328,1024.42611906312,-18.0781289518921,898.041766395783,44.630727631839,326.62459205822,-55.4892905129723,1954.72732341285,-252.778405450829
2269.56117005021,-240.187783253494,799.902353206947,-2.38198700239272,494.743223616835,-71.2308446785358,16.5470009617417,-4.57756908474544,171.697643929756,7.24148977196384,1869.32765304568,32.5597238768994,1236.32949468464,-79.7335905820524,313.258579322306,0.430708021279295,610.008493576984,-11.4374238802494,1637.90506156739,-142.825807132692,1451.27661974387,130.093695100911,1019.5518471323,-19.8853360558067,888.2927468185,48.8975331308287,326.439816651418,-55.3968251236646,1948.67855989316,-251.492951922878
2255.89697290425,-227.178120192801,803.075558982278,-2.517895053429,502.093588680949,-76.4419688327414,14.3861662226681,-2.70944641247802,172.747836403967,7.58378069505888,1884.45324575462,31.1945121217365,1238.79945367871,-80.4298212143591,313.267496458632,0.936358844216351,611.874136139799,-12.6211288872297,1645.10730788972,-144.565838439994,1455.54918947358,130.148511098914,1019.42345629782,-17.5146909903815,895.657923256306,45.0448133477673,326.930635321077,-55.5442924211541,1954.83007598321,-252.961539538022
2282.32319080523,-245.619951754632,812.391948081377,-1.64837097082679,502.405418445976,-74.0419974037973,11.7009155315788,-1.80463591206565,175.614831528069,7.1450771022975,1899.74624780149,31.0531182763866,1246.98065761017,-81.9656845992716,316.153416778732,0.207327077184516,615.345337468326,-10.9681601742141,1652.93842378449,-144.837409227384,1464.21836326805,129.277538842436,1028.48715034058,-17.9258264596994,902.328082578637,45.0141760648548,328.925494316168,-56.0104927765553,1963.12741499202,-255.102795929677
2243.61232137191,-219.856006518497,798.308598133569,-1.92728752503182,497.481212099838,-69.8078857183248,12.8654460176764,-1.50668513615434,170.497937839864,7.45407796442913,1859.25648291874,36.623002461245,1234.62676016151,-79.2273222773693,311.381767010825,1.27471085742159,610.29164967592,-10.3087444950872,1639.41144855611,-145.690494558893,1450.1112888563,131.075747236086,1018.5068115316,-18.7412016847136,893.927070155297,45.6533474955395,326.995788067479,-55.3746195079806,1955.11231330674,-253.248330190502
2265.9615353086,-238.537139140613,800.368278640291,-0.847114958694474,505.468007495642,-77.9380780996369,19.2164177785572,-6.71485982431889,170.827597795659,8.11377976095334,1864.48167158485,39.6070366963454,1234.41062898718,-77.5879710496924,311.92536717182,1.52462364589714,611.946050740318,-11.0160322920134,1639.23370136851,-143.326727903321,1452.2750413785,131.56073105482,1020.24857415132,-17.3971963957804,895.062134122154,45.2937336242322,327.033133203258,-55.3724030210654,1959.69938497706,-255.034582896037
2261.14503694899,-233.044858435434,808.88171088155,-0.801442263900017,500.832620173974,-72.1682053358131,10.5619599619318,-2.34196160194126,173.672867161142,7.54906953266687,1882.99190946803,36.7209044218292,1243.46974292995,-79.961084538852,314.881348492703,0.804551398107676,618.036758919336,-13.376166932827,1650.44363062979,-145.199254538594,1460.81246056201,130.339826249029,1030.12037042846,-19.8997059447683,899.037708344751,44.8922631801205,328.842872026121,-55.9192805763834,1965.219408949,-254.377156896231
2277.46302143178,-237.352468645403,813.684502442063,-3.89913250008699,513.305696015926,-76.9903626234818,15.910340763199,-4.13546423463375,171.644950820225,8.02711335352165,1878.22431860919,34.0886514117798,1242.41450363036,-77.5112561439456,314.425349568366,0.869853182924911,619.489823477818,-13.1389625721773,1645.18703919515,-145.114110349319,1455.43965132724,131.186395582691,1030.40673650861,-20.4981161561559,898.590497715636,47.4658812731375,329.201709008851,-55.8284192318443,1963.04253269948,-254.066523735034
2250.73109657731,-231.95857964869,790.738851015067,-0.818009381319158,500.951666029177,-71.9180524090326,11.3762170947346,-1.32163670006227,169.027240798758,8.10095598486135,1844.12109055071,42.3015879218884,1230.81426386914,-77.9046167636723,309.945273822375,1.95813808275154,612.139181789281,-10.8424793217912,1631.73646872662,-141.246150882023,1446.15784573975,132.490236561927,1021.47782908304,-19.2115693843101,893.495171166204,46.1581070070906,327.087349779581,-55.6146203130258,1956.51792841201,-253.057929945991
2252.21075209665,-227.269838640504,799.924128000837,-0.973347887477485,499.705017255596,-73.3838117038806,14.5602541384974,-4.96468102527867,170.728606452216,8.40514037907235,1860.95170530908,40.8827612335174,1233.03884787452,-77.7049040505722,311.634253778403,1.9993192394218,614.791872106739,-11.7813672099146,1638.31892878636,-142.791528832796,1451.93766996768,131.235121701114,1023.77821518384,-18.6695334648589,895.518047970106,46.4936930408282,327.845014917052,-55.6999522598814,1958.01748006405,-253.136426581531
2274.78406742291,-234.95623811747,809.893424249569,-1.66203736423907,503.027020335414,-72.2498742568208,12.112713453761,-2.09464509692924,173.382759655871,8.00729547263267,1883.01145895243,37.9614286648665,1248.21400483058,-81.643375391719,314.247854450163,1.76598846887474,616.324938466876,-10.1966830522524,1648.50006730905,-143.04229369224,1459.20277709456,131.02938529216,1030.96098186145,-17.2265522718875,901.500320538136,47.5394468695625,329.417773179785,-56.4797923567141,1966.24059340621,-253.96075552691
2289.97986482784,-241.582358330998,818.379837844121,-3.19381359539995,507.786605254439,-79.1367432674528,15.4408892247663,-2.91566287471886,175.439270431553,7.90885716583661,1900.04388133282,37.2642968424276,1252.76719843911,-80.3186408639405,317.346238142075,0.906066256737328,623.250200064282,-11.3898220125869,1653.76062212262,-144.403874144187,1463.70317450556,129.809252629553,1039.18974622762,-18.8902277547351,904.473489254577,46.3038886676657,330.185474853679,-56.3210886587457,1971.28092642647,-255.001219298183
2259.04963372734,-232.113124642411,794.196351257908,0.483225000568594,511.495496292283,-77.804907546584,15.2064614020498,-1.63104509827209,169.06225550272,8.29088659484214,1849.75647851537,40.5238579338538,1230.69463354526,-75.4077716867245,311.074769920949,1.6086242856206,612.197773849132,-9.25932921850566,1635.49589715295,-143.397723148758,1447.47077829377,131.961824029585,1031.75594951529,-21.8866711212858,897.026898027043,46.1149727290315,327.479879540718,-55.668538550086,1962.81222145408,-254.759698989532
2262.23042047272,-235.835619475887,798.803275170764,-1.423459725488,505.900415216624,-72.9113990785764,20.3823677877075,-5.15683870765352,169.648339531327,8.76100083904157,1860.73463600757,40.1371293465607,1238.16367786519,-78.579988104955,311.868535767212,1.74854505491378,617.912639419975,-11.2187626557718,1635.2380110455,-141.307179780563,1450.46602478956,132.202647035986,1029.72666294628,-20.9518503213122,896.502973480469,49.1172238886564,327.243934564581,-55.4444966996642,1964.96144577804,-254.711571840335
2266.72389083307,-234.699747231466,800.690486390803,0.394780788153773,508.280664504665,-76.3018384082674,19.0491039902886,-4.97572856865112,171.897987438228,8.53293310782266,1874.92699912648,41.316304029055,1242.24418182979,-79.9890455929665,313.847952448418,1.23369247516353,618.355444842253,-10.1395161684717,1646.2465266614,-143.060790180977,1455.66213373997,132.416467190112,1035.42530470899,-19.0650204719247,907.032612265233,43.4560823682466,328.282789390752,-55.942407499146,1973.49415984092,-255.828281802458
2282.67787390496,-244.30958806305,795.126815414474,-0.144701762854632,506.737851067676,-77.5499317446985,19.1836345554652,-6.40686190091366,169.254466062723,8.58827275228408,1856.77500151504,39.1656793102198,1234.27865961932,-77.3635017991322,311.863077544817,1.46790388221731,616.63545671227,-11.5424470602234,1633.03125899857,-141.377525805605,1446.23580574279,132.360127008879,1030.97136556383,-19.2423243003912,899.665739998282,44.7764925252234,326.335291769247,-55.0798351463975,1966.08996550433,-255.084315839078
2269.17594255552,-238.837024260134,791.852160893248,0.358463959236588,501.912446024707,-73.4382281414086,11.5939420350474,-3.12590337005007,168.853587953238,8.69209146530125,1854.50934113943,42.9233039207258,1231.38226136312,-76.5234335247473,310.764887541096,1.89375368374686,616.925137402106,-8.86420897961245,1630.64735035155,-140.159615696012,1444.44169007352,133.49698539984,1028.52789730068,-18.0927875509516,895.999340411454,46.9203917627366,326.350049217511,-55.4131399105965,1965.96187408744,-254.595588832954
