2281.49873423056,-247.923109180882,761.403423060932,18.8630454552649,497.331855567155,-70.1277719240515,16.5652519540949,-5.44877556279727,166.008191138854,12.4690569769499,1837.70471450228,50.0092441224738,1195.50443061528,-59.0500044804732,314.676542071569,4.75804864586958,605.672313312789,-13.8894955223361,1589.30321429536,-132.445579130004,1384.79088888608,165.659847378082,1007.36836682833,-8.86741986532845,883.292920831372,60.5435434964077,320.367755089343,-52.3135120421965,1754.5517198959,-196.692528546243
2285.84116997834,-250.948510117461,768.546159624029,18.1924373545177,498.070752857891,-72.5818054644945,20.4543647717569,-7.11547764372605,167.645186739005,12.7245106372019,1858.29867275317,48.6677280019391,1202.10565952764,-60.9374002208488,316.072855543098,4.7360679432694,609.819866652782,-15.2920853943345,1603.38926397718,-137.541710214988,1392.92284308307,164.427006335213,1012.19597005499,-9.24525222907981,886.751358156253,58.7884427852743,321.348022791535,-52.924006131237,1761.5819410536,-197.701160027168
2278.16972218635,-246.102328884565,763.824279311847,18.9133211970987,491.367955911132,-64.0451838384251,17.3561536766664,-5.45452457856515,165.322908300617,12.8047701591109,1839.47199024435,49.0046852372828,1196.70912258509,-58.7694653820912,314.946972493894,4.67333206809905,607.070361301976,-14.1668912524328,1596.23301521348,-139.006393208529,1384.17320046899,165.016874383155,1007.16323685817,-8.6703518934315,885.033077806371,59.6485457459053,319.824834059592,-52.2627515058327,1752.30467514592,-197.061344213248
2256.9784301934,-235.553970250822,756.682065817127,21.1073457248958,490.948164113191,-72.075199023394,14.0040510746064,0.259284481010471,164.61868447765,12.7776807257861,1828.01242495853,50.2744298487597,1191.01661940489,-58.2306439090213,313.320835297719,4.95573874671328,600.990853267859,-13.6506119333833,1580.26044968191,-132.920601728871,1379.16437710015,164.906014953621,1000.05453281532,-9.56804115862582,875.236582880017,61.4231924698269,318.66444829785,-52.1828108539113,1743.68490077406,-195.38769570707
2263.31077061708,-239.913443756743,764.402389129094,16.6003579216797,495.700804737809,-73.2094937127466,17.4140001839521,-3.69784074755135,166.945376257541,12.1766893124083,1845.93839051675,48.6680664560264,1194.43353728176,-60.2454762724877,315.071294325747,4.49902914852364,602.908080407102,-13.7465601394175,1593.47728508532,-136.824924082511,1385.02079505803,165.905413582386,1002.64995972652,-9.21222429381581,880.143123232619,61.2693204131118,319.622524735847,-52.5412845330984,1746.75055013744,-195.296738015572
2272.63414302151,-237.908728197335,769.861519806762,16.2699423004641,496.561889728686,-70.3753766613463,13.8258063653069,-1.04063107810547,165.777939802364,12.4387403388781,1848.26867946794,46.9124749572512,1194.26824760287,-58.0378418169055,315.134155079291,4.7240842062835,606.091883996653,-15.100466715595,1587.15628666779,-135.702886827067,1381.28517260142,166.399320909115,1001.60568097955,-10.2733159754342,883.592158273695,56.0668864084127,319.110813341085,-52.1321321216535,1741.70339705824,-194.260244755047
2267.92704961828,-247.623585671584,751.673332767438,20.1821939944265,488.66303014192,-66.5941146799367,18.373600504386,-3.78956501236389,164.295096857859,12.6753483394052,1831.05389570324,46.6849957530303,1180.99489874146,-55.1887239760894,312.838172939551,5.17133480251909,596.675041786413,-13.4518523651488,1572.3729055573,-131.247102843116,1373.58485266214,166.506408944622,991.970428743387,-4.70399653513609,875.520381401215,60.1740097924947,317.113042511737,-51.6453846277269,1729.61066952966,-191.176928823516
2266.42666919853,-238.914477646007,757.99071922324,18.861048120308,490.218646113659,-69.9961446993644,12.7948348267261,-1.23843343917003,165.687276486557,12.6495689899726,1842.25216049333,50.3805030274853,1185.75521503107,-57.0138185076944,314.531771252032,5.06987458683632,601.936352218374,-14.8435965261555,1584.23350185587,-134.737278965715,1381.01115735264,167.277128917212,996.219724151176,-8.35465510869193,879.55778561416,59.9654986724181,317.494261023193,-51.6487006489174,1734.57100247493,-191.871102912896
2285.32918829436,-250.686409155089,769.474806475419,18.4910780162673,490.94300006024,-65.9229205695573,13.0073583370586,-1.81349750812839,168.20436028609,12.6832184629951,1863.27772254207,46.7317642069004,1191.64518494476,-56.6206342774954,316.926789353876,4.61847343549403,603.955307256231,-14.2603454174491,1598.22965496115,-136.184053108106,1390.33614743718,167.105290050893,1003.19571379459,-9.80071566773592,887.780352371155,59.7178504366168,319.291706020199,-51.8360815071611,1741.63173649171,-192.782885401284
2260.89639702196,-238.198712579982,756.60377959487,19.3939318754058,489.229953825841,-71.7245828981317,9.79898115485202,-1.18535515773696,164.266794632024,12.7025307042207,1834.11879513787,47.8775491001332,1180.23720331601,-53.7886700509846,314.690594467386,4.56510247635856,598.028759042107,-13.7971824372095,1578.73339548933,-130.588977439773,1378.98803295654,167.075316960254,992.053762363486,-6.54324587721293,878.65680472274,58.8708974852385,317.377554887568,-51.8429567845641,1732.97537833099,-192.438548218725
2265.00190492631,-242.475672841723,753.346517821133,21.5777966185023,480.50002904088,-64.1457778521605,20.3747343459575,-4.68442543297392,164.805663875943,12.7486010578042,1838.94819766789,48.3451575240801,1179.85395814608,-53.2170240903634,314.252036628913,4.84276772490176,596.802186954139,-14.541009378236,1580.71543158383,-130.278443864049,1382.28423957412,167.664260949269,990.847750965147,-6.49362461028569,880.746393293653,59.0486086353352,316.666848691028,-51.6574854145568,1731.84043510625,-192.046101536342
2292.36834297963,-252.990731452878,765.74176104383,16.5341594663539,485.659018879649,-62.479078828858,17.2932664099487,-3.45318932794774,166.714933913167,13.0236018854724,1863.17134685423,45.6639755557042,1188.00938556817,-59.0709321892533,316.720124360651,4.14413860086172,600.183722173622,-13.0443023304029,1594.9339543097,-132.825990063785,1393.07216481953,166.321429023725,996.34038543728,-6.13756382085472,884.138748355309,58.8267012095682,317.425630208821,-51.6585230514287,1738.38357826571,-192.533430053974
2286.66911707666,-255.453194374945,757.335787580333,18.9367436031308,473.393800439238,-57.7173321502729,19.8581137805207,-5.65928630826536,164.907674603923,12.5823581652997,1844.34924145053,47.3799350001893,1186.21322519215,-57.735927514857,314.716961963483,4.70459880078965,595.686589390322,-12.6018015125274,1588.19115752905,-133.02145825987,1384.38679772503,167.031153339954,989.47264615776,-5.91842244135332,878.035282559436,59.9142347992461,316.598782567599,-51.5233543636258,1729.82237749781,-190.68981269665
2261.93111941328,-235.292856123587,758.221794164952,18.6559511628102,473.881547578518,-62.0449519538107,11.0933539862872,-1.46370168083902,164.72501017059,12.9909609981104,1844.82299042796,48.1993855837517,1180.60617886821,-56.3333895975921,314.349494191015,4.36704064955221,597.861136304909,-14.4205411036116,1589.68616045408,-131.059783713784,1386.18850062856,168.009092784677,988.975279797937,-6.89683430001237,877.620577762571,57.7534931451677,316.004363955821,-51.2839199664775,1728.30713876553,-190.634801394371
2291.78011779885,-249.634478305477,763.115868718445,19.4441346573011,485.849769620473,-72.6208448605912,19.3173232401521,-6.57732452661172,167.122619356317,12.5362808851453,1863.39285488596,46.6150633987808,1191.76076718243,-57.1949406198042,316.623341404209,4.02745859282776,601.874713904967,-14.0610288859183,1603.74866395086,-132.759713202501,1398.29061928754,165.954167342622,995.136209660243,-7.11633167197931,883.274517402939,59.1087267181628,317.033439458829,-51.3609865882141,1735.72963550242,-191.824875314913
2295.98455158463,-248.443749874186,763.674184246124,17.2113826770353,486.386501402167,-67.8026876450791,4.49868867149365,1.80194452858221,164.924044976635,12.7297748309584,1855.22565193419,46.3805906170461,1185.15125222555,-55.1550808273245,316.10258182185,4.40947436109658,599.936975520102,-14.0088259241532,1598.93768504189,-133.910602926497,1395.0929829016,165.482107784418,994.260008658525,-6.79595220109269,880.729125561432,58.5970754380298,317.31762630689,-51.7609517453769,1732.08261718265,-191.989568798241
2293.37525904161,-256.218315125243,758.331602846377,18.0499547520223,489.338585270403,-70.2038284957327,14.8486661322237,-4.55287690273732,164.016222965052,12.8917422976785,1840.74188483182,48.9670864731838,1174.5099602162,-53.0958021513937,313.551860870894,4.72213264497964,595.058337789602,-14.2407058867343,1591.19343767516,-128.83207814824,1390.7924034312,166.214279079697,985.734264091655,-6.56599544136697,876.463229569251,56.4942580837894,315.421100344771,-51.2341177512175,1724.57105869783,-189.858482633696
2291.52300354716,-248.409441202387,760.421187007971,21.0230808480773,485.608369871431,-63.9598150121084,13.0588533161588,-2.97414637269503,165.671442530571,13.0635320265065,1856.2793619045,52.2926245173308,1187.42018149892,-55.735307871208,316.021232404036,4.20413386287898,598.102189946871,-13.6174092239238,1604.24788232432,-132.525143782614,1398.39953527837,165.831900754002,986.920326409623,-6.79187463964562,878.833968016207,58.8356131980569,315.760084702724,-51.060439858319,1732.69226944551,-191.203500104858
2318.15016157038,-259.873168878822,771.332623876478,19.2144748982138,488.638995126259,-68.9033453166812,11.5278250482839,-0.0393102770308105,168.362103514383,12.6920175166821,1881.093917951,47.8268421353679,1194.99595263087,-58.9547233475616,317.673240261086,4.67601130413927,603.32372513473,-15.802807481139,1621.84135329173,-138.135810976262,1410.17814277081,164.939586962517,997.628498667628,-6.25300869874356,886.752665022825,57.2448454580227,318.163648500832,-51.8383527375084,1738.75858745684,-190.963760887219
2292.75387730101,-249.53391827808,757.063909725149,19.7012425342959,485.66188611254,-65.908383412047,16.9787802383007,-5.36041445831158,163.916472785,12.7004902519258,1847.77423888713,46.337702732784,1178.8852739574,-55.8540441075739,313.593625594996,4.59883795430103,593.604163208616,-11.6826482985609,1598.64171315577,-132.016655206398,1395.46333184874,165.96243155913,984.491775851386,-5.32665235391193,869.89795212951,60.5783118525969,314.984276640069,-51.0094858536896,1728.49424669592,-190.570291737742
2286.2245615536,-241.913932923262,757.428801033504,18.9684009656775,482.329516344652,-66.1305595804486,14.7222456753044,-5.20630068306189,164.534050826324,13.1642791902133,1858.91721123044,47.7024246595739,1175.55325896249,-52.9178189176538,313.515755855433,5.1593960882429,593.173057885441,-10.8983552480353,1604.10277097111,-132.651638226696,1399.68033228395,165.519138218063,979.865709112369,-2.67026448885668,870.627721350595,62.1918018551559,314.221260189032,-50.4324064090957,1731.79199885371,-190.421250257269
2311.12973460975,-257.487801927419,768.828845397408,19.8589968754299,484.570844111972,-65.6880213679183,18.1416370678662,-5.18042466006651,167.725657609827,12.5763022260274,1877.51967161364,46.7215554224576,1189.76089296306,-55.7432571592532,316.476039419473,4.40390886151314,600.052349276042,-14.2210554519397,1618.1348879464,-136.082056372251,1410.26363454173,164.101101374028,990.548885962448,-6.60904115875661,882.125140345716,56.716057429151,315.896778032436,-51.2183118293703,1742.1510605893,-192.619798908368
2322.25496505802,-262.055214399789,763.385853294951,20.5555698774506,492.322794481983,-71.710117605689,17.4097031255296,-5.18234719901496,164.894713204567,13.1465473615432,1864.91849645284,50.7380751741803,1187.69793464337,-55.5020867068005,315.76323153203,4.48931982799952,597.397069410655,-12.8506552789984,1610.58266292063,-134.49997104057,1406.18178211315,164.529910177068,986.725329818111,-3.1772233812454,877.22432523198,57.849220662728,315.736408068811,-51.1423895319897,1741.16652697062,-191.949792494976
2301.54179826622,-251.624648576107,760.52786524128,19.5467945019186,487.290710008001,-63.9103310178756,15.370808686209,-4.29720552066922,165.065561847166,12.8313651122472,1855.26943349118,52.7220579713883,1178.51862721733,-55.0013457015941,313.94859671022,4.89408399379138,595.307694956819,-13.2910473333454,1609.38139807358,-134.436595283294,1403.58585770228,165.051081696842,979.909071365178,-1.31326266281995,875.690350554738,56.256939570433,314.241568671077,-50.515643175505,1740.86900689307,-191.638278959099
2312.75931773782,-255.817998345759,764.897264653574,20.9980925223755,487.574977328221,-68.1758789835921,18.1966102816831,-4.42700191493133,166.955468802135,12.9592390357989,1874.64903535797,48.2840435771845,1188.43117648091,-55.4205462111886,315.369571905905,5.29839947172357,601.334604668614,-14.1875608979889,1619.91799358215,-133.666139481758,1412.82218565083,163.997776280094,993.253045112614,-7.10557815820467,878.635215188182,59.2638733079617,315.726593554331,-50.8918325758179,1753.09317826226,-193.919535864876
2321.90139601646,-257.876910971409,779.383762045536,18.0038667293803,499.28468785279,-71.1289648008507,14.424346747224,-0.844860082982774,167.875270737242,12.7425557007928,1892.91761425599,46.2828280576404,1197.08066766875,-55.1867334469958,317.731359380611,4.57196362947849,602.512028767362,-12.9934108515015,1624.8631076535,-137.437575364305,1415.7218633132,164.233466818774,996.236671183955,-5.89244498998688,881.689581899106,58.6079537195142,317.195673797125,-51.3387781731501,1758.61150207903,-195.052499404263
2312.99129426307,-257.694677541672,762.994382110081,21.9798423585248,475.759825464025,-60.4151024209347,8.74545388987844,-0.334686621060644,164.926459075092,13.1818815304917,1864.96005834968,48.7514505963617,1188.24249438634,-54.5945843952937,314.137922245767,5.12981482109719,599.797710612966,-14.072590417684,1617.05410674253,-135.175607775519,1410.77947918275,163.774993553924,986.271636051538,-1.92699388171659,871.592162284273,61.4552896312564,316.549987289343,-51.2045407457772,1756.34117964217,-193.783471460181
2324.05768991597,-266.223525639985,772.766954669027,19.1801900715535,496.411211528669,-70.9869796327177,14.4811921830058,-1.71773103675899,166.875130432763,13.2610089428954,1884.50045479318,46.4959187939328,1189.46047933608,-55.8683791241303,315.851491670274,4.71548910162357,599.827287557646,-11.5657180771525,1631.57189441045,-138.539452723988,1416.65733856538,163.31201810036,994.645844178674,-5.97979479251612,878.573656232674,58.0812334931175,318.028471315355,-51.795991896506,1767.51175548998,-196.3864360603
2321.16656221813,-256.854689212244,780.747003003482,19.725268106029,501.06993403772,-69.1430765588254,11.9832638348961,-1.35418409570092,168.540718955377,13.3246027508129,1905.8363860435,41.8481458219678,1198.55059139717,-54.6978620672633,317.271522982165,4.8386042786774,608.327031532539,-14.8303427239519,1639.79814136254,-136.536895918879,1428.24359044705,162.196950823632,1002.81397456247,-7.03119718827451,886.951041318657,57.9088905630775,319.746285825528,-52.0368406026641,1777.10814483484,-198.609645672418
2312.79948186076,-257.739822438509,766.678867436925,19.206823394622,502.454900673786,-70.4488619217374,15.6328825292058,-5.76792066293237,165.511598573425,12.628403313862,1866.01235308588,48.3233523575771,1186.52162588233,-54.4471124875299,314.02895825282,5.14538382805608,602.550135067205,-13.262643060454,1616.77731858579,-132.700528599996,1410.22770092149,165.312619842803,992.316606669545,-4.59354492546912,872.11138531055,60.848011889875,319.239686092518,-51.9678704101168,1771.02821944373,-196.835457958937
2310.09606584155,-252.987519078817,766.284195250319,20.4474380374604,493.546318401612,-64.8787394674225,14.7453661988266,-4.83091682876953,166.14987500131,13.2444832995565,1874.34352965396,51.2520486010413,1191.30073791074,-55.3207745216119,314.800606931496,4.91895384600592,600.007514483282,-12.3520420660091,1623.79621568181,-135.37570357565,1415.0230899428,164.851755218533,993.7175032123,-3.55335660483203,879.678481196312,57.8099337752044,320.592319671112,-52.2621287992927,1777.63664910746,-198.169514271744
2317.40935071249,-257.691012777282,782.010343488867,18.4389599226996,495.035410571662,-70.1719674825236,12.9333351355035,-3.80363213064391,168.591264481653,12.9654608279592,1897.2323701327,47.1011610799168,1203.23104099308,-56.6818198492294,316.965874245483,4.80303306708615,609.602928567979,-14.373870572655,1638.21857123384,-138.238788674233,1425.2150961968,164.029707370503,1006.23212593296,-6.13395806919968,886.284684788377,59.3413687713742,322.136848431765,-52.562371329889,1788.98628830123,-199.294349526789
2312.46053168517,-253.811534807841,774.871244137302,18.4971037821034,497.705621959525,-68.1035083608154,18.5624356366483,-3.43628201756461,165.428562958929,13.0504823672467,1869.94130830394,49.3535775225797,1197.02321612862,-57.0311716025201,315.054151082424,4.8072236423792,603.773799045618,-11.8343296087732,1624.36578941674,-137.224855424092,1413.00533703615,165.467142827126,998.913070366612,-5.0151020794234,880.748298839569,59.1596751868812,322.61896833274,-52.761166815808,1784.77001970113,-199.151904424868
2312.12497004067,-256.582873436027,772.419271809543,19.897406884192,498.170200563389,-68.7175178745827,15.7615135167899,-4.79845752099195,165.976030759248,13.313181797699,1869.78193587581,50.7399652146943,1196.43433495696,-56.7380866119057,314.384225097981,5.54777795222901,609.01842695801,-16.0225202010067,1619.44620471836,-131.656079809881,1414.88520371998,165.01081899873,998.342907888653,-3.29437510656716,880.678422908794,61.1447027992361,322.469169730207,-52.5172104867521,1789.16914437789,-199.62488818985
2332.5703423096,-268.762397053791,781.081974605779,17.8775717166747,499.819280646776,-66.6317436459666,10.6652975806842,-2.45777468967466,168.343496171021,13.1776684438437,1889.86443689966,48.1811253122404,1205.05685269244,-56.9660599206091,317.14909762229,4.76648751787849,613.378481542632,-15.201237304412,1635.49439229061,-137.70180068186,1422.08921907467,165.297126721297,1007.95045827844,-4.16438653040325,886.351788517928,59.4692657305514,324.683665315752,-53.1566934003802,1799.44611760309,-201.687669185041
2322.69418750988,-263.703229581182,770.657388085453,21.9143528834692,501.445003425004,-66.4803770660896,18.2809753744257,-4.5191189404254,166.132245466545,13.1405237462677,1878.81407204736,45.5350536258883,1197.12036492516,-55.1980950706301,315.399846745971,5.07341868219438,609.285905645528,-13.2502335761228,1622.44009181569,-134.362318697762,1412.80691210582,166.102122540993,1005.63973667276,-5.027076882739,879.807927398601,60.4710994890961,325.054960304869,-53.2538517948208,1798.08421430625,-201.639463959803
2315.48497020159,-262.106087840194,771.573188218881,20.2078425849114,493.231702996583,-63.6163603970657,19.9327509544675,-4.62912122260488,165.909059405366,13.5050849411005,1874.42035445145,47.8334598428337,1197.60197584682,-53.174392345076,315.054747948873,5.40420611054088,609.592483648203,-13.6023325161293,1624.44162483263,-137.519017705264,1412.65984562598,167.111455088788,1010.346248002,-7.27056348085776,883.96405482826,60.4757915835135,325.791143341981,-53.4841390621344,1801.35698446391,-201.641894787072
2304.15284918132,-248.226932411919,781.575028542652,19.1573094270508,508.623059482826,-75.0020930439105,7.58609807814235,0.724854697239903,168.745227283843,13.1181930594409,1889.59220088609,49.1837776938944,1206.06362299345,-55.7691387411914,317.250113502309,5.11317065643685,614.48578721649,-13.6953473108676,1630.34451668409,-136.054767301586,1421.49562965753,165.272147889319,1018.10948784921,-7.28131116210524,894.227586997722,57.36574800622,327.289562773549,-53.7934375871927,1810.98279896388,-203.16892695635
2316.11270277416,-259.953257572605,776.287560432269,20.1942697705504,509.309271771734,-74.0588981929674,7.81612578819115,1.08851581042858,166.13682299856,13.0425639500664,1871.43534481433,48.2591608944866,1205.04780696281,-58.3910472003126,315.206380787351,5.53973908967985,613.804579678114,-14.2848334152162,1618.37085578937,-134.403974517402,1411.14007439435,167.33617799604,1012.46007309125,-5.76784012808413,885.228006233039,60.5545232873713,326.608587772302,-53.5025459190904,1806.86469609531,-203.405375014549
2295.80853005807,-248.758664219321,772.584254459437,21.5597872960916,509.830484685765,-76.2946066994165,21.2318480447947,-7.22273893954887,167.164513522634,12.972757777821,1872.12830373519,48.512765846513,1200.71002274267,-55.3120826871067,316.106736017254,4.58725634322704,612.999830077686,-14.1985838537303,1615.82546549468,-133.183487326695,1410.15438939403,168.696340652487,1015.74081621937,-7.66106076087881,885.344685601703,61.1346293429097,327.506960594022,-53.8439996786151,1809.44395189118,-202.890214930652
2329.98711502407,-264.728490879824,780.780071927847,21.5598217368078,512.499654988348,-71.9244313190808,14.5296346397728,-4.65103158140811,169.30560111713,12.7925907465017,1890.0302268449,47.8028724021039,1208.83578120676,-55.629953078922,317.281538510989,5.09905680654596,615.857400282308,-12.4537903873229,1630.34332339385,-136.915320429544,1419.52915052603,166.998192420708,1022.50299972925,-7.29820841009819,893.9784349443,61.1226809068023,329.480357134183,-54.1566723897605,1819.43056369053,-204.811192483348
2320.03897478441,-261.452290181283,779.024599374801,17.8807497790804,506.047915376706,-67.0668903800608,16.5469419257703,-3.86521452536372,166.542283673368,13.1126110130496,1874.14321344066,47.5891947697469,1205.49452026194,-57.4529875946499,315.894571215273,5.33240373909138,615.560433105716,-13.8529134033326,1614.95049178061,-132.384120662011,1408.97669160081,168.220079995721,1019.10169548034,-6.47440039223284,885.428470420254,61.9057370396663,329.222320097659,-54.3202345673269,1811.77199467155,-203.928201806799
2312.66664870326,-262.175452231917,771.364721880799,21.7972635116747,496.267347120263,-62.6481921226578,11.529972207002,-2.81308477430603,166.534062445756,13.1741022219403,1865.84735775728,53.3145645058665,1200.28543081554,-54.2984293716764,315.280332061953,5.49589485896774,612.679810953544,-13.852040435525,1611.8995322335,-133.822662172966,1407.79493135213,168.235386020994,1021.65847126262,-8.28542301047834,885.257657274321,60.2662243570008,328.201828582532,-53.6309811647461,1814.38931406352,-204.648745555865
2327.43729858669,-262.179074542764,783.640864643116,19.1858462794414,506.812025441159,-66.9244011149317,17.7424116909088,-5.91254746106681,168.79797881515,13.1112549444239,1886.44441663674,47.5446370646231,1208.62416480042,-54.7484875721377,317.482874558565,5.34472264513886,617.644955440703,-13.4970130017488,1624.34657261386,-135.415460228468,1415.76384845716,167.007753061052,1027.15853451637,-8.12875424674063,895.959259379926,59.2595398954771,329.964946809979,-54.6275209602137,1820.45806118505,-205.275067376764
2334.48844368635,-265.863564057943,784.06885558976,18.1472660893614,515.353940864748,-74.8133589202062,10.071056882721,-2.15610605013184,167.477535320645,13.0548784308048,1873.53751954189,52.1142782418724,1212.54772437615,-58.6939473594667,316.722666789223,5.46783743738316,617.567829878755,-12.69436688813,1613.6686191957,-132.47291870864,1407.97047161244,169.207415372138,1025.80179019224,-8.69046640510497,892.660817575938,61.3010960523286,329.700992369255,-54.1669681985425,1820.14186139949,-206.476885609216
2310.74846675874,-255.882832457765,772.628975720383,21.642110124366,503.412212602798,-65.3814395734111,10.7086876769333,-2.36036790260103,166.998079941637,12.9417348219393,1862.72067079012,50.1072393022503,1202.21686534657,-55.1367756566605,314.904886226834,5.55392740020613,614.928022945493,-13.6593110372752,1610.01519931475,-133.835816562842,1404.82424799657,169.232491064682,1021.72113242316,-3.71511737314555,886.575509315379,63.7462174192221,328.678685692558,-54.085279489301,1817.31343042665,-204.678971753226
2328.12300251668,-262.905948006347,781.410216977016,19.983696059423,506.280859856837,-71.1422317172522,17.1070619062023,-3.79333525833996,168.905147641064,12.9446689942634,1882.96055054441,47.6584339666044,1208.7680856,-56.4085291845031,316.736903758909,5.48328888504439,619.725603881089,-13.6441620632257,1617.81812834206,-132.140584315406,1411.25975465968,168.275312905354,1031.29680690596,-6.54235766663763,896.228741837979,61.3248338628145,329.987994217907,-54.4796900543599,1823.88968759789,-206.656707597034
2331.52766590962,-264.195496540952,781.501107536162,19.0507589144192,506.635534562836,-67.8569395220175,22.2757583132596,-7.16945583245827,167.169970840727,13.1682808240492,1870.99842572226,49.5771575561149,1209.64068275874,-56.4904861732055,316.32903347637,5.7750835682626,617.683198717169,-12.6682139870275,1611.96022650415,-132.503743337259,1408.0164313977,168.244622041378,1027.84738022881,-6.40089638443266,890.170832467762,62.4046914778654,330.170538357067,-54.3961801928746,1821.77595083329,-206.167351196304
2311.07311953733,-256.138120884904,774.440043528895,19.0125161243977,502.073957906585,-67.0579684881407,18.1251756060673,-5.07952407751284,166.559765191164,13.0414097140158,1858.03176360071,51.8184721488115,1202.63486639883,-52.4806200482707,314.709194499368,5.85238544446891,617.973861017933,-13.5819763094185,1602.99799869925,-131.412582560809,1403.13594953849,168.731593329252,1027.19726676325,-6.96235087007627,890.483292340007,61.7660359781729,329.30563517828,-54.4316495822781,1820.12105993766,-205.783618518148
2331.27501726395,-269.69882372528,779.693483074204,19.9871675476676,508.534474817631,-66.5630414745127,14.5899474404002,-4.08599199656194,169.520443831407,12.606403755597,1875.37257880753,53.5016729578358,1212.63458826494,-55.9646692051399,316.841765451858,5.35335488391405,620.378254562149,-14.2837036670174,1614.63373034724,-132.852574204267,1410.31933444722,168.066753376443,1033.41308757667,-8.47815595651205,895.521110574542,61.8906300273479,329.554024107916,-54.3709515577788,1827.04146922432,-206.644204362064
2331.35987697086,-266.818447785036,781.806621676661,17.3710194752111,512.059627312173,-73.3480612282276,15.3257445400257,-4.49350269109798,167.36337373292,13.0511155712545,1870.75811658521,48.2213821061667,1215.42987477574,-60.4125049682424,316.298260900628,5.36895101994165,620.453247568293,-14.0235573360846,1607.9607449656,-132.15525847502,1406.44135725183,168.378749708761,1028.76229167626,-5.47531951520434,890.37888670908,63.4797441598364,329.334225831491,-54.0731336013481,1823.39288427436,-206.450836928815
2305.55237512395,-253.036583125704,771.446527808303,19.9382755522413,509.19886458926,-76.1976709300811,14.3910761502459,-2.27472747295063,166.481868749671,12.7041351673689,1853.13386511303,51.9692452133104,1205.22192452919,-56.4949805783695,313.372730331619,5.9765222907057,617.145449495726,-13.849877151597,1602.79106741884,-131.71132311266,1400.7105218766,168.360188574548,1023.99575730104,-5.98837277363418,881.967283833478,65.4210676362292,327.812524204881,-53.9959223449755,1820.90909976093,-205.846340203502
2311.38013247257,-259.613730911454,779.222912553489,18.4153471863937,502.361586695556,-65.3442536711461,11.2182351976325,-0.422326987246153,168.212455057609,12.9488414835107,1873.18793693854,51.880570028563,1210.6096459978,-56.6333445861483,315.724990485294,5.69575624733136,617.931273034353,-12.5823698007471,1617.82112270627,-135.027746949597,1408.11251684973,168.009956762641,1029.73871177686,-6.93563810366996,889.811327963855,64.4253382680504,328.200903549167,-54.0268430528399,1827.50800916116,-208.013228570859
2326.3128430029,-262.270515112728,788.308408403781,17.8197611618336,515.925952424649,-69.5590709399345,20.5293615194973,-5.03052948090132,169.305770029254,12.5996120605892,1884.23476585002,47.6718141278516,1214.21820376719,-55.8322921786373,317.239414705763,5.3492074072833,624.267889249075,-14.7383529127232,1612.2273452136,-130.271375600751,1408.28469618551,167.772329697996,1032.97971158117,-7.75211671785324,890.484577255154,62.9570491921477,328.725367295797,-54.2998743651804,1826.43560034697,-207.783455266395
2298.23879759875,-252.478108941884,772.381045147747,20.8570605084672,498.81830989761,-63.8453749953393,13.9083313411167,-4.0720503821034,166.19823577943,12.7922390306323,1849.3201822173,52.7779234211633,1204.30892694199,-55.7031962111539,313.222014397941,5.7536085053259,615.726195033887,-13.4462025551274,1596.94931781856,-126.806389531521,1401.09097929738,167.395889793025,1025.33710485729,-6.67206661477998,884.294405519662,65.7716226928367,326.649259367849,-53.6072365121191,1820.36872161803,-206.504963967568
2303.99692393397,-249.573423230048,777.991384586078,20.0262428060533,509.924479703204,-76.8577930290381,12.4170782831347,-3.20787297327632,168.408044398815,12.9712828030645,1864.24136613381,53.5488219854746,1212.05433898957,-58.4030312117227,315.366047782159,5.39749291666804,623.243287249653,-16.7609851141987,1610.47821335663,-131.994694474948,1407.18384690663,167.458014423236,1032.12017893408,-7.09680728707871,889.688806044903,63.99685429349,326.711207968729,-53.6312987388607,1824.91870756925,-206.140235775803
2320.12256957372,-256.972436380551,788.103631486638,18.999341417526,509.482702168874,-66.6116591301475,11.9821353182169,0.331423307896704,170.686896294098,12.717913270984,1887.40580602591,54.1565189722668,1217.44101388459,-56.0992159297355,317.450925824176,5.60075274999954,623.759470069734,-14.9143370651499,1625.45271800783,-134.27721662643,1418.11095599574,165.980825014912,1039.17256476475,-6.49789235378131,901.13401671178,61.4675561908214,328.696091640508,-54.5988046086177,1833.095860507,-207.869966213204
2306.7431273158,-253.065311589636,772.244596336681,20.8231638196153,508.902121730764,-71.8249642329278,10.9662684617407,-2.97921548701094,167.154111510404,12.6200546796773,1862.74776334069,52.6770307494129,1210.86049415469,-57.4581422311609,314.204877314512,5.72735141491748,621.530079635739,-14.4041554786192,1607.74918205392,-130.048502383809,1405.21429874357,166.992050227285,1029.65450179872,-8.12738256131902,887.250081923224,65.4039632889538,326.17120830979,-53.4379719973906,1826.91635699175,-207.422334726226
2300.08565311992,-246.052303172627,781.097926802337,18.774317333525,505.19395724667,-67.6106766825946,16.6608334281277,-4.15946496969354,168.35087490829,12.4332498771442,1875.03469817621,50.4551579173547,1212.30173491049,-56.240380147991,315.20779223391,5.59352448863086,621.790148560533,-14.5510146198543,1614.41978557028,-132.133174913555,1408.56690863882,167.306402738536,1032.34666729817,-8.70124803999323,886.562653307488,66.2917028850968,326.584474833236,-53.9064771756997,1830.85878232831,-208.390376836139
2319.80626311817,-262.739187634725,786.706857184865,17.1514141394228,499.923937144876,-58.942322846348,16.6012145289357,-3.82717917045808,170.669112723945,12.7305423334765,1899.55140428175,45.3967385795663,1218.51195381487,-57.3058716730238,317.169855207942,5.5308276716232,624.229547391174,-13.6542808355581,1630.17209916469,-135.632850561872,1418.1263042376,165.767434336876,1036.87693234861,-8.51682956982958,898.215014409719,61.5729502204561,327.13687392309,-53.7414773609564,1836.55460855052,-208.564443931636
2309.17572630106,-253.065665313232,779.448691392191,19.6631481565713,512.037851963375,-74.4850490870284,13.0750236732336,-2.72009029108906,167.257899253954,12.8399648346209,1871.98146779613,52.2011670817672,1208.77111563855,-55.2655342390837,314.357566943735,5.82900403534283,622.560303676125,-13.7952043088342,1616.15843416399,-134.499169121658,1407.53738793233,167.4088229629,1029.82209973528,-4.28880183517104,887.060347718489,65.55407813543,326.48986622612,-53.7697330590131,1828.61805258399,-208.531926007999
2305.001699693,-254.764351399745,778.43657235332,19.8394567538169,508.317674110463,-69.2526216271172,14.8783232325812,-2.63577139316023,168.790886757099,12.4672375977042,1879.09926318542,49.3250778924403,1213.72525554013,-57.6744515952701,315.372873224959,5.6835926119111,622.577975127322,-14.6590400564914,1624.42368152866,-136.600441825929,1412.97055958382,165.751834531682,1037.23051902165,-8.33262294538722,893.665986374048,61.5171857160588,326.018241549321,-53.6730023476357,1831.69452579957,-208.648038543833
2318.46855104177,-258.250732544712,792.438740561757,16.6246705749092,505.080214954303,-66.6752232617213,13.6786342983596,-4.55902830043369,171.146945407531,12.4560954390622,1902.28985271168,47.9136715373374,1222.24809462563,-57.6121907957368,318.039773627619,4.91769551898952,628.440138739306,-15.3377512533028,1635.03883260436,-136.852548250909,1423.25615286296,164.392698048957,1044.82418793415,-10.0785368538657,894.524077851838,65.4538361650412,327.52925690962,-54.1852353975382,1841.00378378725,-210.12365031048
2318.7950333231,-260.370374880492,782.682115549872,15.2312581084845,504.956892390176,-67.4890312033471,13.3610120064325,-4.18640381976996,168.096168936716,12.512092530529,1884.61436402429,47.4917261928873,1217.07410100801,-58.8245942719601,315.38667062677,5.34310721492028,620.533028773999,-13.159736341006,1624.65989535048,-135.599978095129,1411.6630039882,165.454340784525,1036.44574752112,-10.278573790427,885.527855269976,66.8256708430044,326.857177697426,-53.8041996482741,1832.10254561904,-209.371462431336
2312.10558181609,-255.685733575768,778.319076934545,20.0932399687781,506.817718512662,-68.5653093277392,8.98257766296362,-0.0438628372876197,168.324043408915,12.4775735804748,1885.20326193691,46.5304030534874,1209.41256806047,-56.0155162124999,314.581413772825,5.92970117381663,621.89913289768,-14.6973999681278,1627.67551713512,-136.437216508859,1413.82951989663,165.646371651976,1034.00017105767,-6.8936880681811,887.678060734047,64.6499545014647,326.50389111395,-54.0311724496084,1832.67878539827,-209.267197710519
2321.7037377612,-264.247152435403,788.111625503153,17.8197940164643,501.7156079752,-64.6031211018447,14.2189425363083,-2.61543058044469,170.59987089405,12.4716634839974,1908.04777629181,45.9571845535019,1222.01825316154,-57.9765183406318,316.426103550713,5.64265850293031,626.483686896541,-15.2101876297522,1637.52039508705,-138.08041900218,1423.03752834257,165.085079755156,1044.54723461141,-9.38324169945154,892.125029453368,66.728278615299,327.358141674974,-53.9771808065824,1841.20773861299,-211.323741596609
2341.63297856764,-266.302075434764,796.146818545063,17.3439599482795,518.07035651263,-75.6885352552085,9.10592982298073,-1.97468546556082,169.724795588589,12.2526474338925,1907.80200004581,42.6602506903777,1226.85366568258,-61.5361550069094,318.003956368843,5.20384331541821,628.60207501167,-15.4797409745477,1635.93417812281,-138.319175381823,1420.98553078522,164.960871614786,1040.71448480438,-9.26974530226631,894.513282749215,63.7682945980687,327.8271783498,-54.1162813791868,1836.39576187387,-209.854992145684
2317.59116523147,-260.297327769717,785.544837706571,17.5807765788303,506.487603616459,-65.5232758037951,13.5095473869698,-0.982078093345688,168.409841790047,12.4986586389983,1894.34755435692,43.0394877471755,1215.54089427174,-57.7600509742669,315.64333837634,5.33385408604082,624.122667301984,-15.0613155098473,1631.31150405404,-137.864216193392,1417.08464676982,164.58519814188,1039.03026634407,-9.85069667661055,889.264217338006,63.6644549323371,326.830790000793,-53.800158898693,1830.7868748979,-208.780072310253
2319.01728781237,-258.251790359489,794.218092707747,14.7461042012243,518.443909126212,-78.0999490610541,12.4442107126999,-3.57434926332601,171.509477228734,12.083698176279,1917.42301874881,38.9592173992788,1222.05499750332,-58.1406882432058,317.24770219372,5.42850817636013,628.110848769741,-14.6745696043096,1645.29990131306,-142.344089123387,1426.08289640228,164.109379068775,1043.04605968629,-8.78305839978625,895.228320275686,65.3057066445881,327.821740075048,-53.9953226555604,1839.08452504422,-211.167540752485
2338.97701872021,-266.746387341597,803.380184153511,15.8129636180741,510.24417407711,-65.3490711303331,13.1198517824342,-2.25893109588335,174.731484962067,11.6051906599946,1939.81883388942,34.6980344686507,1233.23324468618,-60.5062642336899,321.031705051208,4.56425551068179,634.144334988684,-15.9650268362456,1658.87582937012,-144.900494857478,1438.61981873828,162.694499559337,1051.60040954967,-7.66668623339154,902.570377829867,63.9998297901043,329.994712418985,-54.7310569644928,1842.66450687946,-210.533651538351
2323.86394339062,-260.569846126911,791.384573088103,15.6264746170149,512.752721824901,-71.7978215259428,14.2001186735304,-3.49320986680981,171.350837686796,11.5509667706354,1912.98545111828,39.382071844664,1222.9200001885,-59.4959586845915,317.703621112317,5.11500639008565,628.988680254578,-15.2876271222979,1640.61124552072,-141.28826446161,1428.84272715556,162.938000394849,1047.5127048337,-8.85558379283894,893.705755467852,65.8181863145796,328.832042649281,-54.4201295112876,1842.95563619067,-211.610213064657
2344.96495825213,-277.587079230328,800.475846400262,15.6046929032601,517.790245434649,-74.7923953592118,19.484908740987,-5.8684753082064,172.674748295521,11.8217004459229,1926.4538996213,34.2776005151958,1232.65343404559,-61.8533497733825,318.872145901072,4.70850865756333,632.876077668048,-17.3413038806366,1648.32330445972,-141.610062153818,1434.65949652044,161.963358778231,1047.44720356153,-9.35675369364804,898.485194228832,63.8501873705578,329.489984276825,-54.4968294142376,1846.829696003,-211.639833798765
2351.24582736199,-276.90049367616,811.369982976476,13.2524472719906,510.418474183215,-65.7174500089681,13.8556021142473,-1.40241113061039,176.221687114761,11.1839920507118,1952.18174299565,31.4538748555555,1241.42472264697,-64.1305685078798,322.035762766271,4.22497629902211,638.080821376785,-17.6144100312268,1659.72395818833,-144.794153597135,1444.22995945307,162.258790126376,1056.73419240142,-10.552366574982,905.721987522371,62.6001148991954,331.21349861716,-55.0296556369153,1854.71674045733,-214.261786133327
2329.0735257883,-261.726051772879,800.93267643924,14.4573061070523,516.961391847457,-68.4703312045075,16.8637025046106,-2.44565726364006,172.790018511677,11.4709325546799,1931.23339594798,31.5405935062821,1234.93084507247,-62.9021394551061,320.409414301993,4.0455554132945,634.154600008247,-16.040425555408,1650.60892178663,-144.417571368898,1438.16589088846,161.271749215214,1051.46005743084,-10.2930440821787,900.941304962115,63.8137697119122,331.524335096735,-54.9976674321252,1849.95184276983,-213.184996960018
2349.24581966228,-272.671223006859,805.6000613421,14.4137859570214,518.862542042654,-71.2722877007646,13.5009798247665,-1.94248935233901,175.339841151827,10.9890668060188,1942.85154824746,30.13055229922,1239.95745855619,-61.4269981116295,322.111395654475,3.90483751115287,636.254838402131,-17.9119240025261,1657.94834172347,-144.632897251922,1445.08904822493,159.753890477161,1056.5876485675,-11.0995094969363,905.149524754501,64.6712157525541,332.933285240812,-55.6003332103768,1855.96081243261,-213.365238943096
2361.90989940102,-280.479426398648,812.363025388736,12.2322738320598,525.972262482527,-75.1094280009915,13.447032753285,-1.9981858957786,174.465300119703,11.3063783986008,1946.65265634445,31.1697401902812,1245.06952479538,-64.6212922983606,323.160674048386,3.55281263972668,641.113584734774,-17.8221855630864,1659.20748633568,-147.072208226312,1444.34752220481,160.506885194801,1063.36028353707,-13.3844164120886,904.555727431197,64.7978504141651,332.76696061635,-55.3874033435427,1859.02492114927,-216.180731914081
2347.90868471245,-275.016233921817,806.709509604824,9.61671986195813,523.805601158182,-73.143532620786,18.8677754104952,-4.37918132425463,174.667805680267,10.567261352178,1936.15065422328,28.7859338610539,1239.51915872966,-61.6731068294395,321.728874465884,3.54072134848963,642.487934626295,-18.5629473886364,1657.30789788876,-148.13737048626,1443.38724929104,159.769598793601,1058.79706026672,-10.108899740795,909.841484327404,60.1520323104582,333.123235046582,-55.7387252287862,1855.43146624299,-213.893197814184
2354.82070049542,-278.428980150623,810.430954578427,12.0259007553926,534.945283677872,-79.3588919396546,19.9442421356754,-5.96482525475266,176.719136185293,10.6413267882096,1954.17382597199,25.9438160119163,1247.69359717985,-67.1243648877586,324.019116102383,3.21431863182139,641.283862269061,-17.210899209761,1666.13186053311,-146.64905311841,1451.49439358635,158.543144608459,1069.67669976403,-14.1783429348256,912.068330545071,63.2204606265448,334.750456193758,-55.7757336551328,1860.56644633192,-214.158534606205
2347.41203169083,-275.447949040059,808.663308238231,9.56025815964111,518.864039319051,-70.6978762558808,15.0953881938374,-1.10654688245685,175.314315195592,10.5469320594833,1934.09739974361,27.2091857354969,1243.57735859127,-64.0572139829885,322.500887820813,3.04516061506221,640.403276452129,-17.0627482557673,1660.80270904562,-149.620258331152,1443.90260638532,158.733328500278,1064.7512355584,-10.8160928341481,910.521726778941,63.0446049700344,335.030007392873,-55.9791207464185,1855.5858838004,-213.827752441618
2345.15410604184,-273.545198669999,805.608486773902,12.670535571271,522.553543865436,-70.2881912111022,13.7004112810232,-2.82189783652299,175.48853214488,10.8514339215195,1937.50485064701,26.9937929555147,1247.71206959772,-67.2655295336251,322.829149782989,2.99893114275656,640.393219585038,-16.9035694285059,1658.23068962647,-146.369947749946,1444.81877992659,159.664230490012,1059.06218217883,-7.71696595098224,910.404831240403,62.4650318392628,334.241181099454,-55.8921527174447,1862.72530379161,-215.741777337732
2356.15769726484,-280.85692716719,818.488866311904,11.2424666809848,530.133361642273,-74.6303654614276,12.5723538859586,-0.0224440173013844,178.554574277337,10.0758446320959,1954.0065831928,24.2407049944294,1253.88353709124,-67.3119229726692,324.699899813537,2.65759031428027,645.408170676395,-17.5435585271841,1676.38364687353,-152.36405887263,1458.86776955213,156.208513039608,1068.59147349718,-12.4703150401841,914.695318126016,59.7613279889197,334.913070681644,-56.0448520562478,1871.51163637191,-219.23732729245
2340.96753688169,-275.101962896069,807.987479835771,10.4631865648035,515.654482194098,-71.4946417612468,20.2312854407417,-5.40828294141761,173.56711597722,10.4350792940355,1918.23014388215,27.0346858207682,1241.04865188696,-65.7101275341881,321.099644551122,2.96159365562854,638.934200030581,-17.642354622319,1652.50177479932,-146.81646321383,1442.79165740508,158.36661874164,1059.20461190219,-13.1026003614158,903.53301644008,61.1856874781191,334.718385040226,-55.8564883045643,1854.17129101524,-215.289657226195
2334.63371085918,-273.965382868855,805.731575954109,12.4801382286721,520.984178014878,-73.2740635386585,12.6988723470375,-1.82710152372132,174.345030308641,10.4216409771958,1916.44743663064,29.7995653683243,1238.46203931868,-63.9495684787038,321.646949842548,2.72000275707839,636.4192565286,-16.5607175758571,1649.30191220689,-145.980730306789,1441.50654289921,158.826377464978,1058.84679704685,-12.7125513527733,907.06936704411,58.8732011613029,334.867328562792,-56.1349242866549,1853.18181481815,-216.216440485471
2326.66486631597,-264.170172582731,814.598399413234,12.2394193743403,525.675054709119,-75.1445169014129,13.8055859507378,-4.57863469129782,176.653303744348,10.3001764404285,1932.49202462398,27.5071469878769,1243.00295272678,-63.5940565616918,322.597258573182,2.76896533875224,640.644293165608,-16.7622448561343,1662.31237965652,-148.47576130537,1449.88402676304,157.909328135151,1062.62549143729,-11.6854131035076,905.196681862292,60.722216040971,334.836391830032,-55.9635680129446,1855.99610260616,-217.494300594841
2319.43350556826,-263.521404745826,804.718937911771,10.9359794271127,522.206503770936,-73.4194396964616,21.0455746571961,-5.79994936645705,172.784367703679,10.4675851132682,1892.70032104027,34.1804049679442,1234.71197874438,-65.9532530240238,319.744965257078,3.25673137124884,633.647293682195,-15.9963288149165,1639.64693199911,-143.585869702688,1432.82421485062,160.119493877978,1048.36977187989,-8.51851287884898,895.548713875066,62.61352570624,333.029099988816,-55.8346360328511,1840.30947682501,-214.490481330299
2299.3057253623,-254.363129504,794.526696411606,13.6406448985059,519.327018356489,-77.5381633711857,14.1498598878292,-0.783299710228234,172.515673130005,10.4839177746504,1881.36387387443,37.8430430695012,1229.53248637887,-63.4174250062473,318.773901395877,3.3560570487176,629.573603527454,-14.7342403641608,1632.54480788564,-141.175599972488,1428.82439173844,161.890834658632,1046.27567999668,-11.5264502818278,894.821199918181,62.5335332909018,331.390718434998,-55.1374684718265,1837.36634934052,-214.143001063551
2305.28677546941,-258.616325681595,798.621197590411,15.2693237100844,523.870371806338,-73.8028252510491,19.9405348041022,-4.94119534763956,174.511467891656,10.3876168921395,1894.24563809568,38.1646063097059,1235.72571649588,-64.3264780489588,319.998893243924,4.01036747195045,637.325788304303,-18.0256937512103,1637.47122296317,-141.134995087801,1435.593973492,160.28627634867,1049.69056724746,-10.437864900068,901.798601688657,60.1105441626841,332.535925958109,-55.5412432741952,1838.95421174471,-213.442543498071
2302.44057089312,-251.426689548401,804.464379921177,11.1434668422164,517.396178298012,-71.5333953635092,15.1966578559767,-1.42820227282702,172.488527110446,10.5582400710133,1882.43900695367,42.1549282611735,1231.53649182057,-63.3702364245931,320.625648956836,3.44022123247224,633.071550609768,-16.198002551953,1629.66607418606,-140.042581176714,1428.38528427695,161.804666906052,1048.79716226931,-10.7345591027893,899.54655204942,60.2578570756291,331.876858905134,-55.3188356396381,1834.2563871567,-213.607433218501
2272.93824124075,-239.321661495909,787.502811615195,14.8229591126319,509.61864532623,-71.1217547556723,13.8473754520662,-4.27186892892016,170.1716359048,10.7496968354121,1852.53873692131,45.998435329142,1221.07224816764,-62.7751229597994,316.972563157878,4.22819311391307,626.687973948125,-16.6035261382831,1613.22049776629,-135.688023220613,1418.41110035967,163.00284054755,1038.93984166652,-11.6185510943945,892.943541968235,62.158601457889,329.204563076346,-54.716414962662,1823.59200566661,-212.533701873931
2284.51812957812,-248.145455000641,789.311282217575,14.1756691894334,510.582350192518,-71.4658751120374,19.8071100323576,-6.10031507535575,171.355879025835,11.1497453533684,1863.26499892616,46.4792984105145,1222.20094806958,-61.8992469698889,317.918672689638,4.21768319725519,626.110424125249,-15.916633674472,1617.46327420321,-135.956255951316,1422.39393115897,163.516152654876,1035.03530902214,-7.94482758360523,895.613629962045,61.2708759099331,329.091392420865,-54.7265981741575,1825.19867926962,-212.483710173126
2292.56400273684,-242.974395089319,797.407036820915,13.4212219625634,513.453146916149,-72.6670553489165,13.1626143852325,-2.83888361352023,173.924566981778,10.5722509843669,1872.53383899103,51.8884399947721,1230.41923985982,-63.9156050493178,320.571325748148,3.81029289913209,628.991232476345,-14.9128030107732,1628.46181414586,-135.364888157882,1432.44431346888,161.842140750915,1043.64726461976,-10.5860362965459,897.932705444966,62.7491192591572,329.299628256127,-54.8882589505854,1828.17370472406,-212.713782021229
2264.15340613805,-232.969704756337,783.343583311119,13.7292626740039,507.63514872866,-70.7781618264125,19.629984051722,-6.31857648357074,169.691992627168,10.8472369968699,1836.49984996579,53.0786132591821,1213.82931488069,-60.9642345200416,316.40405383638,4.45658600914695,621.105619972959,-14.6434123719541,1610.29052764682,-133.585476574434,1414.08714702772,164.252261423499,1031.98342795088,-8.80026643815853,890.111559931708,60.4859502352959,327.258689624041,-54.4111851809853,1814.84745347893,-211.007946741524
2254.57659251889,-225.337301991735,779.498600245232,15.8077521939096,499.419196483409,-65.8526100787199,11.2799327907493,0.363712212700319,170.14573279294,11.1816439432336,1841.29259962429,54.5783176461519,1215.76555741394,-62.5887574819011,317.005532734109,4.391393125414,621.138996031632,-14.170257192231,1610.25494637552,-132.716686452226,1415.4628087498,163.933891026359,1028.06073229178,-8.53611086332748,889.472748252431,62.1337454570445,326.78526156173,-54.2420600131749,1809.85781812843,-209.542126189171
2275.3684866284,-234.207146851968,795.107582599215,12.5054990579097,510.676449637191,-72.0652651879995,17.4289661704366,-3.5264215560998,172.796099286554,11.2323529827557,1859.5694655375,56.2466444349844,1225.28966055226,-62.6631040642568,319.310799095336,4.1928433601805,624.954767926708,-14.5034756110054,1624.7645265888,-133.641275297091,1423.85596770507,164.10740393565,1038.56398933328,-11.6488454491287,898.725474426263,59.6349350920732,328.198153593727,-54.7655879394951,1816.84013773182,-210.185287307219
2273.15005872938,-225.765591629196,796.134884460765,13.7713612381561,518.923931416464,-72.9020070433006,16.0838673797567,-1.67897964727392,171.66858695399,10.8434737525101,1859.02682550269,56.5696512898443,1227.88285572542,-65.113200998856,319.869349158701,3.81322861069412,625.91036262698,-14.8745474362149,1617.07556692489,-133.6079152019,1421.03273745836,163.113697921082,1040.44864716619,-11.3105488712023,896.395709057107,60.786168145898,327.446331372064,-54.1950979244969,1814.87498975622,-210.772868454192
2269.84445866668,-231.51950093815,787.8920773027,11.8824932383998,505.330816494082,-70.5969958233975,16.8928242958916,-4.81485747095197,170.489509715584,11.22630704853,1839.66669924195,57.8048040976061,1216.89926565813,-62.3231580419959,317.843627270835,4.30078492202139,623.526569767498,-16.8884488905863,1616.0445643097,-134.753547398519,1415.08692959897,163.746475656208,1031.96352199788,-10.3691123189144,892.769545154217,60.4063405197582,325.186944567227,-53.6170271883231,1810.21769594331,-209.67211920939
2285.67371745287,-236.589897960327,789.047851161033,15.6539825530083,503.521600638627,-63.9590130396144,15.568252217523,-4.81982331721716,172.26284088432,11.4189821197588,1858.09699984143,57.0353480789228,1222.93873826824,-61.1947854677091,319.58645920555,4.11917216146644,624.722511623707,-14.737482724387,1623.42752795344,-134.834211144846,1424.181760573,161.504405094117,1035.24691493894,-10.317600688251,894.682700461555,63.0441932675254,326.77208447548,-54.4271907919428,1815.52756257318,-210.287015304526
2309.24656244136,-249.664689287421,801.416969364848,12.3352114682435,509.990371692215,-71.1442283163056,18.0126268278314,-3.67135259944371,175.655570765679,10.6963616635587,1886.72909745958,51.8552903090737,1232.96980217163,-64.0503880289775,322.281144184477,3.66032687063429,631.199464629445,-17.6328535340416,1634.80435869991,-136.724194744342,1430.76812422166,162.430334755885,1042.76076922831,-11.8813545644311,900.118023346108,61.9054470125824,326.311706544424,-53.9642660222425,1819.66183041319,-211.139094449567
