2259.14856221975,-235.656720411224,799.449353668959,8.67705250252122,504.934328812817,-68.3901556187751,14.0236100434133,-1.96922808047863,175.052873892055,8.42160233644149,1895.5624057606,28.874406358199,1254.54498642402,-77.7634734983546,320.874889340761,0.342852167729059,631.721694296338,-13.8619530993669,1617.80312509533,-139.011719030736,1425.11775985911,142.069800581776,1063.56744686787,-20.5655995377233,925.578000830277,45.4402276638322,321.423112223584,-53.2985964634569,1943.41994053454,-246.620220458257
2236.02009441252,-224.101935756922,788.260368009443,7.63846732760069,508.187676118936,-72.8799023900146,14.1407694600287,-2.33427123234199,171.35561504268,8.7299065010003,1874.62265061047,29.0284512880815,1248.23627117552,-78.1214704765541,319.240472198895,0.309293702149799,627.531574750992,-12.2288828355121,1601.60336984167,-137.715393870218,1412.4949753062,144.520154483102,1062.60371015598,-21.4699624638956,919.690086806654,45.7373001400755,320.977705277503,-53.513869411393,1934.44611792988,-244.716106732347
2245.35704990707,-233.092765329608,782.388766563688,10.6489917363788,509.471249514227,-75.6025133941468,16.4215969403886,-3.20292914897641,170.477717421317,9.27802470631164,1866.92455816027,27.9135728333667,1244.39590987474,-77.604162753107,317.564577743283,0.909478747251506,630.286440222487,-14.6811607998948,1595.15806023995,-136.109464077918,1410.76501355538,143.09744525903,1057.54952276181,-19.8695340731059,914.344974771053,47.9127781156058,320.552618272262,-53.3255097032585,1930.09450935708,-243.566894401968
2254.62390426137,-233.42944693214,789.20301968413,9.83923589143408,509.278458913661,-69.6097376873676,18.1499925735104,-3.25474726086297,172.651993806464,9.20872378892019,1883.73060584277,27.6025517003607,1251.44954681251,-78.1886329807061,320.046224733633,0.324470588243373,629.374977258389,-14.0532478627921,1605.14040043678,-136.611399874179,1418.0373570574,142.416679281954,1062.69659013586,-22.4290403280072,921.521834434459,47.6335511417875,321.164115945271,-53.2420769802457,1931.69195102153,-243.289589539877
2273.70298779914,-242.41390360708,802.885219459298,7.68909767286129,493.425859216742,-62.6525179831212,11.4424561644317,-2.87480785303697,176.082045594015,8.5070691003033,1905.66347455816,25.0487507656487,1258.43106750125,-78.054594044145,321.896518372762,0.0926913695403514,632.534240446447,-12.1532527788118,1622.46811683951,-142.316738134313,1428.08365631985,140.854462288692,1067.39266971935,-21.863529111371,925.984520632325,46.6486837410694,322.621243824365,-54.0386007600925,1935.90819793384,-244.786617175959
2249.45375703076,-235.521642800322,781.917640527815,11.7083163402212,509.858613648108,-73.7764926404354,9.77039404833554,-0.661422885048565,170.556684618291,8.77550796422626,1859.53922347388,28.8060123344358,1243.39639527249,-77.2980307101959,317.466288869554,0.934109055561526,627.253476267912,-13.0605639482122,1591.23485333863,-134.966390000947,1407.78076079311,143.053131093653,1057.70639269357,-19.9418372052103,915.645338971993,47.7916881827222,320.580625335603,-53.2371482051042,1923.15091528505,-241.762590874495
2235.27973272319,-231.210127535549,783.781309914107,9.39291638412981,504.513565499148,-72.3252825847613,14.6220070730267,-4.42530151988496,171.413323401168,8.93676180175611,1866.64577842449,27.2909879290259,1241.51808072352,-74.2840459609146,317.790413144653,0.812524650639548,626.324997414452,-13.9716840623821,1591.90414453403,-134.968902646643,1408.64851493041,143.681794996104,1060.13026979356,-21.7250457509257,920.210422907031,45.0838575641917,320.586633197104,-53.2430135283936,1921.85811662033,-241.3905728932
2239.01261146521,-226.298109246656,793.882310552257,7.89758681432286,504.984518401198,-68.7913614187894,17.3932766166519,-5.19954336061243,173.813891737203,8.81906070175337,1881.58647575213,27.8985331139218,1248.63693015249,-77.3848671677465,319.735916854541,0.732267245182749,626.142985871512,-11.3635423248301,1609.26881845798,-138.530102205174,1416.01456211516,143.239465234903,1061.63501402536,-21.255504812064,921.345481889047,46.4845177621273,321.331994113686,-53.0903465379821,1926.32503340214,-241.87098614699
2273.99738659186,-244.076603519522,795.872373261373,7.2575464353046,518.190006717641,-79.604796495262,8.80686036116657,-0.62584714847733,170.969203114651,9.47280680187621,1879.62763698918,24.080354299288,1246.1923912797,-75.2993879120894,319.338791364826,0.750543386869536,631.141313389473,-14.7914865697777,1594.09583374154,-135.281999040432,1410.62815478557,144.435301658381,1060.49355762582,-20.7653204762916,917.66936421064,48.6449063988645,321.254838328584,-53.2377659349686,1922.47982374031,-241.540793890276
2215.61924130541,-220.611045307308,776.973723560141,11.858558526714,497.717099464904,-70.3693602012046,11.0030812725896,-1.73364564826116,168.955160721847,9.38148939460249,1848.37849219873,30.2530690442254,1237.08815168745,-76.3029707752275,316.107681182464,0.937683743273623,623.52791133707,-13.5690814866295,1580.00443254054,-132.920469334223,1399.13510401279,145.807097405752,1050.60029991483,-17.8637673284552,914.154024120222,46.2862994313594,319.002912711395,-52.6544681341568,1910.09904771532,-239.364058668228
2221.39572294196,-225.888440438152,784.766355010794,9.25662721937851,493.37359931033,-65.4822504321767,13.2579963274317,-1.62135222647185,170.775521424138,9.43577639271733,1857.25752261521,30.3127539152391,1235.9012967227,-74.7253575926656,316.894731756883,1.2538303251394,623.632099281629,-11.4859002123579,1585.75462111355,-134.46460035898,1404.18248955089,144.51923796285,1053.91535251776,-21.2880396904725,912.141224230313,49.9525793820157,319.406077479084,-52.9155330299099,1909.46917449945,-239.328076980261
2229.56565787618,-220.582319024783,790.174781499588,10.333406922001,505.080033262748,-72.1079174181058,15.3880933547263,-2.03087290640094,173.025720813056,9.16773715344468,1871.11222919234,29.7628070735989,1242.22961837489,-74.7396727253119,318.807128040238,0.858192493501672,627.239291625032,-12.5611523855305,1597.9787042458,-136.948688411362,1412.02014562722,143.665477417572,1057.65838916973,-20.6641257122515,915.323459119758,49.485560551097,320.278693323159,-52.9742634012763,1914.27963078992,-240.271543683745
2215.63939976815,-218.134081228012,776.57198002834,13.1358636349237,502.091398100372,-68.1189712237189,5.37043993448123,4.60828822965586,168.442241459583,9.33946608237404,1833.42650532983,34.5332774562067,1231.66487383594,-72.3995519886226,315.570899560787,1.30852445168948,620.608181078061,-11.5939207314687,1571.15183458507,-129.709730993012,1394.28717312877,145.844481014947,1050.30890200511,-21.4318779358281,910.403921081034,47.6632104896261,318.268102141891,-52.4543015740977,1901.36503161728,-238.130313915721
2210.24002732073,-222.837672250805,775.621025245305,12.0637828242283,495.558173075693,-73.1127183379101,15.7624230538882,-3.46361512496097,168.25718608178,9.72100949699984,1832.11626844762,33.1791014851142,1224.73880218086,-71.7749846797967,314.530573082282,1.64084284457264,618.53496681271,-12.8636074016583,1565.98346154006,-128.735427706261,1390.79121678876,147.489185059319,1045.67197684182,-20.2732747311149,905.515790492144,48.7929269325775,316.995680860837,-52.1671128637171,1893.53427829608,-236.368004230591
2224.54482154694,-232.348933605089,779.940292388539,9.67354341837901,497.731047695476,-74.8532796528282,20.9818000036286,-6.06391533243362,169.82598139278,9.6492332925953,1842.72390423613,35.9165166487045,1228.98671748462,-72.4871312064385,316.108458740053,1.4154626227979,617.426039116345,-10.3987403563345,1575.36643833032,-130.947642426831,1396.88777834471,147.469043772917,1043.16702633853,-17.599407198562,907.645789334237,47.0953759784935,316.82270471653,-52.0166897319369,1896.03072283075,-236.970263972601
2189.328758317,-211.539087684124,763.152424325754,13.8400158603489,493.102156413501,-69.8597464674037,17.4207467776422,-4.16889678499288,165.701714823198,10.1250275172,1808.5940961274,41.0764065744779,1215.86799546749,-69.5382604909285,312.627297822711,1.9432371050588,612.505503211464,-10.2548954448697,1551.99557839177,-124.097994238548,1381.51662276732,148.755093476678,1034.30746410804,-17.1645758375473,896.993392140624,51.9468359733988,315.370553519301,-52.1050111056438,1883.47412939497,-235.232048075403
2181.95010643637,-206.118031272157,762.97418314663,14.038021202477,490.403680707003,-72.7711844990667,17.9486148544483,-2.31858282704617,164.970409951905,10.6334537785485,1805.64641939581,45.3354422565895,1205.60977423977,-65.6155042807635,311.693251090894,2.26598220757088,606.786904648114,-8.60726438586308,1549.36178479457,-123.912457822443,1379.84178493514,149.516246640917,1028.45462437761,-16.7120525467047,895.090458529706,50.5445235274193,313.481725168027,-51.1510657438916,1876.37466345117,-233.767917375774
2199.8002393893,-210.823436386884,765.294841978036,14.9968767991041,488.388795310126,-66.1664350388279,9.67684619375443,0.492834264453158,166.34084613229,10.823374191078,1822.15702166228,40.9323839906526,1212.85064143021,-68.4388985418971,312.765037707336,2.53781393672422,609.356989932434,-9.22560054754563,1559.93473068835,-125.53063688836,1385.3805203521,149.474057468407,1029.30697639629,-16.4928047235813,895.482742832696,52.5287902718463,314.012544484042,-51.8163975108178,1873.03856733549,-233.325449078394
2171.64577351609,-200.364364938424,752.144344496386,15.0966622034194,481.091494937029,-68.9368306887237,18.3777776991757,-4.23266063710715,162.494635573739,11.0122923673034,1781.8238485561,47.5031222392053,1195.71358606914,-64.7306719789588,309.319744647369,2.51885629743925,603.028477929215,-10.158009915576,1537.11674797255,-121.794415465074,1369.80195477509,150.132706797511,1011.45642094601,-14.7037217814231,881.947776679787,55.6823521865014,310.954752516897,-50.858161010491,1855.56202360043,-230.265946638813
2169.50766450638,-200.598731319624,748.617712341937,17.6790302776085,470.81863094496,-62.6521890702464,9.75624367847459,-2.82652309064573,162.641745234543,11.0610475366647,1784.43312115364,50.5285874879722,1191.91526942942,-64.8118601231263,308.38362622827,3.45759807439229,596.584624783944,-7.44373406473412,1536.93447533789,-121.835152408807,1372.11847401225,150.259603732339,1008.39509538005,-14.2571580835817,873.870624168902,57.3529328876157,308.995172111686,-50.2769972704041,1849.88257221564,-228.321813706398
2183.31650709721,-206.416620803498,755.595842705764,17.9023991679782,473.075933208639,-65.655113207767,9.34901243198752,-2.65811342524382,164.750174163478,10.9916121283582,1804.97708711882,48.0059138528473,1197.4938143914,-64.6882781991795,310.872433241724,2.5431204595242,599.463147220837,-8.69028740872892,1543.6738327036,-120.345940160532,1376.5301189876,151.616716194768,1007.81988363328,-12.6464967320725,882.250425842118,54.2347608481274,310.147435528201,-50.8330589695819,1850.77763982599,-229.505660688663
2153.1979723786,-190.4748936904,739.45087951981,19.268719026257,468.996779523346,-64.9029217502295,13.5636603116445,-2.80445750905818,159.282717379638,11.2584413342049,1751.3395151295,58.5476924325398,1173.18717303309,-59.664911843544,305.436392673666,3.60894653096539,585.894681245999,-5.3563388980988,1524.83664113064,-117.499231054916,1359.0338136656,152.878284847614,983.862704810915,-9.0111702061665,866.449544000103,56.1957318467877,306.397700265289,-49.8978395941114,1828.82159695709,-224.720744429636
2160.10656181158,-196.713640589006,742.169218372455,17.1448892097852,465.107347550264,-64.3381518894651,11.7284162325451,-1.25135798092197,159.404132533804,11.6852814429444,1759.36118366601,59.7064769132509,1171.96441520509,-59.8808070664228,305.914771390368,3.81657991650018,585.670727741313,-6.98486429869433,1519.75941628995,-111.907416087208,1359.84902110631,153.317795829307,980.449507851518,-9.66758573406914,867.290325755189,54.1232409026792,304.754716014339,-49.3506525517768,1827.58318017013,-225.684111848713
2172.7508039122,-195.447127548485,745.393806469832,17.808861808069,464.572783085696,-63.3677008055605,11.8022718490825,0.981222016171574,160.882822017891,12.0089931868831,1781.05148793855,55.5019066825789,1176.36014547607,-60.0100306757825,307.757154958834,3.77932978112529,586.046329347942,-5.87695098536346,1534.27625456911,-116.146405765369,1368.28182621022,153.28718903299,982.727328562709,-9.24076514089946,866.430683747291,56.7082142357833,306.031053640525,-49.7797748073723,1834.02955952669,-226.386753449375
2166.66691959673,-197.941425090786,731.904029595481,20.225334616828,462.259158277095,-60.5931286495594,8.51845174556698,-1.63130529955103,156.949124622693,12.011059036604,1742.16675445744,62.3895839862409,1162.18191839778,-57.4696881551261,303.578399042918,4.29681311092054,576.66904768261,-2.9145059732233,1508.40244339822,-110.287738730026,1350.8730216432,154.772439798903,964.800178290138,-6.28974445488926,854.576897058848,56.414010988418,303.176014250963,-48.97480747521,1815.69838773005,-222.871261198337
2143.562080321,-181.965877941142,732.092488646293,18.8666091630589,452.096018228596,-54.6499402560669,17.1063757017645,-6.21016940413751,156.726629998741,12.2568362775429,1737.53286573593,65.3831719057687,1154.15356194435,-55.9863877804205,302.812472273488,4.65898348442223,576.890351636994,-5.25401437099479,1509.16632270287,-109.914319206882,1350.45303606549,155.733049198057,961.713538522815,-7.71123799263372,849.950285599988,59.6046365517314,302.409833138104,-48.6292538680808,1812.35296685208,-221.912111082096
2162.16006762776,-188.401748556229,737.546576115506,21.2455468025645,454.4885108995,-58.3417087728859,12.6456695538404,-3.28424664546414,158.867936118848,12.1866812754992,1758.08667563931,66.4315450944016,1160.77466943052,-55.3903994235696,305.181718999152,4.44334702362048,578.323286413053,-5.35348202916765,1520.98810191098,-110.427337727215,1359.59052791385,154.74298002357,966.998072152053,-10.0132954541043,854.456152589006,58.8133799030689,304.158535074623,-49.1529096327566,1817.11935205271,-221.316117166812
2181.6955492002,-194.339270951186,740.564630665136,20.4669498361161,456.56037382994,-56.2612331869533,18.4265787547834,-5.34742342305286,157.201225507167,12.4853613548349,1754.3126818369,67.6245765105757,1163.8204546417,-55.0433341061681,305.414500792792,4.44336280080936,577.750555145841,-5.10456433485573,1518.52985871005,-110.705929290342,1358.80971383221,154.264892494308,961.432191232356,-6.2233119697458,855.287437280342,54.8508594913664,304.619943693868,-49.1299699574151,1818.69453900591,-223.679299173712
2169.35902478042,-196.918591866353,725.098568337935,22.9413564612268,446.889014321605,-55.2712727160753,9.93268564404057,0.314117250278382,155.002190437418,12.9599742143202,1733.26018465403,70.6735945719051,1149.34593283928,-52.681520023246,301.617894705072,5.01542789278515,571.709554570528,-3.95573912758307,1508.11382245559,-109.35018594893,1349.89265361627,156.224102564789,949.528908277778,-3.91353932457792,846.40996220043,58.7514897094418,302.757544320751,-48.7219463182148,1811.38923788409,-220.085020119469
2172.29149309796,-185.616175238116,733.656892539205,22.9951231774998,446.698560235614,-51.8315306171045,18.1291881107657,-5.13391191756014,157.430328610635,12.7268017928763,1753.75449944732,69.7792047371741,1156.65086530481,-54.8559885439124,304.392753643519,4.7453595530974,575.610616463783,-4.93761752660293,1518.46080036979,-109.75357767381,1359.44746646759,154.216578490176,954.310326650071,-4.52223290638463,846.166210211133,59.81246792083,303.688461764481,-48.7944412412874,1821.50311462504,-223.130612160472
2198.75530793763,-206.59357640199,746.840733623525,17.9446644977037,452.133770810875,-57.3703230264929,11.6236187114353,-0.151587449603027,159.114710081771,12.8500149039441,1781.98830007471,64.7180320123107,1167.51642348371,-56.5435514125037,307.104598589589,4.32821087124088,578.899223608035,-4.81780841429813,1528.78406823497,-111.188405422609,1369.07727256965,152.890567178456,960.002186308456,-4.32633435619716,855.136832587185,55.8335514623711,305.281745380342,-48.9132320005861,1827.76201957245,-222.973758588671
2176.44029714632,-197.551387606256,726.328455830589,23.8597924786173,451.660321187226,-58.2636424789651,11.8722806986597,-3.33314160871824,155.193930221496,12.8668056810183,1742.05029133261,70.9876027813845,1154.11447052717,-55.6809405564875,301.830394514495,5.31042245927697,571.321714305876,-3.17453749060898,1516.45883327292,-109.171977719202,1353.88692369855,155.699084721117,951.387634415499,-5.24690025131727,843.229637003383,58.9767070693043,303.697290984276,-48.6043210341436,1821.60663126969,-222.860797812142
2178.62391033738,-189.988038970129,733.8026698675,21.8516741787075,452.363760990981,-57.4255891382555,13.2297243915851,-3.47879082469648,156.904443693022,12.8105057444867,1762.29421562393,69.3676826240716,1158.51500438316,-55.6657184609612,304.159570243461,4.87037703584092,570.841880552541,-1.21361532572968,1523.50522881444,-109.795250105706,1360.6500204728,155.044382688481,953.006848005851,-3.82143330439767,849.356989760701,58.0488531021139,305.400872985932,-49.151031248743,1825.54479054327,-221.931132021292
2220.3094754366,-218.553524755164,741.781351503702,24.7146754049048,460.892539384384,-61.0631818092947,11.8716653108757,-3.88084349273386,159.955445200423,12.2909836940392,1793.69171917021,64.5005740851197,1171.86759857675,-59.760480544837,307.548453957864,4.64153545274741,578.49406129739,-3.20133864995111,1540.41223502059,-112.885920428963,1372.30551475132,153.810509760773,960.65449423323,-3.61997510593323,855.110049655458,57.8639848539698,308.029671854656,-49.6505408052757,1841.60032384594,-225.313026292793
2204.14103671892,-203.365622058172,736.109758322585,24.4498942722869,455.066216951542,-59.404380861079,14.128149659515,-4.61003138579985,156.413295035075,12.9127829107065,1766.76485619682,67.6325424754491,1164.53206935712,-56.225454814482,305.229880472896,4.23887215433968,574.947659028329,-1.76964022978362,1528.36604955949,-109.938625958064,1362.36714801144,155.154773120987,957.545903658025,-3.53657663229747,849.271869435403,56.8687236076311,307.436326357226,-49.5226103811557,1834.52963871154,-223.795821533981
2194.83327358304,-201.897414078113,725.496731784475,27.2522628441661,458.012148899192,-57.6066501557804,10.5663602584722,-3.42595970240758,156.513741677966,12.6126738413478,1767.4300582136,63.2732602417716,1155.24579388231,-52.4379166781448,303.245539715645,4.75765671740898,575.377278655654,-2.46908649663061,1528.26828525399,-108.284856895217,1362.81148478751,154.529160783223,954.315103264903,-3.06196056152784,848.559212745796,57.6113660524338,307.438307721101,-49.6754540435525,1838.83911362905,-224.496339825271
2210.84511321327,-207.922230523213,739.64380064184,24.0853175390891,458.32354879863,-58.2420717102251,11.8887239185744,-1.54665714117063,159.027629246068,12.7119654631771,1797.41088376535,59.0124112753159,1170.39994611258,-58.5784825608731,306.707330982035,4.27222493924916,581.125610391354,-3.59450769996052,1545.20588081223,-115.991066068161,1373.86508388285,153.833979486873,967.672630001702,-5.62660485630925,853.967032067421,57.141212663172,309.417159288748,-49.8788454894293,1847.60083579733,-225.505671896581
2215.41096606998,-208.730998550284,754.278921533822,20.3234317462976,456.811895830003,-57.1957409051972,14.7047075916944,-2.2096904091551,162.755138049879,12.095486814856,1824.60897409497,56.4850275052895,1185.66796754958,-59.7768355956445,309.747397666145,3.69547286774451,585.519878651858,-2.92417746447472,1561.14533383498,-118.972233600585,1387.09496636082,150.808853165282,976.629495829853,-5.76017264612732,861.252278182874,57.9248613123053,311.952596431555,-50.6463452969168,1862.8896444849,-228.157878547845
2206.08783427814,-209.353760990864,737.717100186005,23.9899629782321,459.90746508403,-58.9161175098106,20.8604919438082,-5.78005433818406,157.264188165959,12.1549242955246,1777.6591515908,60.2938501917667,1168.64739698038,-58.2654366898955,304.143135076528,4.25318610516282,581.317085970081,-1.84114213012108,1537.56192487453,-112.597267543818,1368.51343022907,153.601064323203,965.466525191276,-2.87853737047499,851.968129246685,58.9732106568572,310.9096090548,-50.1576460130109,1852.91830082949,-227.558318561693
2204.9955524563,-208.317611449009,739.063845065041,25.2113594748372,466.158736122933,-60.0213205948654,13.2717525083905,-3.41858384068122,159.007917191635,12.3306075267231,1799.72156665065,54.6034864005928,1172.96617848518,-57.8510645496373,305.59552542977,4.34720064211783,585.168020781815,-3.77494114459326,1546.29570408056,-115.484281003304,1375.77535703068,152.311317013063,967.748469615869,-3.26697243551133,856.774130151743,57.7808313700002,311.917331272478,-50.5785038766141,1858.34695413853,-227.712517847208
2221.78703561684,-217.22054607772,757.771091365036,18.0001462256942,467.846298729381,-62.114967485414,16.1385407271005,-4.15822447025194,162.185982394674,11.8036834734243,1825.38307304949,52.4903787721605,1178.63848984943,-56.8658039616021,309.283591038166,3.50638191206029,586.354585813496,-2.47502088175655,1563.75731234156,-120.05321542682,1388.15486678042,151.243092556413,976.795218650578,-3.58584690606829,863.642375407478,56.5442741607494,314.367910135976,-50.8499305221016,1869.54285940991,-228.760832299118
2232.17668503743,-216.932827170533,765.202743723454,18.5886338373747,478.67027521561,-64.3191366008698,17.1049189637284,-3.94662032351801,164.064686837481,12.084275198102,1852.88034954025,45.9663003642899,1193.60304426905,-61.7827321725438,312.330837978662,3.16679196674138,592.723209547894,-3.01727585715891,1571.05025158165,-122.209226354163,1393.62432397583,150.300366952852,984.692977993573,-3.7333488117422,868.787654649357,57.1866893631012,315.952532718796,-51.1815705882974,1878.01136940159,-230.577592096279
2223.59800527511,-224.17644491404,745.002576501394,22.4224649268435,478.864855035557,-67.9740245898852,9.49626514636495,0.246678723241192,159.641091303569,12.177265757017,1812.2218082772,48.2278202170224,1175.37105738068,-56.4302817548561,306.664946422206,4.00931174712792,590.953901366586,-4.51349649750662,1555.83949924648,-118.610874743219,1382.05783893223,151.819389388353,980.160658968674,-5.00913311271762,858.917065815055,59.6432291869229,315.233231455051,-51.4881425171869,1873.74943784586,-229.519729931602
2219.87558642509,-218.580359925294,754.226960349439,19.7936304353013,473.256121513447,-59.5323335936115,17.0919978257598,-4.08169407864139,161.667169813626,11.8110081295691,1832.5149131588,46.8699819717253,1185.78390942946,-60.1594668145648,309.042119638353,3.70586368586676,593.295295528762,-5.660397027776,1566.49750703678,-121.751731699158,1389.94093729797,150.744488406061,985.934360003399,-6.49357628363149,866.938743921134,53.8670617921041,316.722740441256,-51.5940433755239,1881.80838563634,-231.229981144379
2231.80161389693,-221.624837940573,764.377462687921,17.171435751312,482.408402408607,-69.8846640652506,17.9776024956138,-4.77644389413799,164.437473746805,11.4495771674931,1857.51402925835,42.5002871969752,1195.52827576836,-62.2761441394255,312.062999948573,3.05585062255914,592.14502077587,-1.44932539982351,1581.05585830709,-124.471977068196,1400.85958949115,148.582984588689,993.216917322442,-6.92078994747548,869.967119329257,58.173198362431,319.438245099252,-52.5078378513022,1892.94437553257,-232.765320784011
2220.54784215983,-213.501287110384,754.905328124817,19.1044744227851,476.346980330995,-59.0800785990214,18.160322662635,-4.76488107953937,161.14742493155,11.4914659888065,1827.12995562643,44.1417101998311,1191.83314950811,-62.6437871660234,309.035842156564,3.67943227676156,595.38007489643,-4.29437110131451,1566.41582554309,-122.036064223096,1389.17903318108,150.562249821909,991.077894140775,-5.16998004899689,865.539966633408,59.5169738263576,318.702160214624,-52.2408028110289,1886.9192856141,-231.859754165648
2207.70462290828,-207.249949631809,755.485328923182,19.886564856093,472.018635456834,-57.4361489288045,9.10274810654325,0.795904826581043,161.290365458645,12.2155448729552,1832.35035787184,43.8564635322135,1189.36746776553,-61.0791712190795,309.89570870601,3.02007488472652,594.705535955502,-3.58014039877522,1567.86157548787,-119.996617973462,1392.19951496548,149.926807050577,991.358580905858,-5.07356337458513,867.676810839749,58.8663191358181,319.28120251608,-52.1665150405553,1890.80821806287,-232.684029564623
2217.41652335395,-209.480331616403,769.725799530136,15.6961395757447,488.824204657925,-68.1521072690412,18.7028434538484,-6.18575559687483,164.714692662523,11.3788403335079,1859.72309642878,38.9955634770234,1202.16343095072,-62.4192582637322,312.768379743081,2.75459347410156,601.49739419592,-5.82411430413189,1584.27495876808,-126.113921728464,1403.21715243782,149.350845118609,1001.66453609528,-8.55970531071142,874.504182864039,57.6494699466721,321.580257120986,-52.7625696162553,1901.3908395004,-233.905852614058
2234.01014053219,-215.808361337477,779.176104647372,15.4593644100035,489.301086265578,-65.395886951663,17.3154800518367,-4.54137438128633,168.167916315042,10.7242686246347,1888.30132272674,33.5268486282173,1211.4764329753,-63.9503368956278,315.823905243955,2.4112577932544,607.325594511077,-5.44910118855578,1598.80126592586,-128.149192932183,1414.43200646839,148.228960822729,1010.19501090839,-7.59463181691257,882.043012868809,58.0650400121526,323.377023840648,-53.2163534769655,1910.65760462316,-236.36608014974
2232.90976562858,-224.737653911505,759.476916950434,18.1546348165464,477.654308130729,-66.1342165750215,14.9779127769867,-5.19824940979882,161.540660432205,11.6411447570236,1835.35123140579,42.0614777308505,1197.4505316811,-62.8264076269933,310.367825025454,2.72794811092265,600.42754642683,-4.97058996755184,1573.24505968823,-122.449269260755,1397.61639046198,149.72615216617,1004.69226340063,-8.30568770972793,874.155707056913,58.5362472420139,322.569283150228,-53.0818510416145,1904.07045625089,-235.928804058723
2231.0683589912,-221.564844874935,765.545330227018,16.9307744492298,482.765514486074,-64.6875715134272,14.1837083582803,-3.86551406685246,163.75968366104,11.574753576554,1847.97695051725,41.9272326857988,1200.32194518814,-61.943405286361,312.003954958187,2.90818767882989,604.714396697745,-6.14222052340064,1584.41045366879,-126.660578221728,1404.67241152683,148.687340653684,1003.8868018513,-5.9212712142958,876.276628799004,57.8254837585768,322.921431847922,-53.1474884166911,1909.18846656893,-235.388805921788
2236.48532609663,-223.034392239122,778.537281453113,15.2355552675837,489.707820026582,-65.0412667964576,14.5323161026816,-3.2330859854533,166.81904676301,11.2818335179965,1877.19721428592,35.4341768128264,1209.33237702385,-62.089585381366,315.045220727893,2.36323645558118,607.241277806793,-4.40680050339424,1595.88310585867,-129.367714171442,1414.24344303098,147.908713066808,1016.49081369264,-8.74903560202053,887.330672211269,55.958490825043,324.85267356901,-53.7934795778935,1921.3061214145,-237.875252947909
2261.10410403433,-231.080849112254,787.980673666042,13.7331159557145,496.902369050772,-69.4727128753388,11.8358731646655,-3.30335850423444,167.682184801078,10.6483595663598,1891.42317666789,35.1509422686567,1220.70598454136,-65.7345302235655,318.079598038399,1.62100533839993,611.811527790893,-6.37161692143258,1596.4683073437,-128.414926441236,1417.15913448609,146.289749489139,1024.67045759767,-10.0426826425499,886.957643554108,56.3147487657722,325.888712169083,-53.9022871258491,1926.37891475563,-239.59374163183
2236.19022957909,-225.449340584741,767.541650968348,15.7403446881777,485.318221793147,-62.9162152879557,13.6794112204659,-1.66768088245302,163.722936383156,11.2944608488463,1848.91767542641,40.7339263157672,1206.2376017402,-62.6198837124607,312.589068932107,2.17352634143537,610.365015878867,-7.56567460394927,1587.84062631204,-127.089220575982,1405.84426631155,147.931051306166,1015.31211362381,-8.28954785705679,878.851195103851,59.8906707784269,324.797656114937,-53.5031512072657,1921.42958930579,-239.187229894495
2243.19073930707,-223.786274699261,777.691628747532,14.2486760305546,482.404154145752,-64.8466899386012,10.7181570578569,-1.98373435523108,166.387111349549,11.1127830554884,1874.60404342672,36.8489266581512,1214.83224116428,-65.1578568406988,313.773276008038,2.38657303440221,613.507738706625,-8.47512040734228,1595.17569437473,-128.451217676738,1415.38468683884,146.037040275056,1020.29613399065,-9.54682034151957,888.225094144717,56.7011738283206,325.671315493245,-53.9072124795262,1928.54480864361,-240.233625350966
2252.89221102131,-225.77664549157,787.295018049314,15.0827635617562,493.113942697038,-65.5937587707949,17.4009338934377,-3.96141480806834,169.4052497652,10.6842268888499,1896.92612977165,33.0918949302641,1223.05774921473,-63.7593346181103,317.12765585307,1.96393004271695,616.907097564052,-7.05164943616012,1609.83361639076,-133.459141037489,1424.05888725346,146.624611539694,1031.37613672942,-11.1456599935529,898.132317849825,54.2136278433892,327.731668616025,-54.4919556935705,1941.6646732725,-242.951272887667
2278.304024317,-241.461658879509,784.780119854806,15.5025949861176,495.570438501343,-62.8948274106053,16.3078094287445,-5.08377046831078,166.838628717204,10.8774079845516,1883.1172169391,34.2947021747676,1223.90525627807,-66.3258535584728,315.9600595134,1.98133555294366,616.68120781121,-7.24600867364533,1607.07121577726,-132.49188638137,1419.01244007035,145.754876996757,1034.40707251633,-12.0157724450929,898.23755018936,53.4272910057217,328.68015518668,-54.8579472634031,1939.43836723635,-240.971577664261
2260.74479617981,-237.516803795426,779.284607839853,12.9892005639138,495.754985891188,-67.4614710540561,17.4723338983556,-5.9271495206779,166.187293833315,11.0170130176622,1871.92694525862,35.7625580962391,1222.50246706666,-68.4995145358111,314.893054274101,1.91738772029989,616.211744902602,-7.19460833768234,1599.92216314089,-129.319983300063,1417.09519782315,145.666909556604,1029.55644672158,-8.99695300443561,897.326802826218,53.1758307264358,328.364903985233,-54.7710980525604,1943.69912365492,-244.008470059849
2258.00506663782,-232.387741345699,787.843970818441,14.624202645673,510.053758448303,-73.8256227252481,19.5926886262972,-4.6605735065338,169.005100642652,10.7833261059367,1894.45454634763,32.2869427106512,1234.19427867076,-70.0543219421856,317.09195932827,1.81348396438653,619.172329242549,-7.08024378213046,1608.05441408483,-130.079352853716,1427.54586629587,144.718778036981,1040.09018085089,-11.3113412616874,897.523890359513,57.0875288765184,329.242025630566,-54.9859806425005,1954.30627016526,-245.584534880926
2286.21939950139,-247.310196969206,801.107439051646,11.4334449840862,504.69929308838,-68.0670569403722,13.5818169045987,-0.962431720855293,169.54812453605,10.4693460014722,1905.75518858169,29.8215839127047,1241.46267216325,-69.409819837266,319.019294204444,1.46551652417155,622.456569324185,-8.20397998440914,1611.64766663925,-131.399643626862,1426.25048555699,144.930994052221,1047.28153101302,-13.5492448814202,901.336669556662,54.9764749796776,330.213736044741,-55.0013336868641,1956.86059150662,-246.122218257658
2265.39801479791,-235.466991162343,786.418857281482,12.9520195449199,503.762562514854,-71.7769852390247,18.5015112753552,-5.45103997672109,167.793500911218,10.349806666559,1877.35280575642,36.9209395536052,1232.28986666045,-68.5534576604432,316.42783665952,1.5805262666353,623.307401024382,-9.14872592909933,1607.13251654292,-132.45728741459,1421.7099940401,144.950822826234,1041.94810409541,-13.6525176915903,895.492553320559,57.4487872920252,330.210285746621,-55.145309846389,1955.75981736723,-245.435739295114
2266.98539443549,-235.807577819677,791.305085854628,12.1475589600937,498.416225648172,-65.2341770096582,10.9192084840877,-0.715861824607509,170.463932179486,10.4475486605917,1895.66392359104,33.8616477109644,1238.38854527288,-70.9561115848576,318.160274397486,1.44107746617565,626.652209823262,-11.5091656703444,1613.01918949295,-130.780234177218,1429.90444308939,144.875241887719,1054.96037485779,-16.902940539393,904.766750235669,55.6078861466141,331.209182956016,-55.5435067284868,1964.29854905878,-246.746027286401
2276.90376655247,-232.216414449438,804.372407406931,10.3103157812788,503.675431898698,-69.7427872154805,15.2508272381286,-3.98123949433576,173.070650841452,10.2201166346422,1922.16652113538,26.9499718102975,1255.49790744818,-75.2011120057069,321.036024680058,0.9779917672221,632.53395896297,-10.4018153068635,1630.91570479472,-136.087640439531,1440.39526599569,142.968515166116,1061.21315819602,-15.0905281132305,915.177199127483,51.0953801249587,333.019999390899,-56.0029789294586,1975.81322397816,-248.868379404209
2275.74248781544,-238.491403417979,791.103216332115,12.4055727185584,513.016604920725,-70.0839958909308,12.4857038753459,-2.80220357160328,168.829645534212,10.277873844694,1882.76810315987,31.6826298371234,1240.54084080036,-73.0094937192338,316.924042957036,1.576393412765,627.780091902102,-8.81924461645049,1611.7368904127,-132.124831198145,1425.70697752034,143.953214747253,1054.70217278097,-13.1116680665167,904.774265349492,55.4716910140814,331.51240552621,-55.2013531239495,1967.92762476222,-247.336173575367
2267.95273822727,-239.59975754396,791.482129743038,12.5853648129824,504.262675482573,-65.7278285745639,16.846567149294,-3.9253905075832,169.780110728382,10.3504510300418,1892.00991348167,29.9010340320599,1243.09338759056,-72.0443054042212,318.138746761878,1.51143487800854,629.922596143114,-10.8341860207157,1612.00267202011,-131.091791504204,1429.1791106937,143.017775845205,1056.8708597212,-13.8679895782463,908.533367765955,54.2940176864659,332.458157351389,-55.7925927659634,1972.06750587478,-248.629082318332
2275.67407789012,-237.706473475105,798.756980762129,13.0979441797842,509.063622914121,-65.3449171211184,17.2160988352227,-5.34278042307461,172.113911105437,10.1075461995047,1914.45023661335,27.8624232912413,1250.48438301243,-72.6437208492397,320.769656225848,0.939967395163148,633.658922160735,-10.8042032219061,1627.21954248813,-134.591297338347,1436.53276915632,143.858922586339,1065.77900307487,-17.8463051585394,913.960678480111,53.6962195256399,333.863165209413,-56.2466270156668,1979.77714020296,-249.665998864678
2276.62972131414,-233.147905435039,810.085957918074,11.9138438066718,512.532160966584,-65.4680634346048,13.3102787179355,-3.26510485392552,175.549048465877,9.69739970344439,1933.8657865889,28.326638194482,1267.37085089682,-77.2732158038377,322.908627329695,0.452765108562242,640.176586651979,-11.8625078892638,1639.71504536377,-136.742584008517,1448.66017666505,140.934169624342,1072.8704615012,-15.2679181797781,921.669131037912,51.3546813317756,335.372148928972,-56.4619540849505,1987.02518797772,-251.468781554613
2264.2824216682,-230.049444467042,797.040602672701,9.67249456262004,522.487238371075,-72.2911993786778,15.2487534788345,-3.90579053088371,170.00371134482,10.0068784989565,1887.36901778559,30.5116800379486,1251.77202463562,-76.2061070540936,317.992036298586,1.32546568927237,634.400008696956,-11.5483848662372,1616.68780755791,-132.783251091484,1429.39356500582,142.834648839503,1063.7096180103,-15.0915823425272,916.680309185895,52.1233505351907,333.54430523383,-55.917885863034,1977.57379487693,-249.195858144536
2276.95858087309,-244.229484435017,797.969413040454,11.0044099580664,515.863621260169,-68.3468745172507,22.618109647261,-8.04675918780701,171.944050526608,9.85180797263851,1902.35447169594,29.6023635868759,1253.38663109797,-75.3356657858833,319.003533196793,1.43815368370761,636.076935597739,-11.1387001974988,1620.73598060931,-134.445344069274,1432.91650994772,143.20516197443,1070.71578273743,-17.0150496283157,919.196663062591,53.2725969034904,333.611642404915,-55.9465882177297,1981.19146453815,-249.826714059567
2284.97772760988,-240.859320284983,811.091142327797,11.2212806556703,514.146725053702,-68.732896790755,9.78244965892744,-1.70183374350136,174.762472954159,9.82191193133394,1922.13415060819,28.4602732524764,1265.95471092242,-76.0945356534374,322.091708012356,1.05051450202781,643.037713754634,-13.4499180668985,1631.63074049544,-136.025011730382,1441.67724332036,142.548603828373,1077.68700340246,-17.9181691846653,924.802807861864,52.7408354172574,335.049861815473,-56.5660275701993,1988.12704836126,-250.478394739593
2287.17421227569,-243.534611043028,807.26766605718,11.4506086962804,528.128176263106,-76.1299080038157,5.76764241647024,1.08727531098698,173.04573194142,9.36518424709851,1915.54278523572,23.9406937750297,1263.69946230536,-76.2297746802029,322.061835125038,0.488897564787617,638.830899413007,-12.5851817705257,1623.57216119586,-135.373301007126,1436.64567878592,142.447077965123,1081.43798946409,-21.9295195742723,930.694386654125,48.6730838895712,334.601942749281,-56.3327381233031,1986.36874322923,-250.516984047705
2263.81785859216,-230.913716223373,804.914283311284,8.78924721410687,523.456715831209,-72.407081696109,14.2705016399506,-3.58871955778807,171.943908624262,10.025009952277,1895.64508994025,32.4552632191644,1257.62224874194,-73.8778967797264,319.417683458534,1.18068073568244,638.891498139989,-12.553967452105,1619.14140045138,-132.792685342781,1431.95838999758,142.981104983563,1079.04150204946,-19.2068673258405,921.830261570735,52.9613174052236,333.484831906999,-56.0155189079141,1982.66211054289,-248.718474899288
2272.29142709243,-233.84925676793,810.073918585665,10.1022789008012,518.867795145797,-72.5270011639056,6.2028326431588,2.75752250071293,174.070862293357,9.73450399602442,1918.58422488456,27.0174137582224,1271.60862234886,-80.4878398992043,321.853952155919,0.640579266374824,642.424557509823,-13.0207091086034,1626.56482993354,-135.025672598983,1438.96620236218,142.75611822265,1082.36013432848,-18.7134034433288,932.129033807311,49.5521983521382,334.442035255683,-56.3693272647266,1990.67334313252,-251.478189867244
2268.96647873833,-230.632468545065,814.225388125976,8.71639535620863,526.434374177339,-75.0864780478663,12.3235897467481,-2.20645724256497,172.967533259013,9.49429860402551,1905.6953379259,27.9184585025738,1271.88778802493,-79.372123540782,322.007441704012,0.522888941037675,645.389251067244,-14.7830181620075,1621.12358892222,-131.546369617547,1437.13779948297,141.694952479675,1081.18737202234,-18.4933867681341,929.438362088337,49.6082682913083,334.750654234344,-56.6202515617694,1989.68071195138,-251.437745879207
2259.97344679998,-232.395902326292,801.207060010604,9.31174958568521,518.047510861756,-72.4094326211915,18.4404061244174,-5.43685547922813,172.71821979207,9.17086757860621,1893.60541278897,30.1565326592937,1262.67447582808,-78.2432369781018,320.020338768885,0.956834172110682,637.17992149848,-11.3058841160378,1613.35263298753,-131.046132298629,1431.37793501012,143.035662382134,1081.07227879169,-18.6644954111598,926.827566796527,50.3741289902658,334.109612196666,-56.4847992034548,1985.49341981744,-250.7022273846
2270.70983671201,-234.899252709201,809.802445812217,7.63118832754477,522.468381202292,-73.7427425133176,16.644184467468,-5.14355069657191,174.489305428144,9.38002173122619,1910.69854063232,29.7618177956057,1269.71202073428,-78.006526294324,321.495993383701,0.745471020641294,642.470861005174,-14.0075039648207,1622.77706081026,-133.234677910172,1438.83702559922,142.227009390775,1087.21586820059,-20.1450035009348,933.700307458468,48.6854718979777,334.245630060855,-56.4199720933816,1990.04703832083,-251.799597223095
2262.76585113152,-230.845284802804,804.549848700421,10.9219233098062,526.157707973248,-71.9750068291237,11.7777869087339,-2.46577507723158,172.546596185496,9.65627357453051,1893.25214562433,30.8457299462659,1268.72598436158,-78.6339019382354,320.1883460706,1.17044634261588,639.444254552511,-11.9086355680863,1614.64557351999,-132.043491383332,1431.00356737297,143.375091042817,1083.44166295638,-19.3188478908597,930.385833573587,49.906191136025,334.212534782126,-56.4708617122699,1986.25446330263,-251.511002445675
2249.2337487803,-227.653863830706,797.612779342448,11.7510887641762,526.501255121335,-77.5242567515298,20.8931362831312,-5.37404990331126,171.150400958227,9.87817280970278,1875.61071091295,34.8618885805191,1261.605459912,-79.4539774752392,318.343674621188,1.21377204254677,635.99679231244,-11.9327429920846,1605.96848746063,-129.904768109439,1425.006254164,144.477091509505,1074.9422060855,-17.7817478309001,923.777596189255,50.683999591339,332.14391724247,-56.1461827711319,1980.05345062756,-250.14756501144
2255.43125050417,-226.388297688786,808.964180282262,6.78740596131151,520.245094933153,-75.9143879988102,14.9823150533659,-3.65554980821179,173.952000958123,9.30547162764809,1890.40593642331,35.6520176656461,1267.01729472275,-78.7667089275745,319.71871824483,1.01634919189047,639.694246683542,-12.6499314797454,1612.78255967339,-128.372001545906,1431.11242329655,144.327327714216,1080.51291882073,-18.8782464939786,928.708422417429,49.7274161756478,332.595292790302,-56.3267794873453,1982.13231945744,-249.934400365704
2269.47810143313,-233.061043806957,809.457316695587,8.4730306844869,515.443012300167,-69.5728117491734,12.8692679703717,-1.20836789763653,171.990758263231,9.96721156761028,1885.69352330461,33.4595544198845,1265.41854832157,-77.524629891028,320.438065992562,1.00484781359416,640.006765032239,-13.0799642305859,1608.39293909741,-128.467676730987,1427.28824663036,144.372994729277,1077.91253384478,-18.7393250690775,925.00636264566,53.8569285176916,332.408223727009,-55.9525431211807,1979.23630850706,-249.590456255632
2236.29594231556,-215.29894079691,799.944360571177,9.13591409512041,518.005446671211,-71.9116012173078,16.9661213113827,-4.30649408629158,171.234854095424,9.60219706720403,1862.38575732999,37.924517499217,1252.05865153312,-74.5224630262925,316.664504921213,1.71222692811184,636.188716660333,-14.1649298008856,1599.73262467454,-127.019440206652,1418.82494357034,145.924254828013,1073.44077430838,-17.2954344184672,923.482876498818,51.8029714371651,330.105820982691,-55.6579229898939,1969.61433155523,-248.636277279872
2247.30609837665,-223.36036883666,806.904072302808,8.05403376774274,516.012720332601,-74.1146742342536,5.51389209809271,1.3051304887747,173.444486410496,9.42987784052451,1871.58533423468,42.4524063131509,1261.14247552349,-79.2021498882351,318.583519635256,1.57932315978003,636.319914541017,-12.0988657939864,1605.58566949818,-128.28290867368,1426.06579835603,145.337728469564,1072.86257474538,-16.3224884710403,927.012214877861,50.3059676406994,330.807921381069,-55.8152428609908,1973.23352007367,-249.314282449153
2256.09978930197,-223.319546482438,811.369046796239,9.73496390408054,521.91179551874,-76.0912329323663,13.9321519621572,-3.09970300412933,173.496059966855,9.27046339233355,1881.39120889752,40.1225995532046,1267.51973271922,-79.9723456739069,319.962029980613,1.35737428418422,641.263662546588,-13.5839570034598,1613.50994119011,-131.735278992856,1424.7229881236,145.949764793986,1076.06618939164,-18.4083179003606,925.835715810997,52.2576570929228,330.424113611029,-55.5849117367231,1971.41003015758,-248.625298771285
2245.82003035192,-223.549894711253,794.98045876161,11.4660447080721,513.152168622191,-69.7418862983281,18.6368838450286,-5.99937707684167,171.484282377973,9.26011297920725,1848.05926624163,47.3199212963353,1256.86700217613,-78.2697146497406,316.181818031439,1.82746755626666,636.016190174535,-13.6596588988041,1603.92623786088,-129.76020892748,1417.81558384676,146.156584944733,1073.64844893102,-19.1059254435166,918.392914521446,51.9495644938244,328.020564643415,-54.900514947487,1964.76891741396,-247.643846727232
2263.89590097145,-231.126395052447,803.771647883779,6.70133000130386,517.588609589904,-71.5564490522972,20.5312195576061,-6.11254389404962,173.298169018549,9.2747120738589,1863.7772138713,46.0735597358633,1263.17063356629,-78.7994641421475,317.907099128778,1.98247420421017,637.705716555759,-15.0046258399157,1610.16800898213,-130.136586942426,1426.38913981556,143.980788482905,1074.81120788637,-19.4135625088432,924.288853485721,51.555531884914,328.921783762795,-55.0041296454497,1966.62449077396,-247.181800787536
2272.01933251893,-232.846597366707,800.557654570944,11.2071588291027,524.425444519829,-74.3394354620451,15.2520036386848,-4.11900890905233,172.119325409525,9.42225110893395,1855.21907966894,45.9957093091698,1261.61769331469,-78.079064509862,317.597249580871,1.83663583465466,636.105995145967,-14.3596617013364,1608.7880004638,-131.025131554224,1420.99715489827,145.010541019672,1072.95999986375,-18.5613932024112,918.163443506546,54.4342881526954,328.797251661639,-55.2405074306256,1964.3960806872,-247.863558991387
2256.41492492235,-227.824273193465,798.680199635425,7.82471025880584,507.304566272077,-67.2688853793349,8.10332757016129,0.124555807944792,171.758793547115,9.43188904729853,1848.0546306607,45.7663274499108,1255.15036729017,-78.8644421956284,315.632650200536,2.08907008728156,635.546807207799,-15.6206464881628,1609.35802146108,-131.050680868607,1419.61031452579,144.450506711084,1067.59357795632,-17.7502307284931,920.710851720569,50.5957432167777,328.406379749355,-55.0834261289173,1960.86073257391,-248.039064660393
2254.55143637131,-225.433353217887,802.104285268808,8.2551152096299,514.257734752903,-73.3242993039903,13.3103451772335,-2.04453635991955,174.621088804419,8.9605641924589,1868.52452936757,45.3953982329617,1261.07594870154,-80.0359106869173,317.338310812707,1.93722984418647,635.351577508306,-15.2286136005169,1619.07336658391,-133.705251612597,1427.90185809946,143.454092255811,1069.46521361401,-18.309453022644,921.394069618872,52.0013794184559,329.677128033799,-55.5733515412852,1966.09179679135,-248.623544303905
2276.10082884001,-235.683984479604,799.317405543498,8.39071986514644,517.18229198805,-73.3768732878275,17.5323795832345,-3.5906709604774,171.955562594912,9.26495311291124,1854.25768003849,43.7493456998732,1262.30791459739,-81.2491009673365,316.681135509794,1.75404725333693,630.21235069847,-13.026346304101,1615.33253185654,-132.398267592242,1420.40230218634,143.756191220255,1067.05298986177,-18.2414878326664,919.536701034725,51.2374825200737,329.37989898606,-55.4347389939363,1957.98909448096,-247.286841183361
2256.28102802672,-227.816766970687,795.046342777728,6.9384788034993,514.572731476064,-72.8277979246194,15.4980581568037,-2.8477340916976,170.379299524816,9.75419181130744,1839.001363353,47.4454990945131,1251.5974341315,-77.387278679846,314.275907608058,2.4645908486556,631.166376887472,-14.6000504809249,1609.72454850544,-131.555341242681,1415.42241799014,145.420390509336,1059.51745065693,-19.1271193893367,910.868463986991,55.168734386789,328.430036165523,-55.2722156974107,1954.63655324744,-246.811467573553
2274.29044900072,-238.538590783321,800.894524953369,7.06497660858007,514.365519889432,-71.4048375062767,15.5707519158341,-3.90504734300729,174.035165102836,8.71364329773021,1867.68061397131,43.9473359959619,1261.00162260602,-81.6727869022647,316.481367614743,2.605670664118,633.907585469278,-17.0590793535925,1621.91137404879,-133.783652736074,1426.06850533926,143.032556447601,1062.7659122508,-19.5092990689194,918.512313193111,51.9180047888349,329.628454957814,-55.3412826240909,1961.9631980378,-248.512012528344
2282.68294609997,-239.280917504552,800.241178811491,6.97252594390101,520.462064546144,-77.0847395797998,18.1444984096082,-4.60088051091179,171.987692355227,8.74453522598229,1859.21886788832,43.4567090593671,1259.10832896429,-80.3443586708749,315.577374661487,2.32948770171151,631.761754615849,-13.9907694092719,1619.86085012589,-136.393168524332,1421.58934668599,143.734428204724,1059.82624941171,-18.3424424215674,913.699236229917,53.2236765851069,330.746310155251,-55.8851903482179,1957.21613473708,-247.448642861716
2248.85937419673,-222.588374471722,794.488078417171,5.93153467710205,508.827425616889,-73.2139037282457,15.2409144417272,-3.64111622732527,170.60859120802,8.9781998187577,1844.66410967121,46.9596549866856,1250.04212726268,-81.310232873893,313.987856432321,2.14861743105812,628.000645253836,-13.6063819920727,1617.17645931151,-134.621557821458,1417.63538444707,143.519654979189,1049.44033406511,-15.8563072761674,909.531675687898,52.2409510797206,329.697703744664,-55.4772236297453,1953.57350513445,-246.835619095877
2256.96597374313,-227.439736043733,808.186658727178,3.2005603504405,521.541404139083,-76.4226952465117,16.1714683929041,-4.44661065765583,173.894607289136,8.41563413373187,1875.89635749518,41.5077099713339,1257.24226440931,-80.9154006309921,316.477202771661,2.17031549109144,627.261595719469,-12.3021809157545,1624.87545586568,-134.231755089923,1426.87568466109,144.05018725017,1060.61424814955,-20.5240015369138,914.648335469517,52.9756689876218,331.275727547959,-55.926381981486,1959.99450119199,-247.884693667414
2275.56398267267,-230.200275363006,817.345728648123,3.73588010645976,518.794738022068,-75.7436838832085,22.2204487492012,-7.38077604550407,177.288702482245,8.04890665390255,1902.12669305714,38.14723995894,1269.98818758312,-83.2725702172977,319.023813830328,2.24029194153405,637.05768000666,-15.7840879554392,1641.60638936274,-138.305223771453,1441.24415132486,141.765549667987,1070.12333576438,-20.3702815322999,923.921689901265,51.42768341464,333.298473407233,-56.3145791670026,1969.78644870008,-249.066978829698
2278.03441127896,-237.042913850389,809.140647275081,4.51455683035619,519.554736179821,-72.007601699241,13.876542467484,-3.67461035366496,173.322594100264,8.27699150914355,1875.00787652575,38.3356532658027,1263.89460454558,-84.4192028492904,317.180049307607,1.64829525746643,631.811628915141,-14.1117210981048,1631.49661562932,-138.124762651308,1429.60086904362,142.014924502809,1060.65536275883,-18.6883002461333,918.613114195236,51.0596317944427,333.057996340549,-56.3277384305336,1966.58568531188,-249.881538398144
2261.91202741711,-227.162480173122,807.698496273811,3.9848327843879,520.121435161465,-74.6220826478481,16.4726741221847,-5.89177989259714,173.353727577278,8.21012412693607,1877.15423551295,38.6117931024627,1258.96483366756,-81.2554125053434,317.091866539159,1.92706144594659,631.224135212823,-13.5841008945533,1631.0590178796,-137.860208276841,1433.08853827239,141.101350731087,1059.63479273511,-19.7722987618364,918.141828812139,50.883578103814,333.287958537631,-56.5109973571747,1969.06512991617,-250.221383964724
2291.28125794807,-244.081088325285,814.167440750859,1.93741196268194,519.230576331414,-74.9293620542728,9.70819051446411,-2.14197970773163,175.760056503609,8.1584297827273,1899.86200572314,36.0055989191016,1268.46564418176,-83.8231742970078,320.559454787278,1.03307378173325,633.552258382834,-14.5291450978992,1642.29412998889,-138.906650537696,1444.20876199359,139.645867455556,1062.8199837735,-17.5215681648988,925.289309692656,47.5657138068539,334.921391546463,-57.0618774038798,1978.50798626628,-250.880624260295
