813.143124125257,50.4670502515353,923.456913111124,364.756439416951,801.172113798371,147.949164483936,310.676736169333,51.9094927797631,432.345125761333,83.2045627922238,279.191735429582,66.1186439697395,224.070300872583,37.2420426843999,1042.37929403914,181.739497751272,428.552724524878,155.717998235682,737.265711435437,75.842576943015,379.728505352057,87.4594110585699,1016.8102650043,322.386113135317,319.127728480513,118.071896093573,651.164283416626,86.0114826769278,1748.90634679492,154.996610619683
821.959436600788,49.5351417781226,937.655952343105,359.69957181835,810.603968870717,149.74365896984,311.853982788145,52.10617244821,435.435979674405,81.770967561677,279.110566160163,66.3387879352766,225.8362296529,37.9083602184862,1044.11348191373,184.062918931451,430.150950758683,154.041156643289,724.816957737449,76.3666830536348,377.145769644775,87.8788956615596,995.221943844397,329.250047190751,315.602073875945,117.9141492297,645.626494765734,86.5373875879527,1713.09543048054,157.541205750292
811.434051274238,50.4555258763711,921.042816394566,363.991105978168,797.038799561018,148.376798506349,308.671637933574,51.9595172774105,425.992042930936,83.9196184711604,278.249526500813,66.0258528155417,222.249698697885,36.7644732765708,1031.63111527715,185.460972965546,422.148292651619,155.893416658787,725.714032830045,76.5302723301355,376.376350176043,87.7623580098473,1002.5023889262,315.756982878041,315.65727708277,116.335359381648,644.170798390064,86.9435981620072,1717.26065605751,153.665436240166
814.477802988253,50.0742259351835,925.574121500509,363.793280770049,804.497334125206,146.556775257066,310.572082308407,51.7771219536195,434.665839791392,82.6192410134852,279.108020874246,66.6308308379425,223.109356502434,37.2871954101969,1043.26960208579,181.674179804456,426.856305803039,155.428154322461,738.054029120745,75.4552568208731,380.418226357932,87.156740753859,1013.39880526731,326.169360467335,320.318155110179,115.99683274518,652.127384915996,86.3838331940653,1752.34766164287,154.716226988917
809.592373622158,50.6836089653274,922.346524548872,361.679823726918,794.911241844728,148.026573785325,307.39101921346,51.8306470885225,424.881504098382,82.0373094063108,276.263678913519,66.3265541990565,219.688604336291,36.0192756285605,1030.32164985467,183.752162376043,419.856768294544,154.701150880066,721.416251625563,76.6753963288044,375.808638032015,87.5871363339843,984.861190316062,324.098164848833,312.102654002067,119.521182504302,644.422136572337,86.6291382022209,1709.02688145275,155.636839847741
809.010496182464,51.1056607844982,916.452432984614,364.396157123848,794.744220678446,149.176779400655,308.532223657648,51.3984452810058,430.639613777977,82.857128120741,277.441308175736,66.1730953100167,218.545937483945,38.5599961573198,1036.3586025692,182.498621812446,422.170308510602,154.505372615557,728.465342849633,76.5098697947537,377.75857997192,87.2124517983094,979.228357491342,330.833994942636,314.49736646391,117.954069871718,646.679008407916,87.6800923471022,1722.65375035415,158.041464976702
814.937735788857,50.4666505505839,924.887919146474,367.500420325408,805.122747816987,148.413480519923,311.069503996239,51.5679412920925,434.212799967338,83.2818571646451,280.052770445077,66.5133964631933,224.89785475256,37.3852034183029,1050.53314084865,181.683276700685,431.515209698241,155.398471920362,742.481677379487,75.6397068961048,382.338119870696,87.4874005636285,1016.22453144923,328.65864246948,318.509948541205,117.968061412682,653.945601337857,87.2286018007375,1748.16667113697,156.127013504206
805.981161503897,50.7866074705686,918.187134110592,361.763793591812,787.875841712335,148.992798994947,306.759978135299,51.8604406694753,424.529528313254,83.1622014248626,276.58077075403,66.3042944820859,217.869088088219,37.210384933397,1029.45443152771,182.430528234814,419.98013195302,154.792301932365,722.00219716516,76.9857236776312,375.26732191339,87.837103069099,973.028481999147,334.506983971603,315.785768669976,115.765239547728,643.560694864307,87.238386256097,1704.01524295739,158.106203776045
807.697893383603,50.0897120817427,916.028059817688,365.460525706531,791.496158841832,150.703206560698,308.30565019334,51.5323734663243,425.713215030559,85.2593136455739,277.881592112924,66.3906137441608,220.43807035858,37.9011754988661,1036.98279929904,182.567870780557,421.699242599623,155.885925555903,729.901931890239,76.3740119112139,377.36413057193,87.7156671055124,997.801690343595,324.65895755094,316.030942943029,117.588638691541,646.157492769289,87.6334531202566,1726.92346417078,155.053832281633
814.892786376326,49.9840693751614,928.349797547541,364.314055667809,806.392383730221,147.838791405082,311.061304487355,51.3945574420114,433.859838854434,84.2002634919517,280.661517960859,66.4305712104039,226.22658748145,37.6057764914546,1050.21016122015,180.864906986371,429.412193842784,156.49330482774,731.397431233119,76.6517753785412,379.637878413199,87.2017994206068,1014.42335684074,320.06653434544,318.714884492886,118.039017218519,647.068633202608,87.3137965779706,1707.49495977882,156.827863543889
803.929854502725,50.9361978169385,913.72526908363,364.551929990881,786.466533232181,147.366300457269,306.365149706688,51.4963141017391,425.744319031166,81.8500060830897,275.707647646613,66.3750422904669,218.609656903003,36.4860656050992,1032.53195885338,181.984018012028,419.201962864671,153.753552770165,718.982622136751,76.696185141092,374.525429760342,87.2000157241645,965.39318064477,330.480468386286,312.31675207247,117.065644406839,642.041468225587,87.2077741021226,1690.6686076611,156.310348016487
806.056719008483,50.8061228443508,918.91404041542,366.850461020119,791.086680043548,149.948500867316,307.913781726391,51.4093384568159,428.555456280178,84.605880780372,277.913031876404,66.0074383902733,219.885800503208,38.1735098116445,1037.48261848045,181.643688847688,424.310781719209,154.077111670796,729.236843639271,76.7577290195739,376.923857279315,87.6467690890936,992.479139951924,327.68898148471,315.863078769828,115.745547161895,646.736827749039,87.4872922001237,1719.64187152415,156.978657996032
814.352414886872,49.5670275775294,920.431950392786,367.836380222184,809.557392978728,146.674497111925,309.802379344385,51.7439444732076,434.536400863056,82.740624547856,278.537000906161,66.3193322772816,224.259881172561,38.1569407415435,1043.79873862047,181.6769687112,425.669545566948,153.846678316147,720.334786902855,76.9767409776604,376.162450587116,87.6958486115125,976.383677895607,321.646324130324,312.979511600754,117.637412183714,643.170823966784,87.0266203092793,1696.57517288293,152.268871231055
801.367333985076,50.7736398427247,911.465756816408,361.987404246946,784.484348836587,148.600065357343,306.234681561239,51.4564641796565,422.674579406747,83.5205469844868,275.767630481231,66.4562090540856,217.753184406825,37.3175870050997,1033.64233953308,177.347890479379,415.799248197549,154.225625880314,717.089069892385,76.8899107282845,373.32096302854,87.6869271595197,983.663710621903,311.808076566475,311.065231400712,117.440998138625,641.758370784266,87.5403214784969,1689.5350006794,155.282899012874
806.129531634745,50.5034159904891,914.327931592303,365.206980404412,791.949420613943,149.592240105523,307.683423511542,51.5910128285013,426.796653724388,83.4443597089542,278.007470769632,66.3682633736632,223.519248494078,35.8152844538391,1040.15426406123,179.874494146183,424.472793084337,154.593875259276,729.983976222446,76.5013874760748,377.245399919355,86.982299902079,985.497083334513,323.771180249164,314.729256911934,116.78958212699,647.430069378611,87.1129867825845,1729.06743701042,153.84369610886
814.520741055929,49.4273576007007,921.63800616056,370.777095338441,806.508011907776,149.581265580627,309.290318557278,51.5550355652235,431.955522223434,83.9180251674872,278.094504817663,66.8674269219787,225.351750958232,37.3364587603069,1044.47967593602,183.474692418313,424.235810166307,155.499668623516,719.424603800461,76.5874596024874,375.866923877003,87.4598327675392,982.597568175843,327.993651460113,314.807031680491,116.720271091936,643.350536271748,87.2135059882963,1688.47953050739,160.62719182263
804.066298657955,50.3714755789943,917.366369191012,361.472236615004,785.540360961909,150.628091317251,305.97015190137,51.3181884735443,427.619145156186,82.2485957882878,276.059126144474,66.2709799523561,219.005800757051,36.2781769701364,1031.20236489716,181.900458556379,417.755893123775,154.769030487825,718.751057625659,76.5943887591152,373.274093535254,87.7344093963951,977.529688799015,326.961346216636,312.669094448172,115.989647550759,642.844609111567,86.9915341239004,1695.72500381291,158.115688369867
807.078670185877,50.7679747277707,916.563043454975,365.166225934527,794.189785376859,149.109885937556,307.64599259758,51.5056537668731,428.954200270891,83.7600175827739,278.481556131512,66.2140574482481,222.825872921908,37.703686576647,1042.2833582985,177.563242565972,422.088592254051,156.450662392178,730.004510890706,76.7113734416442,377.962194065379,87.0465259953497,993.514237788609,325.511623455405,315.50597264036,117.981192615491,648.823322111032,87.7969213630702,1731.65562106793,154.216587883713
815.353295753103,49.1929455777461,926.607950108898,364.846450908537,807.457836554927,150.284524842668,308.282492454835,51.384742273472,428.91085588846,83.3437793601591,278.065062386567,66.8676713016516,222.788814619597,37.7544891124654,1041.6851310794,182.870150175412,425.170545028213,153.92764581305,717.54579651748,76.9415120875504,375.008854713367,87.542944843427,980.339508808469,321.905374160784,313.377617472386,116.08314231294,645.817080198738,87.6905620284895,1703.13563900416,155.70868446433
805.568327456511,50.3776289935992,910.625661297124,367.089090093361,790.628703218929,152.05974928352,305.573672890115,51.4371517713385,425.580327154859,83.2540406337982,277.198401686862,66.0570303594184,219.788776620382,37.5933313016068,1037.01592184089,179.055595896041,419.604060543039,154.820534947061,720.082665221448,76.9685170718551,374.070995910014,87.6458813528776,987.701473265283,313.685409395097,313.803599016228,116.171499743814,648.643575840257,86.9634019096082,1706.81856876739,159.320355330856
810.052114059548,50.5041522993785,916.292258231514,367.482977915313,800.773058197015,151.082399153121,307.737994835183,51.1915067976319,432.637889521822,82.1629098754242,279.897581630177,65.99915920036,225.417631591581,37.6826352882947,1044.89195550417,181.1823624977,428.298888132687,155.379522767568,733.806881260904,76.4241839452472,378.834158475589,87.5204112838256,1006.59245698637,329.147593017438,315.02584288587,118.596142252993,656.486610733746,86.9333577187418,1750.90494709986,153.933444967846
812.818737186394,49.7567314885245,919.003656233025,369.548533813361,802.176474224889,151.310344315866,305.311933772438,51.4414443441218,426.490754153492,83.0595989022232,277.65717449639,66.1955271404053,217.415159166031,38.4152025909047,1038.66205259118,180.080477468645,422.49794907773,154.268069049161,716.345335851288,77.0466114558947,373.521198552389,87.9322598933113,978.124126559428,324.558579132408,311.123475681994,118.635177859239,650.58861392023,87.3360986167453,1703.78229336399,159.600406914086
808.254099242709,49.9280058632088,917.573725006327,365.727953109706,798.181052000543,148.249365285349,305.047217823847,51.0193108508423,428.967292836408,82.7693436493502,278.177673724289,66.4392202838115,222.080610127365,36.5527906632228,1033.10660879917,181.710703804333,420.450509786625,155.671261211219,722.191678230289,77.1303728006946,374.551211360804,87.8598538796375,1003.76757752909,316.18736818687,311.847134326979,118.358710221224,654.08254776885,86.2671870709272,1721.82905020954,158.479935242277
813.903856098701,49.8963997873476,929.158819102821,367.733254068396,810.388891517033,147.838090876901,307.48596438098,51.1502384899416,434.220213637613,83.036260976569,280.543473410903,67.0004457925565,225.532503687153,37.5714816635622,1048.81655646876,180.597180019995,431.01060383813,156.082620190734,738.87246581315,75.9333124149946,379.845435284489,88.211834664388,1017.59963026578,330.607639351865,320.43306799638,116.862174093431,662.360360244174,86.8029843689646,1770.74781297647,151.974854506275
811.191061642018,49.9726522245595,924.302005085591,363.008387270292,802.746688791483,148.739904155455,303.784280176177,51.4230857220859,426.84158075127,82.321047910553,277.697355415024,66.9555693034502,218.916170503188,37.3930661151255,1037.85260487718,180.332320653903,421.340818878498,154.482645519789,718.381454608959,77.0819052848244,374.148365593599,88.2660939425871,981.858853297396,330.400585885047,315.355984123338,116.88497837924,653.171827441605,87.4856237696139,1728.99481634788,153.744318768786
810.378982745309,50.346647303649,922.535560653884,364.087104489785,798.361315640772,150.859790127877,304.203541658821,51.4443185312975,430.947680980703,82.7462169841034,278.953516762869,66.4567078622892,221.592105727649,36.5318798450761,1042.59147618064,179.509022684513,424.55254707688,154.340808455663,725.985351936719,76.6806343913144,376.290386899771,87.5723879422948,988.578247233646,329.009076744875,314.665276774076,118.016210440289,655.718988008591,87.5338549105812,1738.5432458955,156.313916779633
817.48505150109,49.2551900235965,930.100456117755,368.854153461411,813.168149208787,150.303733854489,306.461034515119,51.407925630151,436.468349966678,85.0292770366244,282.266574583001,66.8123705121703,228.218787546226,37.3104185346967,1052.2918180489,180.410502974211,432.471537336554,156.611757558029,741.620842222404,76.4172861673255,382.576977868643,87.5446469851011,1025.79221776106,331.368381502626,321.293145674807,118.974282963789,665.516092932949,86.7862624277566,1782.57921292677,156.067489346871
813.947513067634,49.3765459109048,928.241149767495,363.162859320537,803.922996640933,150.741567508895,303.072408560632,51.1587592800565,427.232293025346,84.3427555582245,279.35925955969,66.5066391407438,219.623679092766,38.22434612873,1036.88186694577,185.135716596334,423.698199383917,155.918338040279,720.817934663606,77.545864624486,376.063164866583,87.966382682448,998.692923934351,333.185909055168,316.500697427227,119.386237886985,655.798868940404,87.3294858589825,1738.42358450741,156.152056469461
813.160974585166,50.000460134579,929.776307596631,364.349135349946,806.457826152199,149.796672059656,303.248806165835,51.1477698917767,428.055022434874,85.1510546159079,280.560021190254,66.4409704955366,223.736027469113,36.1616536205717,1040.52088643035,183.281080720798,427.014832942621,155.037751060245,727.827245326633,77.3533641492356,378.136358581277,87.9532171842842,993.707463908148,335.124459881286,317.511690263741,118.525735006196,659.885079159667,86.8847240891316,1758.064425263,152.67256774375
820.050133064831,49.5417935604124,938.422240469478,365.08125592936,818.069963987127,152.327042133087,305.943927781659,50.7862222458374,441.729414975876,82.9074202191859,284.065781212578,66.4075148541848,229.987989889541,37.9187116111896,1055.37206536193,182.867793986934,437.171651610987,155.729508881742,744.22543424197,76.2162740082969,383.992786851149,87.8402898730654,1048.3798698926,326.655448285946,324.507123253673,117.357255310557,668.222880763149,86.4881054352976,1798.17888650882,153.592694496948
816.362358991143,49.1700312356719,931.964279363415,364.091727476186,809.058729056572,150.378765567814,301.810722671401,51.2108747953769,429.559466221143,83.7454892930675,280.919760700285,66.3948244294422,222.475812818207,36.8297666931465,1042.40008506474,182.55921737726,428.393967642747,156.068134013697,722.975721004851,77.6011983717712,377.819231869222,87.6801656524375,1000.91815892999,327.170927875704,319.565282830072,118.137287911071,660.16563423513,86.1737711365714,1759.05239163098,155.614774840332
816.285773416108,49.8402565701254,929.886269811144,365.412226680541,811.159916234157,150.505892789439,302.327271128799,50.9523989267222,433.397029325552,83.6470305913686,281.882114938032,66.6448152134986,226.10321059269,37.1528879339427,1048.99818140084,178.997465228384,431.088588504738,155.907015543049,730.819552806477,76.9940710846541,379.793178306062,88.0644160826851,1029.26082390828,325.152034611914,320.577895998055,116.938823946627,661.401297926732,86.5881350605428,1770.95041014659,155.438085167593
823.520060122447,49.5078961678042,943.650483055384,365.465542495332,831.814462541196,147.291244788921,304.712842465091,51.1555526253468,442.315670417869,84.9976318438052,285.333177572723,66.6735196692953,231.082174132449,38.108257659528,1062.13176364192,181.049766769361,440.07322430209,155.971943779851,747.648251065453,75.8557623759953,386.086806441702,87.5725457976023,1048.89722928088,332.520658081731,327.962193626947,118.451623116568,669.594892415614,86.3922369329756,1818.82282885561,151.761680587139
819.748582289758,49.0389862080044,934.829644473487,368.467671526365,819.210807067271,148.340606216759,301.322643569286,51.208192391724,437.841849022768,81.6885715775065,282.620609215269,66.7501642330364,224.989403876469,36.538362213668,1052.29211221651,177.240552298811,428.966147249038,156.76783919899,727.767011389992,76.8869904950111,379.084046639424,88.610941312237,1033.97726766061,319.87271738256,320.081699744615,118.249526579887,660.002609171504,87.5837488832983,1766.66086262215,156.314620660579
820.031838235459,49.8439814071193,937.081970762309,367.665948751894,816.087034011244,149.216239155321,301.506962308628,51.3950410700253,439.674964831898,80.6046000071987,283.471635615295,66.6846283610373,229.104841849021,35.7408121538564,1054.3728678099,180.885276876466,429.435382057124,159.03264780774,735.143443873205,76.5982577367963,381.639460252061,88.5627458709185,1037.60353053919,330.170874508074,321.384249956724,119.222478852295,665.538310729047,85.6650180271132,1791.57338172917,153.886234987787
827.354004619277,49.1632557843639,948.316523288455,366.216503279436,831.165859000278,149.902132275842,304.796248281027,50.9933912115274,443.22017627984,85.4273089604739,286.256169339243,67.1851301179025,232.963975925901,38.2911691097671,1066.0108428912,179.466824861183,442.494957954586,157.28512169339,749.969092936442,75.7515046952967,387.286315982285,88.385856091646,1076.94843162507,324.626384344496,328.096433976934,120.302115548279,671.501311791185,87.0018675687919,1833.47592041634,150.54156623637
820.99493673665,48.9604850753896,941.009077421458,362.148797748233,818.590950074174,148.10313341248,300.719144319714,51.2305431898326,437.077333707594,82.7489300833783,284.975535982005,65.9029291986925,226.61047633846,37.3563817970988,1054.37604999194,180.469053084207,433.370596871293,156.402724636094,731.403133103109,77.3605512153353,381.784368043439,88.3894723717025,1043.10334760613,327.323268279323,323.52464235441,118.022550477661,665.698082266088,87.2889834952912,1794.16350729555,150.765425205866
823.847531440454,49.2655058990748,950.28192631334,363.239156156391,826.841885509456,149.474835081875,301.242756452893,51.6094460686525,442.415112234688,81.6965384806819,284.434247368924,67.204828231321,231.314935456841,36.2153784498006,1059.67769496226,179.174213804642,439.011066547682,157.0497857789,739.682716230705,76.474333997406,383.956431887447,88.6539042270431,1050.80858790686,325.170089824866,326.737198533196,119.400959480499,671.192385434373,86.5180768422827,1816.89460645048,149.568731872844
831.748684667629,48.2689255768045,955.534403467215,366.522826033571,840.243335958966,150.926709837349,304.521274860207,51.4271796695709,448.599198599044,84.1002001346999,288.597662271002,66.6956117627633,237.443670656628,36.7126581579611,1071.0080578665,180.82611049408,447.772847954497,157.232080614112,754.714284095936,75.8602216760724,389.406542583073,88.0600740337252,1084.83161811966,336.345517579267,329.798860975113,120.2837577402,678.877082496424,86.6601643534005,1841.66514676399,154.193944934109
824.093778249486,48.5165770645222,944.648975289539,367.993534796372,823.087561175872,150.291559495421,301.056184460274,51.6012990105309,442.004792039474,79.9195254124629,285.545302049321,66.8132374934244,231.208426794822,36.2916114379773,1062.75480869469,179.175900424615,435.317974308841,156.526851336424,736.228613867361,76.7359021929766,383.896716353106,88.2687052942817,1069.49376545957,314.553050521528,327.987137528656,118.097166742514,671.591870454311,87.0208554526294,1802.7037214866,155.581323893037
827.270128948595,48.5149992357874,949.422574006246,368.181756029507,833.681254626636,148.65719516986,302.360690290659,51.4855586166634,446.943115928939,81.9235880060032,287.520347623189,66.2523619842632,232.006084031048,37.8184768189256,1061.82031452179,184.295711738337,440.163970175885,157.665692041211,745.05583497723,76.2551570913618,386.274373156485,89.0520669412728,1068.28141548728,336.22646819955,327.857835252307,119.545022730602,676.157035595464,85.9526826321024,1825.16300997557,156.676848624148
833.970539446892,48.2509036280716,966.613569755089,365.496507644799,848.165683428677,150.288985267867,305.864400743642,51.6446046707166,454.142125746802,81.7201363451433,289.289909488985,66.9148357232855,240.180982466645,36.4358604418143,1077.19330233039,181.637672158983,446.584904518835,159.987024620639,745.095520747733,76.7160101069209,388.902390401193,87.9361187816698,1077.86849913907,336.261008425803,332.548188396913,119.853165857857,675.88260099745,87.0357329134267,1809.22721537123,154.467970602436
825.181311915993,49.0116001486113,949.536742193529,366.11843424634,831.131937467683,149.101439813214,301.665776529114,51.5612329310998,441.459216832253,83.8539595831409,286.482518076878,66.7677843709167,229.938174386758,37.0523198189229,1063.68461110872,178.143857547493,439.07492545344,156.955297650544,735.655178685637,77.2819789352798,384.675643421885,87.8963458690563,1068.18416078286,316.382816799243,328.754112742786,117.506838138602,672.685985658534,86.7563068839251,1801.39608647136,153.786036503133
828.500411188667,48.5109340992431,954.213871743573,368.11209560245,840.539080413783,147.065905724325,303.345638722681,51.5449785826772,446.345262140508,82.9262404814847,287.815380514359,66.9843257139804,234.990266480389,36.2216185767745,1066.80152218828,182.221686547496,443.758569294796,156.465543467951,746.563899276932,76.9918760854327,387.576699442085,88.6831275620819,1089.45927246425,325.835997582531,330.108054616719,120.649269357576,676.345408977014,87.6011230800581,1835.50643757306,153.492334774798
835.532748512756,48.0636324897018,970.676301539324,362.432202471562,849.268408368732,148.733839576964,303.782088293627,51.9226413896665,442.998936735112,83.3774005496846,287.597651002885,66.717407521825,235.005276771647,36.5380926049475,1073.23416161295,180.54466506956,439.980764815794,157.243532036051,730.483176654675,77.3807483628226,384.716427289232,87.9659646285945,1056.49180495556,326.747398077719,330.032865312728,118.849872900546,670.006033911001,87.2037097133321,1788.43784033828,155.552486312483
825.329182366956,48.8834797170319,952.325743820428,365.932493577737,831.062070182258,149.154670789583,301.782455960961,51.822801496139,443.443620567424,82.9903102987352,285.647429460593,67.3276327585133,231.425618966067,35.2366573164226,1065.76484800586,177.531169465005,438.330058673698,156.095757255141,733.650286754409,77.2677420639445,383.705031259597,88.4605901855508,1050.31010117688,330.057591414741,328.001972046934,117.744641314405,671.496085448165,86.6472669874253,1803.83445609559,152.898314597925
828.177923268961,49.0893324190265,955.355638721229,365.373442355574,841.947454810536,148.180486471642,304.068436538433,51.78133221129,444.452579731735,83.3570922291068,288.228613695678,67.1915630974266,236.1906774614,35.8149430064748,1074.1814123665,180.533953127922,443.224374243227,157.529272166735,748.00809177739,76.8169928239467,387.86379016353,88.5993185013266,1087.2193652881,325.636532650247,333.608721874427,117.800460878632,678.610011922687,86.6213985384669,1839.37820763345,149.177179923955
826.349059264213,48.5174434188513,951.416332430795,368.497233896397,831.303474480672,148.92902843357,301.316145498819,52.098789317097,442.70115238836,79.9456066449366,285.609811428343,66.7120328794666,228.419611094291,36.4414657802943,1062.65764250648,179.840984359004,437.434654246405,154.516914904829,728.12688744744,78.1591741879055,383.024473336273,88.4393226666363,1050.41092684193,324.085350994814,325.047664439791,118.578060876979,668.799972948032,87.4936533247242,1787.76489592044,154.16929653705
822.934207098015,49.6612442400791,956.413271488331,363.310827740008,831.324751673319,147.967684216021,302.107525050999,52.287395048899,442.880951576444,83.5457812512837,285.809790538806,67.2277096946509,232.033618252439,35.3138301935247,1069.14184673694,177.912921061562,436.876814398876,157.118973021024,734.606821511556,78.2055569495271,384.329912286388,88.3003478589982,1058.21253965235,323.670487082465,328.263406629537,118.892604766026,670.081470970065,86.8635433575882,1809.04932928635,150.655549779135
828.590132554562,48.7440490238122,959.771743184254,365.806841609456,839.421670849099,148.873537144596,305.114715438168,52.0813793500115,451.336562274626,81.1226751739821,288.13215101805,67.2062722735872,236.318202860806,36.7853353470662,1079.91273699323,176.051626827505,447.185123342251,157.202829030071,748.089836931253,77.5017359278854,388.659263511427,88.8848342060198,1087.76808723348,335.587463598646,330.998849766015,120.132172365774,676.612161827337,86.155855415293,1843.44740319668,150.616032831918
820.019523653863,49.506471373187,952.213707450036,363.364527387518,826.708516592152,147.586537726976,302.309892364487,52.1010738287367,437.889561947184,85.4322004662441,285.247899278256,66.7548294687854,227.361766412336,36.7945311211067,1062.13341306621,180.141646399592,436.431407934485,156.455237615817,730.36573586,78.6103920948879,382.193990043273,88.8380146873026,1043.36558262556,335.912487635948,328.561382580932,116.797168374488,666.876919177199,86.8947763518492,1791.71840262254,151.939073542539
821.355835421097,49.0195520496969,952.756459965782,363.69272112937,827.970827405276,147.350798641416,302.771981510939,52.6874075849696,440.649822264295,83.5927734159889,286.382012782187,66.8636254604014,231.547844024797,36.4991135126177,1063.94445333644,182.218400082088,440.509618129669,155.899258679943,736.035906853104,78.6710191110699,383.734638573674,88.9281356759138,1038.98071313441,336.932077136847,326.211646359158,119.602007388005,669.269104279229,87.1438396832432,1804.31226567791,153.370137393102
826.609481224176,49.1218085408293,959.816554521268,365.167337553959,841.43958451911,147.507058711638,305.713733376024,52.6280701478742,449.217092522778,82.9204931594195,287.861297103023,66.9842322809821,237.523508422437,35.5511594165795,1073.05887336175,179.816891629544,446.484427762901,156.836537254158,745.881362532313,77.8128321389117,387.320314821881,88.9457067306721,1081.8727073033,332.807442612385,332.153825945638,119.139228843687,672.106011928686,87.8469795660836,1806.55425299692,152.496935238569
816.804451295835,50.1083540535718,945.438576966622,367.466191464912,822.910490136066,149.421035017493,302.708080977252,52.6503764744413,439.9513543331,83.2146809728258,284.596283385825,66.956466003667,230.255461470165,35.5901675864557,1067.73241325143,177.806021563807,436.363466566873,155.839704657888,730.140885398633,78.8480914987573,382.091767729716,88.4581675292022,1045.94269095187,324.624051333604,325.258223749261,118.644452608166,665.187233055498,88.0136397242388,1784.19771740738,153.407753293396
818.916857822806,49.8517866505091,949.271251468865,361.896717309471,828.89252424409,147.434565397485,303.929079181804,52.9032906209356,444.891095726024,82.2708556701694,285.185686931322,67.2777795190618,231.364068201731,36.504040873895,1068.47356713294,179.440370555914,438.208693797208,156.69779267261,738.254364882399,78.7782282359473,384.111051947073,89.0941539989888,1066.83227369992,329.707491468139,329.971924921547,118.206087999973,667.787635840366,88.1471231852514,1804.28590000279,153.529486705969
826.110809719471,48.693930853761,963.890887764988,359.931729888865,840.735135900614,147.266760464526,305.92266226876,52.914749953678,448.899415238046,80.9122890537955,285.345967027891,67.3168195459557,235.927237709215,36.1492700067045,1071.64214922956,182.889792198366,438.127399233497,158.406159884215,726.510082976924,79.2974664521086,381.667609577052,88.9709880234711,1038.41650674577,333.196967943404,326.114212408337,118.97284461072,663.077572374134,87.4833979514318,1763.55801849646,154.036945381049
814.985463099509,49.5583187280845,945.158183512935,363.10701868403,817.525407978473,149.56607351363,303.089372157448,52.7966549199708,441.390349591303,79.8794526995146,283.278157192279,66.8710763678541,228.506292320505,35.988432476467,1058.50036012196,182.137139863113,431.522973411675,158.212000341056,725.213656944773,79.6613824223203,379.403063050844,89.297987920241,1036.5630285244,330.874428729349,324.355020063079,118.998248037686,660.895885939572,87.8682047766656,1765.27474069348,157.500498816504
816.567194952584,50.3856934888655,953.367167200392,361.773069700241,829.157940215557,145.763303671453,305.179131025,52.8010907424311,442.004525855209,83.0225046146898,284.528319803822,66.8446055379909,229.733030997158,37.1113066150179,1068.4665209134,178.895474745231,437.222651249809,156.513040998535,737.483200603375,79.0873623549399,382.703814046311,89.3064008542675,1073.18748811465,321.857392250617,328.728186274633,117.959198592847,665.691221626332,88.1911381488213,1797.39853277231,152.778908509515
819.644337053149,48.9494783649755,951.444202406691,359.481870918219,825.811080708605,149.749043433995,303.111041566018,53.3001215175386,434.365863346622,83.5772024849826,281.601327936462,66.8866937897279,226.310834485145,37.5062121932011,1064.00495181382,180.381892581397,429.434315685148,154.983050636574,718.061424920581,80.1817175507902,377.540754615156,89.2793785841905,1025.1735481372,331.78995886212,325.02911400388,116.98017455812,656.789588115572,88.9462833590209,1755.05587436895,152.28317619783
811.958636633346,50.1250455116062,936.373716230668,365.035521377227,815.941225971464,147.624368331804,302.889282778943,52.8974890090177,436.35494748108,82.5292867938126,281.293010677456,67.0049865935115,227.573809843826,35.5609521355426,1057.79893263256,179.894379753541,431.647188212694,154.730611352068,722.996243806256,80.0734141984131,377.887705503869,89.1532684130084,1018.16715298357,332.178939060148,325.589192846381,116.43809626471,656.90715040115,87.663864651994,1756.02583869905,154.744652651042
815.354169876599,50.5676431678432,952.469803032811,357.870047665058,825.627210966769,147.852567834398,305.526137105453,53.1215058471652,441.653624284999,83.7846811771044,282.420401123406,67.3037109176785,231.605592758833,36.9769225963989,1061.29603223179,184.708174017879,438.028732926845,155.907383929904,737.147761547265,79.2581331601215,381.66113780185,89.7400915211606,1058.20519417588,327.789436142706,330.629192936541,117.250725643622,663.463650161456,87.9087628169156,1789.35030223183,156.041358701582
811.762292508233,49.8915209858522,942.059955018203,361.197142527132,813.377800512396,146.490522747048,302.931998451437,53.1595484714574,430.403612387275,84.0554288979381,279.791818845706,66.7458958202732,224.424672522166,36.4620982236955,1055.25811843633,179.808495663793,425.651434018534,156.412802999189,718.598393703146,79.8881111928977,376.965191721303,88.7396285684043,1009.0210628453,330.865299574408,320.723190458446,118.397710933586,652.018759203327,88.6979257824419,1743.41042766719,155.108606962651
809.828633196479,50.3658883235036,938.374261207411,359.985239885852,812.765870486227,145.777178003905,303.660829746882,53.3887661281015,438.617531867074,80.2370082452658,279.858676719799,66.7211910237413,226.824701270105,36.4131421120718,1051.3576530228,183.759633644601,431.170780965976,153.231760476607,724.229035624629,80.214127391369,377.505278884958,88.9640554112871,1017.34678649423,330.55742087581,323.397926788838,118.908053239919,652.512663791356,88.4297706791063,1750.23496888957,155.320850251264
815.861694415063,50.2132841111438,948.101067827856,360.971386804495,820.368273724897,146.022051035411,305.83482458149,53.6853521835826,443.155381139039,82.9021823848791,282.343540479286,66.8713603015422,232.162003534756,36.157044615666,1063.97065192811,183.195277825851,437.513268818189,155.904848410622,738.070350061702,79.0682268816422,380.641563492045,89.6710080076221,1060.02828280151,319.348277364542,328.446081624897,118.49460898233,658.719118420114,88.5007178560535,1780.64019668533,156.435933479608
808.523928417942,50.1020504574592,936.947984367287,358.060598857961,810.215547924562,145.118047642881,303.145013556176,53.4012626312663,431.155631741709,83.4348150868898,279.265461304673,66.6158625295303,226.215522778049,35.6066303952292,1051.86479323546,181.922426945076,429.174524664727,155.271555913635,717.882525510248,81.268645222328,375.199339576547,89.4951992288061,1005.8461822236,328.336449499234,320.380688438865,119.149237270503,649.45257515061,88.7736888262018,1734.66360073253,159.039704865494
810.002314119916,49.6549773922906,939.125059861844,357.073521813398,809.948813981083,146.039234493847,303.644311524002,53.5185492664233,435.092888786264,83.0300199439344,278.564342108233,66.8663705090623,227.167790339943,36.7443193298518,1049.02991385691,182.906958934307,429.832133028959,155.760998581631,724.543348045637,80.5258862468358,376.965138228685,89.1891986568392,1028.10061075524,327.001577114724,322.820980623695,117.508125133787,652.344911638589,88.6318461053174,1745.12515653201,157.560783392607
816.968554216584,48.9972253452096,939.659749656378,363.886014890886,819.598779612897,147.33903422569,306.378931693969,53.3202438210454,439.985137588988,84.5547515288922,282.262517162045,66.6080472975261,228.621856115316,38.6009407635012,1061.46527882399,181.9729697469,436.012816201809,155.49282919976,735.989339725643,80.0204390559024,380.326941722131,89.384546313307,1048.18071080138,326.683038639396,326.757269295612,119.586082861844,659.18919036167,88.6255319480933,1763.62830944768,158.805134521148
808.274633028339,49.9558488435467,939.971900019876,356.231018965089,805.509084930311,148.50873485498,303.24777830878,53.5424362569635,433.357091930859,83.7807428444288,278.78572051824,66.219591375695,227.150457321452,35.1022215568756,1047.67331844636,183.240209528168,423.11818723593,157.174614830258,719.83649619469,81.0321442501106,374.304861271257,89.8029467176139,1001.54269851342,328.121369850034,320.659703235213,118.205468973416,652.202859698261,89.6351980366158,1737.58209928213,159.670436935769
810.389693294434,50.9531684951168,939.234348153109,357.395947868202,809.992753754074,147.741485686876,304.583872429041,53.8682610681559,438.425631398098,81.2849281693402,279.482505543901,66.7135344354091,227.44123367034,36.9711686631048,1056.91337109931,179.536446324876,429.789243763514,155.316132861252,728.612143971344,80.8709912700471,377.463925491195,89.24923438845,1014.19464646292,329.563165790151,325.27261972393,117.530691959921,655.769310454418,89.4837335354569,1761.68033665774,156.476720284289
819.254685402532,49.8458851045558,948.480308407456,360.629469570148,821.535815652538,149.658735082029,307.619613537308,53.6124487882711,447.495339970646,80.6466856585638,281.693085396715,66.687913482361,234.028909987333,36.8995722607417,1066.72390783138,181.363481355281,437.455554472628,157.48578306144,728.11290536113,80.4927728184783,377.975362693235,89.2960232955735,1021.09915063206,336.109909100656,326.107645800902,117.32125116709,652.939446965853,89.1970530680765,1733.27342367783,160.118126157138
807.518148070474,49.7834899737958,930.006155460941,359.389963374571,802.909626997065,147.267092710273,303.128304935233,53.5896913321243,432.369536193352,82.0143160775504,277.370001484086,66.7679361728132,223.554575818605,36.5623496927875,1048.89510612436,182.152757548472,426.512061781612,154.911477325203,716.45536976112,81.1721516738802,373.153390532011,89.5218875126896,998.030635722269,320.803027347635,320.616866352738,118.501013369461,646.685116512106,90.1112826919315,1721.68369831564,157.626320900885
809.286937119552,50.2796913534689,934.509202960727,356.929454937956,807.924062239484,147.729797302309,304.225178261077,53.8247039727161,436.276803153012,82.4736635447606,278.590395127964,66.6647852874979,226.29655453633,37.3236359899673,1052.63099172656,183.862872642129,424.446346559881,158.681382922942,726.332424139678,81.3146195573688,376.536256921858,89.6092027431421,1015.08781114095,333.271581381205,321.994816242703,119.731442850229,651.830887290276,89.4243378447653,1750.7124764582,156.799558435959
817.970987919333,49.1489405501636,942.825715739386,359.950442073787,815.866771070086,150.178897357934,306.273685266857,53.5400491186895,437.512089078076,81.8783301776474,278.658199724205,66.8888299203588,228.212545473622,38.2582150560902,1059.20171059944,182.697019770337,431.031061790596,154.8407481179,714.371061804955,81.717827205027,374.309997051427,89.3382634112578,997.990494232657,325.544783039141,319.733802478078,118.122507405806,646.875751033794,89.9271767973042,1710.41823446427,158.302156692938
807.169131364338,49.5520820843982,927.547373193023,358.633600382861,797.513050040649,148.282514870467,303.01586324789,53.675576355253,432.347891367863,81.1888670231385,276.488376050796,66.8715287802667,224.185878000304,35.6257597860495,1041.52614136853,184.224484464663,421.946697210152,156.349922591351,712.403061680883,82.1973055801588,372.041737023655,89.9299217805391,982.601190383557,330.408067767655,320.017354041213,116.695857155811,644.176182325739,89.6652546691713,1716.56165567217,159.281971234102
811.628261251328,49.3270571607816,937.899616757818,355.746312787139,806.621902154695,148.593749355267,305.889950294209,53.35136128558,436.663582566403,82.357099171977,278.375251675113,67.1385925739595,228.793165137075,35.9250795585007,1050.92820704195,181.680336563814,432.082740168336,153.338808394553,726.796313412534,81.5526694966233,376.220405379142,89.989890120955,1001.56579209669,337.534739260585,320.673385734192,119.331430698549,650.570909247324,90.0309460832542,1745.20020820728,159.308287048242
817.602278094985,49.0745884543768,939.212395735757,359.586325078834,815.201059135357,148.516521278831,304.813045819397,53.8028199119879,432.42521746013,84.1571386625719,277.992213614282,66.1250145180611,224.743056795472,37.1257151806623,1052.15029076542,183.392794762426,426.665036123274,154.584302973771,712.050246510219,81.2085605375797,372.496671451211,89.5625515881901,981.276279563942,329.670740505761,317.80884181315,118.276505443036,644.205611611005,88.9793561680594,1710.48058176154,158.187796231349
808.260662003442,49.8413328429645,933.781878223856,354.966233510391,804.98026195972,145.072110658422,303.181017861572,53.8597163318264,430.213286835775,83.1646413094031,276.769865754035,66.0972848014844,223.338670722188,36.2701368147587,1040.79368821419,185.204369879362,425.394346940532,153.447071369087,715.085105633169,81.7276448806207,371.984362828477,89.8066351862047,978.537695875702,332.250126096506,317.342763807433,118.670682385737,645.34258536112,88.9147156833228,1720.43290151625,157.723008955068
812.283302121151,49.5910582967781,938.359315450152,356.46656196889,811.120533568836,146.245537439393,305.909434443923,53.6033971191295,437.731961567867,81.4646107255177,279.430961445128,66.6728489614793,227.996615601426,36.587661055489,1054.2252746052,182.096549966217,431.023167142682,157.514619649029,729.09067151463,81.1554853859309,377.587998931415,89.282058240859,1013.53504217573,336.737812110893,321.77732258505,118.223999438243,651.614024960102,89.9920393661914,1748.99981508287,159.984136600823
812.328891092121,49.4358290123428,934.249260834839,357.542101125978,804.801281550471,148.386161587293,303.347631992761,53.7950476548868,430.482999484511,81.7673339981137,276.971832494388,66.270473874766,222.188441313164,36.99342816627,1043.90137330163,182.600021420635,425.132543830872,152.827682429181,711.674127998851,81.7407710800009,372.039791684292,89.763373008804,985.160515438501,326.899264796806,316.62506046983,118.796567961771,645.809222849047,89.7952298848969,1714.04919558746,159.142717677362
809.181958953557,49.8434798512235,925.79946303728,363.460340553701,801.959459468137,148.805398853542,303.485238320928,53.8697412435496,433.982032412771,81.8399644795751,276.870062591548,66.9109823069746,223.891840095734,37.2451289666198,1041.89176694255,185.27241785707,425.36446100416,154.884918407479,718.472233853395,81.4783252874631,374.325019046799,89.0165657166427,997.142231090527,329.689325437169,316.124473301504,120.049925669609,648.862329904377,90.1708261276812,1730.49430302032,161.226635741716
816.131657975059,49.0462593557952,945.069225417845,354.645542406667,816.45275137439,147.441825644059,306.85516856337,53.6206157303033,436.930800456767,84.8046277604666,281.038237855713,66.3487125722259,232.142112987846,36.4035482322126,1054.17846661031,184.004261074799,432.656968557164,157.180019832996,734.049436611831,80.7522099468436,379.447283110699,89.2252193647826,1042.55450434834,330.931729351592,325.189010380827,118.428032132293,657.596377906355,89.8782840695183,1771.76971630164,158.243525773386
811.740743733887,49.1320143391355,932.094449686295,359.896850733267,802.735029827849,149.052043931803,303.028453598836,53.7964724546591,428.886165357465,82.2506433595582,277.183055537116,66.2588206204459,223.657349311577,36.8530186813872,1046.46230181289,181.363056333205,422.461422945832,156.177953492185,713.594121504871,81.9886559783078,373.30057676258,89.4443567984153,985.335342550937,334.350869089648,317.93699439948,117.738633675262,648.720077590646,90.8809653937736,1725.29447636318,160.460188664512
810.739881570708,49.274234045585,926.582630368341,359.729499214658,803.677806657399,149.357343611843,303.388337453228,53.7747057731438,433.345947917436,82.2582672050776,278.661084747043,66.1771086528327,224.93984362323,37.3417297070035,1048.97407999777,181.584503224827,424.446775398101,158.527975988636,719.986247230239,81.6243351053271,374.975924871742,89.2101536633648,992.24231951165,341.511219677846,318.731064360705,117.922099143971,651.816600243615,89.6775781622362,1747.11684929694,154.519089170866
818.523599305706,48.575464660023,942.487586521593,361.789228287322,820.622160302323,148.154718782952,306.758327330298,53.5006980048105,443.516696319637,80.7698791443478,280.929205946845,66.3651133774079,233.231698903294,36.386166273646,1059.58914425437,182.330445252278,433.273028203532,159.017222169389,737.131572544537,80.2708585817789,380.06912068716,89.460644679132,1039.89446157592,338.111741389081,323.159760988546,119.943910347581,660.133507834279,89.6050679980945,1787.85452834741,158.043940974402
812.670997331257,48.165131696874,931.993278247077,360.489022368664,805.371050636968,148.702890312744,302.91442028785,53.8001225419508,432.201632840223,81.7909345562414,278.213529152648,66.3765282386088,222.142779366836,37.2597303848144,1046.47961088601,182.300853787681,425.266751438583,156.018274573887,716.033326872295,81.9238628096399,374.050234446431,89.6775310184074,1002.97009905976,336.317519990434,319.732467406372,119.211025048316,650.061573338044,89.9440275099946,1734.05770843237,158.835406786365
812.116401659547,48.6591780138606,935.94565090114,358.745767451241,806.524836924086,150.000491806735,304.247335445488,53.4671767251738,434.452846706234,82.8954393682711,278.666101072784,66.6128089595502,225.538478823605,36.9534324288446,1048.94535178399,180.855357361783,424.489552868933,158.660264927278,724.041905915289,81.2488450909831,376.477999504532,89.4302158412595,1003.74936571278,333.572250034624,320.039852593159,119.314759126063,653.14647196971,89.5687982970388,1757.24645737319,156.368942141582
820.098781600597,47.8373218781383,945.503007593579,361.258390809252,821.805367635707,149.368277517352,307.221965895189,53.4925372631375,443.421534273101,82.8037615869146,282.182550681056,66.2710323347007,235.338683305041,36.0781901584005,1066.13627042693,180.240358498337,436.760214092164,157.320684174021,738.529029915606,81.0421510369438,382.040377534555,88.8571215759724,1024.18889753245,351.791125784136,324.683877355178,120.453082575897,662.260699701636,89.5963469961117,1802.23768528681,157.191844479129
811.920063236296,48.5991084311633,937.638844547227,357.417601788773,812.467124642059,146.028335375196,303.746715454188,53.5252595516654,432.768276382147,83.1581272544388,277.905622746543,66.6400777114947,224.315533064862,37.3930697498188,1049.02254416266,181.536590018619,429.437609581049,155.08575509603,717.867770531169,81.7064016643968,375.288328767732,89.5271093022999,1011.55838306233,330.922106514882,321.997057272918,118.765828489628,652.149736740189,90.0227787364369,1747.73490679572,158.462847657331
812.854102176189,49.0256663667696,938.352587206997,359.309452988988,811.95605758412,148.005312973746,304.401514572523,53.3458307790209,436.655385581789,83.5645776553944,279.746265059299,66.2112835358463,228.990231772075,35.7606009208019,1056.5130050789,180.865133639158,432.784058853849,156.171422162136,725.693347557419,81.4841665930128,377.860578368523,89.4134153305715,1029.31014730804,330.301619146408,318.645171430446,120.936870636859,654.877479553704,90.4058207080702,1772.07234058399,155.904150378172
820.372391936762,48.4828667695465,950.690523565795,360.629444419362,824.614711310994,148.695158881292,307.893316517366,53.1462786338423,443.274228155511,84.1542874166919,283.321768064076,66.0104502681833,236.701304199509,36.3077338684138,1064.85530290206,182.559255665804,444.994855767673,155.023575542582,742.541266908253,80.690309156555,383.215475206426,89.2142921680712,1059.32080962603,336.027429874972,326.75836551642,121.268076808462,663.797452773624,89.1099204977643,1812.39077986297,155.100660855741
813.437948534044,48.8656609747861,937.206534431146,361.451000967868,813.657736077135,148.518111475719,303.804965369669,53.352014888957,436.819424731941,82.3190401670643,280.27220808708,66.230201045428,227.961478991394,35.9099094177079,1054.32948379979,181.35839224984,431.027478829676,156.140511875119,721.7100343687,82.046026992281,377.075885208586,89.724099247923,1002.08630776542,341.734868351069,321.402455777016,120.517342608018,654.294530462334,89.8017975415365,1765.60825674602,157.741165972389
815.560088165123,47.901091631146,945.038182690664,360.741010587877,816.405473637734,149.091751985486,304.885058684918,53.3670862516143,440.181738675141,82.6003913132609,280.899394585828,66.3373173811299,230.353241950747,36.3211760332523,1059.45444283698,179.517424614811,433.181012196855,156.702973179585,731.679823502588,80.4116143960789,379.80053360039,89.3270490595223,1044.21263813043,321.48092344841,323.309033052569,120.235055395296,655.756324124145,89.8495611860356,1781.50906854514,157.198830938749
822.841765862792,47.8935687961109,951.487579256153,362.775958658887,831.434491081419,148.412299433159,308.017446476092,53.3478163905884,444.637761638745,84.3213074319517,283.184578408596,67.2318784740567,234.996950976413,37.1845302909504,1069.75949677612,179.915787090009,439.373036237102,159.519754009363,745.542578425589,80.6635649343319,384.150962735219,89.6881534698506,1062.81932406467,341.429052700674,329.091720795504,119.823159157268,666.468989528739,88.6138069002746,1821.98648396941,156.82308116196
814.871269410256,48.2449457011277,939.644605357453,362.398717485219,815.763862988674,148.201435867928,304.572583101594,53.5869022395328,436.34969581672,82.8098436932318,280.75273500636,66.2053478678874,226.17085945729,38.0478625266833,1059.26442421723,177.932855154916,432.067710822733,156.095492777752,727.355819740999,81.0970555503777,379.236326561506,89.0372493308305,1027.33901887609,332.811214799371,323.27242167849,119.430757950705,656.745767559615,89.7260603142815,1777.8156892759,159.105127802415
816.75385384038,48.5569663254795,944.369228985974,361.572586665798,823.059208936055,147.567742199675,305.833449175061,53.295950172467,439.789572163691,83.5019156636452,281.461338707647,66.5404670174503,231.450026128255,37.2952873065027,1065.07007656228,179.65964673723,433.554102102133,158.767657927281,735.229106160156,81.2849297639866,380.856354591095,90.0038898992683,1055.56987461151,332.258972790486,323.857042884734,121.598024761005,660.907641643713,89.6207622557819,1797.21558731205,157.84340161354
824.5239290805,47.4504301508448,959.219642266296,360.786111385515,836.764457743932,149.279648308314,308.945904124324,53.5673003385839,449.919520312891,82.9674924431002,284.783267599701,66.3270444550406,239.923633985777,35.6811223653167,1077.51256517258,178.354370462405,446.834373339554,157.673636625535,750.112189565301,80.1982175483773,386.462507684348,89.341184990894,1075.64460385827,344.485067208996,329.129526283595,121.208679488255,668.811612011338,89.8972364945418,1831.38875115193,158.330322400731
814.749191463683,48.7737628126755,946.973827962427,357.757872213083,818.969222739572,149.056275638613,304.952321074718,53.5082434142889,439.774738496874,82.2364981476943,281.485759283991,66.2292485419787,227.704234026591,37.7319409718914,1060.72399714341,182.407254764748,436.274749873928,154.082017651524,729.578576045591,81.125397569603,379.996385886695,89.6907488304142,1029.84684037842,336.99634950387,327.184596633099,118.673616417542,658.424406574916,89.4036774868691,1790.98921643596,155.237831188127
818.106550762492,48.0078537353121,947.902068762304,360.427936320444,825.001292194794,148.561142611791,306.33528416736,53.5216763854914,445.331179622712,80.617616380438,282.122126453561,66.5219775464557,231.707129810392,38.0231299354379,1071.2645132551,177.828904067436,437.260289469573,158.299507506422,738.769982915424,80.2718395438956,383.276448191932,89.2748154007333,1046.46986382136,345.225871282032,326.138544198823,120.500243472166,661.717674130592,89.2946559418606,1809.93583188309,154.861383812373
