664.354115962685,49.5967603278569,977.065905930857,342.63515470151,849.065860862486,131.104532344169,291.630314390272,43.507140215053,461.775119950104,72.8861157898461,291.096570635051,62.6740846865109,247.554353136713,33.0034912784864,1067.09294405652,151.576629164913,443.494778884505,145.855185067526,707.892523240834,69.4681825827807,380.202408980076,80.0761783972176,1094.77669294825,314.039914357889,331.111555582361,104.826851989484,691.958627430072,89.0762896789692,1916.56777174707,136.142887271277
659.380362388559,49.835591546553,969.27286520214,342.905308812442,830.79743120757,131.728520478808,289.351279095931,43.4767657245894,458.116166087409,72.1123043202438,290.201840276595,62.5240787561029,245.092996473899,30.6818888765326,1060.43413610476,151.187603129849,440.776373008641,145.324039852893,710.657621869322,68.9580715428787,379.935490531276,80.0488353907414,1128.14253267359,296.911635170509,327.146896402181,105.807400479071,692.232950650085,88.180674066194,1918.70204692605,136.083153714596
661.69189852335,49.7409357499186,973.794396214087,341.03472837983,837.022566525314,133.536797226555,291.418089831325,43.2035736241929,463.686734408332,72.0906174196855,292.397197533578,62.1561827976127,248.636319503492,31.6386519724835,1063.2840427016,154.465566172035,447.148639009326,147.198862547739,721.609646108676,68.5184818796118,383.509507559052,79.823848172939,1151.19201687608,302.42604220016,332.951175750649,105.509587074262,698.922272552081,88.7222265785722,1964.39830989281,132.876368150769
661.250651685172,49.8795177078688,969.624748437779,343.737003620201,829.295879867814,134.939306304777,288.791894854392,43.8503796970517,453.437120160277,74.5845332523698,290.368017299569,62.2972212982414,244.004794718076,30.6643521227927,1056.80666177055,153.688708358144,440.22290296899,145.024204167799,707.361018185694,68.968874543404,379.714660198843,80.0338880236931,1116.151504217,291.831988053414,325.370061818167,106.679105655978,688.917979108967,89.5197379174922,1908.80072539498,138.242606610306
658.789527516303,50.1400942020863,965.349684848083,344.729996310943,831.492265017412,131.614547480826,289.992029329318,43.3775730202741,457.800326456525,72.9668636349916,290.307126364626,62.5311456688991,242.84947499806,32.3889803107903,1062.26705216698,150.372853125957,440.167362991033,146.23814640212,711.729396733484,68.9553243119902,380.607268766268,79.7224817641092,1115.49560515106,306.611249602945,327.632253387312,107.230078717518,691.658967854819,88.8352157782382,1926.55359278269,133.258319737913
661.805851529537,50.2380957742328,975.019263632477,341.414982663,840.750137735569,130.659877757473,291.612161932316,43.470845664431,462.667618032193,73.6892347346453,293.026956852114,61.9262089109574,249.612322664536,32.2815731996247,1068.30818559029,150.719888365194,450.211644529286,144.764150628448,723.114585938322,68.3275592330962,384.384799394666,79.762872619714,1145.11114861526,307.523457903155,331.62634140271,107.013689283607,700.291576830787,88.3250527143616,1967.96283358113,130.408719801395
657.820067816421,49.7741800627187,960.205657122919,343.101048317977,826.018536553145,132.715900472996,289.31454000949,43.6727744714148,458.007561317965,70.5756086235838,289.372732543854,62.4738785103444,240.252667474278,32.4047907990198,1054.06704055625,153.911884775997,439.266358318106,146.736015358206,708.809456849304,69.1044869347139,379.845845904751,79.9429457762819,1115.92639301675,305.278282371794,326.735571449533,106.246721043723,689.504143045711,89.5903398375665,1913.40443949715,139.690019763548
658.395342095717,50.1601067689495,962.418556037816,345.579275596751,828.965640151362,133.980097208803,290.198057031246,43.5834499594,457.392952978425,73.0322283361597,290.258699455794,62.1313691740874,245.12395656049,30.3372062074897,1060.44480175382,151.655740800128,442.358275757881,146.230609972472,714.410954862855,68.7562561225343,381.577161528691,79.5821344605407,1123.88168829113,302.523182107948,330.192825395937,106.882826344329,692.832090851776,88.9987841766491,1930.92406568791,137.303659043859
662.409880144257,50.501890683332,974.090603494222,342.823477217541,841.828840254056,132.886348998922,292.1269704321,43.5857532859226,459.023246878961,75.3850824394274,292.061087900159,62.2470223353157,249.498801088434,31.9823714478028,1069.24378126494,150.620270809731,449.413059073638,144.814268559094,718.363567699411,68.8562103898829,384.469871197367,79.2253677587223,1139.66160854962,304.615528761534,335.762905404361,104.259784464038,693.727587011894,89.68294706213,1914.11011981737,139.667160534334
655.822582209581,50.5050238555254,959.856715817791,342.710879640209,820.692050747048,133.29687246949,289.129450958908,43.713274789792,454.049663608272,72.285524385928,289.029094810649,61.9429246516233,241.331556850824,30.5967064182376,1059.64649997345,149.597276150437,440.279543733054,142.179237146728,704.805209754503,69.0160543577205,378.024813753592,80.0086871434386,1096.66184515867,303.536220430941,325.40169717944,106.024197083819,684.439355197085,89.3951359562518,1892.01391559171,139.590973872726
655.477545753037,50.5411152405515,969.820719987639,338.116677294097,823.763143575587,130.979841660794,290.300906078801,43.6506937096376,456.088891801118,73.7048429921716,288.090333559516,62.8094173600803,243.226805983208,30.6270736393147,1058.57601571777,150.798627312423,441.026058901795,145.098102400047,711.40950056066,69.0692318677154,380.091976828994,79.7437380892321,1098.77005213689,310.305868142534,326.294502094072,106.792393860304,689.14464496761,89.4425076875437,1917.64682587944,138.974509077343
660.245909402354,50.1861725734788,972.143635053023,341.473196536755,834.799408121836,131.868084731531,291.554235384808,43.7313174073166,457.38996871545,72.8809718490535,288.939548885947,62.5523299442649,245.309144410589,31.8124283694407,1060.41512733969,152.434109183653,440.126722142585,144.41603745035,701.868940160108,69.8011474027455,379.019683196044,79.5858105931161,1087.77427788622,300.751006204096,325.052785375505,106.330005946215,681.952319036743,89.9870238102684,1873.87962226306,136.282355312777
650.668546491395,51.7188528875207,953.017744201064,341.756364253576,812.946522643593,133.183715608711,288.985897400181,44.0502504124076,449.094886777525,74.7814221798654,285.898459843902,62.827959427225,236.356775979275,32.658673484375,1053.00591904244,149.879159103342,433.665670770355,143.25300615123,698.52251873992,70.0504304153796,374.88204490279,80.2159322013809,1086.40402712463,299.730988845664,322.922446857317,105.662731344263,678.617725322035,90.4525330298393,1873.28931726734,135.324465481458
652.807536242656,51.3201283676201,959.74712593008,341.21493262993,817.530267769309,132.89352050776,290.713280142632,43.8047057134749,451.611513946731,75.4152109056609,286.918863678491,62.8710675311399,241.888136430456,31.0515897809529,1056.16555810121,150.725700335253,436.994938595652,144.663413179482,707.680673762708,70.1713542162268,378.608747145579,80.3683423004076,1107.95156832066,294.354686270493,325.558391702698,105.811067735597,686.365918525804,89.3500015517042,1900.4216859167,137.347416327839
656.866984468599,50.7849814830711,963.507333390517,341.747129156789,827.03727506749,133.930899425013,291.033837145792,43.7508263028782,448.69166599792,75.741908963609,286.210455476666,62.8032011793211,240.434259470985,31.792393726184,1058.7539090907,152.390083707673,432.702619655001,143.396351613075,695.472645771957,70.2592533552166,375.009938487142,80.3264501060453,1087.12744162605,286.240365862209,324.380037812935,105.648425758348,679.811767943027,89.0504613544582,1860.02815938251,138.529165427796
649.338047285474,51.7098612941198,949.006621240965,341.018854834992,808.383402459004,133.276990009078,289.381857881814,43.8470285098322,447.490867907215,73.0528379625643,285.093024184424,62.7831038910564,236.388092496719,32.231444364899,1044.57964363348,152.746635862692,429.162765683593,143.938711139361,695.492599880458,70.4963194797449,373.340139574577,80.5719251609029,1065.07513233067,296.088501851061,320.533334863782,106.512518177469,678.70763482759,90.2527910424211,1853.00415231793,140.647038792728
651.122007368425,51.8432511669153,948.259981806031,343.374301187033,813.231661964128,133.137688844994,291.073347194119,43.9300697061645,453.737968440961,72.6290303449723,286.772131790007,62.8051908531928,239.163173828726,32.6781415430884,1052.186387469,151.377578570134,436.775064230283,144.049271026253,706.47640791661,69.8446517134351,377.501933138287,80.281786877123,1090.47793922602,306.236851347905,325.905653814453,104.684843853171,687.282828742682,89.0997497279578,1889.33342595107,137.413737887098
657.23683329635,51.0900227784256,964.684041199843,341.369861472833,827.827262547136,132.931473179051,292.690492519667,43.9600249240662,452.770508505297,75.0795869993005,286.320204878267,63.1137061858791,242.356208196552,31.3736112063186,1057.12979526513,152.077504309735,435.571893781568,144.096695649166,697.808549223866,69.9246570103356,375.224008180583,80.4149087023653,1083.95961087999,295.876700707078,322.461636871832,105.661627881842,681.397914614101,89.6775010237637,1856.73552736181,139.990783036127
649.734317215319,52.3091222584406,952.434142734578,341.637610624804,807.26184113896,133.629338186623,290.845970445488,43.7402745744325,450.596800314443,73.0092190378058,285.511853301058,62.5555628970496,235.737533581651,32.639135511267,1045.17576762632,152.937445762346,432.719919841521,141.471266882684,696.725757332912,70.4570227682815,373.470202958946,80.5326210168729,1067.20919548535,295.904833068951,318.973498670858,107.235429943801,682.52153283926,89.3220251695681,1855.72070947634,143.517223881559
652.654499732407,51.9819339730064,958.514190080569,340.76194340603,813.137277700487,134.420491550967,292.1240940299,44.3094754554924,449.953055816889,76.5874652756427,286.599911683197,63.0748598667573,240.855757311997,32.5972225800303,1053.9498504871,151.386972539286,437.125266506081,144.336380367282,708.31232924406,69.7481048044068,377.307924871539,79.9435872490803,1082.9486179868,309.678123027141,322.514077520833,106.791328237354,689.780089651099,89.6346642881529,1896.14200039551,134.92117430607
657.392281701478,51.9343633511686,964.619851490228,343.188348962663,822.959869790553,133.275259206623,293.405255798848,44.1938000584932,454.216858026887,74.2496208587473,287.474243882029,62.8579018167974,242.375807121328,32.65353466947,1054.93819974409,152.470542368491,437.514802718626,143.022437457707,699.794686058836,69.8351417840817,376.426014891617,80.2135582037595,1067.41270080922,302.424641143797,321.741512342815,107.437906687862,684.409011192615,90.2275294368491,1852.40746857539,142.351311055883
651.822133961891,52.1675648608305,950.573824099162,345.078010005227,808.989630031633,133.573037426191,291.243019085876,44.2377351620358,447.596295866562,73.9716158234288,285.480224242751,63.0872017885543,234.664858876398,33.1081490648813,1043.59857104304,153.93230892423,433.53211427305,142.317588326178,698.201414060699,70.4912634808504,374.792712048493,79.6951234518362,1069.69585446252,301.077147586972,319.91667630513,105.048672180542,687.425842400696,89.007110777087,1858.61473784567,140.838754663418
654.972018756154,51.2320109200922,955.295339801983,343.04910492041,816.923993369818,132.494057800169,292.84899059453,43.9754755776593,452.954283433387,74.8707570486717,286.954386113354,62.6145618800574,241.380052493844,31.5335794034418,1053.16865694008,150.975369924133,434.482826323048,146.351338448376,708.832368523349,69.9252167930282,377.594560741253,80.4737832494197,1080.00538781158,302.978370447126,323.719314265717,106.154155727712,694.895341388896,89.3009844070271,1891.67622551619,142.199600032887
657.384564922547,51.7309524830298,962.158573897254,341.905299732106,820.622987163044,134.597962856287,292.012599885718,44.1744147425038,444.710261523564,76.4883318105118,285.458188033762,62.8823605232126,236.839468491582,32.548886504322,1050.7235920366,150.692668289049,430.262174498787,142.63699747609,695.4816107589,70.4604546254847,374.604167064847,80.3176316826252,1056.52754134982,304.629734089905,319.228598862554,107.320153652529,690.286042260755,89.4568227839932,1855.05302313591,142.070222945888
653.792610396124,50.8588850479415,955.742130952238,341.523598485687,813.300605352244,132.916428175062,291.329675442236,44.4171008620613,445.152253559653,75.6994989178479,285.564165273689,62.630352698182,236.305327614047,32.8493512051616,1044.85728523933,151.657765090424,431.335494832473,143.542514389835,698.467425715973,70.3818447581021,374.407826318023,80.206727021035,1065.09648435464,292.756132828903,319.839868500466,106.687606848293,693.631945570398,89.4378656933362,1870.94397446938,137.53836400207
657.281608706405,50.5605248999762,957.989078779421,344.648569167873,820.788230058432,132.673304693421,293.588652715828,44.3578406087471,454.741524160506,72.3809588698832,287.809245468506,62.8871826921898,242.793169664873,31.8704408539267,1055.08085360351,151.100708145583,437.361791551106,144.848188158355,711.440769736611,69.9614336928787,380.012507811454,79.0727426932058,1094.30074283686,302.287821511744,324.065780130771,108.394674769236,702.638127994453,89.0770203171623,1909.39825579891,139.604067912995
658.179897235379,50.6080614582988,958.601395582777,344.127594196743,820.395600718912,131.851008966544,291.922165235744,44.1596843995998,447.423928881177,73.6119411318429,286.046598978729,62.8861521497374,234.184290085451,34.0163883639054,1040.25392843646,155.468226728516,431.125566642818,142.546434602689,696.554833339236,70.4560904683293,373.380227005324,81.0240430933977,1059.04320352684,303.1681254714,320.982782897772,106.793736368485,694.725789744866,89.595145751028,1863.49087790089,140.040767856667
654.009378914321,51.1373323025808,961.623256959936,337.551470247078,815.323390582298,132.177164722433,291.163120312809,44.2009689565072,447.343001760989,75.1155522558045,286.120648572433,63.1670029765209,233.678632396413,33.8150103198588,1039.94445203831,155.674136552366,432.717624575465,142.253598054051,699.696133808855,70.3227167043883,374.400638016792,80.8010846932315,1058.58498846848,311.522770164864,320.147923382448,108.040691275279,696.198826513226,89.768578542651,1873.25679879328,141.026957710503
657.607838296857,51.018379654998,963.082469420726,342.913095359895,827.064125389885,132.814992402665,293.153086944076,44.1266176704307,450.96936178313,76.0815118000456,288.464863889472,62.8281666047429,239.640414356678,33.0465829193786,1047.76224030684,154.096732437489,440.658433069434,144.548557085113,712.514267123936,69.6814119655162,379.719463285817,80.2327395654108,1104.66242269134,294.226885183669,325.145516886098,107.424519672102,705.420589114067,89.4953378988911,1919.28993676356,139.436195448448
659.328532709773,50.6605513215688,958.963570103209,346.769891382988,825.128394619846,132.140352935129,291.09402581523,44.3147209593359,444.941294338853,74.6141047068736,285.997843202847,63.3822150908655,235.330253835527,32.4359452519039,1043.59362310111,154.706300099862,432.297216988503,142.907671375449,696.499772643746,70.6823893338531,374.834916755244,80.5531454050847,1067.37160855935,302.297276454992,320.962511676792,107.062425842643,697.476764034878,89.3334012280072,1878.07237704561,140.001744792766
654.371244911986,51.3151012304233,955.457400397284,342.395275339636,819.825955069523,132.112280564965,290.321015297412,44.267726085454,449.998049092571,73.1553569815454,286.918695067207,62.8766651726222,234.705144260394,33.5329715897839,1040.78079621522,152.2287915816,436.123668835452,141.443467251713,700.586229649642,70.1817890623074,375.283164651278,80.3414909069876,1092.35759585847,291.709478318614,320.993187234216,107.072471202596,698.275356058914,89.484502431844,1883.94683057254,144.198473544141
658.166815875667,50.7774485800021,964.896158018197,342.928782426381,831.966779189765,132.838250646515,292.255827732793,44.1885355259613,454.890171885581,73.8249676223118,288.899832177511,63.6499480957358,243.907510022488,32.266561274893,1050.6559456807,155.364847083121,442.830680625728,145.286808406623,714.881671863609,69.8962248822056,380.134000538987,80.6484936659797,1103.60851820389,308.698737344739,325.406758133928,108.225373951406,708.380816801547,88.5263380933141,1930.79195260102,144.483837588789
662.774583454867,49.894955360064,967.460943173233,344.574429635039,835.533515099633,133.783441054989,291.27649592818,44.2675494821209,453.782374285724,72.6559727810738,288.469524648134,63.1612424152567,239.966874439565,32.141919944753,1050.12116554936,153.106447546455,438.816962316002,142.720541329125,700.762538776313,70.5006035960297,375.758467731705,80.7547168097432,1085.24337721945,301.531592903841,325.248076807322,106.951279307065,700.979029249103,89.0315907335406,1898.6858372492,141.396739007637
656.32288943086,50.9274048994094,972.270828737306,338.519305807291,827.079390380136,131.932150252142,289.786664279015,44.4375015403135,451.895748574298,75.1760258360119,288.080932168737,63.2925457105985,238.75482942107,33.2145893476301,1047.18101903104,153.11360750414,441.396906329593,143.23665644556,704.3569895174,70.0284361238161,377.01139085267,80.1551373479363,1100.74215565908,297.943639622225,322.63677980491,107.891913498976,701.98043468436,88.1651399952538,1905.38527752264,144.895215467791
659.712072211301,50.1624823215813,973.034696687361,343.224232563624,835.804703810759,133.310630568006,291.495505638499,44.2371142708986,456.717568332903,75.3187793803297,289.96889635804,63.6674053138342,243.693596690961,33.4375918925423,1052.62753037678,156.159538315387,446.365325140898,144.64315040577,717.657785501927,69.4041287434125,381.368323818065,80.3367623295467,1124.83659346944,307.126274047274,330.051535901422,107.485668483996,708.716131825443,88.7505749672127,1956.82575199038,137.348184225157
664.001678041257,49.6643839564945,973.489515270687,347.70732009587,840.10844765582,135.574613916636,290.2991828365,44.5034712236479,451.208622610222,77.1697566796858,289.325665643179,63.4965490722326,241.88823516583,32.1405259329709,1059.7811346918,151.130173969883,442.165022001671,144.98379493056,703.722163883966,70.276488151488,378.265885001742,80.2595795365943,1105.83220375534,297.936875140466,326.314044499649,107.988407549056,703.550258935526,88.480916285748,1920.16153756352,137.630031557353
658.759240151541,50.1258311538625,967.838662288877,342.966883148448,831.397703628251,134.084284059312,289.189004407964,44.260978598057,453.129213904119,74.8886047049969,289.816617136505,63.1132450074413,240.483303307001,33.0951437046549,1048.88265753751,155.536609875285,445.248751636274,143.73765551399,708.542173410038,70.1340570163238,378.982687495136,80.2253781624709,1111.0683873003,302.218829796974,328.707723712815,106.698132565603,704.734798899196,89.097808202372,1938.4950409441,136.372221435397
661.556923539275,50.2761702263638,974.419032760725,345.740735713634,845.75354536043,133.498664371834,291.236803195892,44.0595992711775,461.173024710718,74.4590045502252,291.603603217384,63.1464408751252,246.121033412425,33.2782291925613,1063.97521723473,151.580121888205,451.613515736898,145.296908791683,722.052029812477,69.3890087376913,383.203637620919,80.4698332116145,1148.24718478059,309.159750087269,334.48548756625,106.552456266429,716.148239712044,88.1434342244299,1981.66557481777,137.082587777946
664.241351078484,49.1985076631517,975.832867611152,347.756970919971,844.90992475583,133.875642270346,288.728472193076,44.2922275529668,453.576196026473,75.5383085738832,289.545437972017,63.4683793439616,242.634281330853,32.2877134794356,1059.43264553843,152.425975465566,446.369318300476,143.090462880809,705.93720275856,69.90805096279,379.472539836552,80.2666905641115,1109.07576453071,314.819992377938,330.229124981838,107.159521019171,708.153654028062,88.7180744758735,1941.43197517967,137.112949187457
660.791753898604,49.4729371010065,968.536731540624,344.266930911712,839.874066049312,134.065531234441,288.23613222553,44.346410781162,455.580166531255,75.2642332130267,290.633892099562,63.1457026047751,243.247098655479,33.0983820025767,1060.27779301348,151.909787404497,447.150706110717,145.010087232841,711.733380352513,69.3968807657069,380.95746129482,80.1578553833192,1133.60953162627,311.394717446151,330.889646067492,107.052838634849,710.912812069258,88.0404245036002,1961.56770546843,135.978594338985
664.792496233567,49.0743300415031,982.675939340765,343.275466527753,851.769694336829,131.736260034137,290.010608688416,44.2141539133436,463.169413533556,75.869405196651,292.779995242832,63.0705833293855,250.084975662205,31.7763831160177,1067.99450900431,152.590683737844,456.589466282683,145.142820673092,725.557596888374,68.7875103206057,384.882436501931,80.6113748242251,1180.61350309395,306.511691071097,336.283506856861,108.814788516837,720.450608739949,87.6713685457393,2012.57982794273,132.361192511492
664.313670559014,49.0715158581882,978.45225795076,343.55564266052,848.622000211894,132.59722291689,287.909397988418,44.3544408876818,458.648765253273,75.12587342341,291.26745645878,62.7441872299291,242.207977715469,32.5909593620637,1062.58379785489,153.180649974663,447.66777775442,144.180236508924,707.800546185608,69.8286554531512,380.689482373606,80.3992609237785,1142.77331049064,303.927441569252,334.704346426704,106.270058707466,710.208540614793,88.1650012704203,1955.69089153223,136.936326223367
661.775134897363,49.664736337686,975.725334214859,342.699551590161,843.954550738149,133.431696960621,287.663908027967,44.2320319006424,458.577684168722,74.40302496759,291.35729878203,63.3860826183386,244.046351992435,32.1976737880634,1060.63958803226,154.113211326475,453.909378699078,142.950390780986,713.038564392962,69.7081778340124,381.026760286564,80.5108646262388,1145.48127279435,301.820571922866,334.428469378997,106.363450374082,712.379960571854,88.0508630807647,1967.67135743879,135.867701829713
664.508970716254,49.7532434181313,984.65649978377,341.756901030265,856.602584745258,132.081619177624,289.473675160566,44.1876467365475,467.654692023078,72.8744437485431,294.26257747056,62.9561589082969,253.937957721353,31.3389244729666,1071.42131320375,152.509914343367,457.159747514321,146.157225514813,727.180048297686,68.0967599563563,385.706424192944,80.9119340711974,1192.11668468754,310.003075407681,340.01380414588,106.706888211367,721.232989355048,87.7585026712628,2015.61425444563,140.308251590272
664.024406383115,49.4754437058814,976.828070856606,342.369404017414,850.403667891403,130.748237003821,286.634609085443,44.3468967610363,458.205944922462,75.9621375484016,292.142432147989,62.8590157433901,244.436299143404,31.5980359853373,1062.54141820138,152.937807868072,450.932110377132,142.833145196483,709.385875947972,69.1017732639389,380.712976488466,80.6363399495195,1155.35859202483,307.599156607629,334.799430954219,108.259697523872,710.715091532836,88.377695678288,1963.40801804937,134.197141963895
662.740305655016,49.0947632843886,973.096384242689,343.639918866521,845.357540874885,132.665369956734,286.741658358915,44.2875715108538,460.377016110117,75.619387355186,292.399044201511,63.201634120446,247.439775228941,32.1803371562603,1058.80351580497,155.243580723239,449.275347305157,145.838549290113,714.551834463634,69.7855805441135,381.88470049772,80.2482361135871,1154.38994206283,310.601560192095,337.827390703682,106.898654799019,712.847282365124,88.0716889131263,1983.42539738909,135.939802810932
665.993271055982,49.2603005576755,988.285245883889,340.881997398423,862.406547105948,131.104714194036,289.161594326316,44.1869815876742,467.555109893175,74.4663255506799,295.495362664764,63.1532755951614,255.09044238915,31.9159970306796,1075.96647721532,150.956313004001,461.194091344427,145.807018753375,728.226092351015,68.9763139815571,388.113472124015,79.7814549992866,1209.84963022166,305.647956071474,339.093275283989,110.001237429578,725.613758237432,86.5400199383265,2039.75474155557,130.63779670346
664.928257645205,49.4414296918789,979.376208366389,342.358069849607,855.601153018136,130.967402338345,286.446300085725,44.5691037357276,462.502391386906,72.5357388650399,293.72306768493,62.1437153719942,249.427830742749,30.0291373006625,1067.027168121,154.686164751148,452.814928477867,144.190547706195,711.864657659793,69.2916102407839,382.796094851903,80.1279339211894,1170.09522679074,304.040164739971,339.110912537904,107.42236418175,713.276465074887,88.219407843778,1989.82982898313,130.283383523497
664.325370013934,49.6497332889602,979.341352159183,345.613643806198,849.295945933644,133.709125909295,287.232548981818,44.275653351534,461.393398130105,75.1663455686039,294.012708949034,62.8640976860353,249.381185522086,31.3887013838589,1065.05923222309,154.067454785027,454.991743483832,145.342874405946,719.033837947365,68.9656467316907,383.784570830007,80.3526017732609,1174.26469207339,311.095960195227,337.824405087841,109.182273904469,715.689683941008,87.8323192127612,2001.82932137498,133.365552245752
668.040008807433,49.6168413573515,989.649315725646,344.032776185991,869.232078968885,130.787412214481,289.503773559727,44.4875136372426,468.199072281405,75.671256402901,297.114086635961,62.6049010790804,256.915773744542,31.8458852936254,1078.28166984881,153.281741927669,464.144041260242,147.424736286551,733.686668444484,67.9632618521949,389.278534502222,79.7199809796634,1224.087687241,307.619078854209,345.612606238837,107.824765884702,724.853280146029,87.6897110169542,2053.85710510558,130.449424042906
666.518751808985,49.0484825455119,984.009277554705,344.274661946168,853.944699320511,133.945751538994,287.420585122972,44.5269904687486,461.453209764884,75.5470855010247,294.937358127144,62.8481747361191,251.251674007668,30.5898498900417,1070.9989421223,154.356567153729,457.454720510022,143.200953708529,717.06261572351,69.2014598893826,384.612128828859,79.8275745633547,1196.26408007459,303.255307588771,340.631232359374,106.70051192061,714.865783642624,88.3103177109047,1997.21950242632,133.733280531866
666.508674210313,49.3615923633464,987.711125307613,341.918674738932,857.303223981908,131.023105681346,287.629943563762,44.7691519096385,465.906760546888,74.7312422533853,294.517959826093,63.4408236650522,248.89659826982,32.926679305048,1072.31697707115,151.757331466226,457.036906178376,145.679870553888,721.974946843002,68.8664036031464,385.555141902699,79.7416082990257,1197.67320440103,303.617206113045,340.823483917627,109.046486622524,718.358532457682,87.7750501177811,2011.96383576766,132.555229723507
670.140441398028,49.1543982636164,992.917875798997,345.565567965113,872.369244678102,130.441045918523,289.784856677621,44.9374226014732,472.495539117662,72.5468635148503,298.068922835608,62.6051386169776,258.656069726987,31.2584859308402,1083.76449358,151.769861440276,468.408070130065,146.137188092085,735.068455947509,67.6369335446683,390.156560816671,80.0018189526681,1231.54630716422,309.898271767417,343.326051062329,108.503654485279,728.859423206275,87.3042307852973,2069.40275710838,125.076722622114
664.977245611315,49.6144559044862,985.653699865696,343.140979836011,856.223653229252,131.654351771208,287.93699662085,44.6026397679429,466.477645628274,72.5579394862608,295.5119296524,62.5224491306731,251.108206668143,30.4730184467688,1068.77066576074,154.601523596036,460.689649682655,142.830430722007,719.136597642195,69.3159023933164,385.903115812596,79.4780264865209,1186.13485726345,311.603521504356,339.959948128456,108.887684785132,717.975383114271,87.5663140333043,2011.28436242178,129.686271415704
666.916412087348,49.7279323805539,990.436987952236,341.515909595791,863.805149053335,128.477507087623,288.549167701285,45.2150158878409,469.472684750176,72.6908967431111,296.320820378632,62.5951987998387,253.118797199144,31.8597125221479,1076.64791239354,150.670935788567,461.174810279994,144.881310690757,727.043808882641,68.2959821867331,387.624478652539,79.7514611201777,1190.88997457493,314.523908715835,342.579764603952,107.415835173607,721.849635853133,87.3679757794601,2034.45080430152,131.3273981094
670.862128894464,49.2004113605882,1001.22711066067,341.932124065199,877.654495345739,133.308708750284,291.67784588172,44.8968754596941,474.606445477,72.5675083513228,298.298760562376,63.150636807828,262.801011655301,30.4874860227279,1086.47792956321,154.048703596031,472.027692294977,146.229638867946,739.194346623691,67.8967557753357,392.20441482068,79.8024856210174,1250.53028116661,312.07381296449,348.643546410843,105.95048330168,732.461958674234,87.5908098529114,2066.28670462234,125.519421258775
665.323761357388,49.620701273802,990.183462598543,340.868764459551,859.391910299716,130.390703917874,288.525813937356,45.2555241170212,469.578135586447,71.5980047117237,295.711427666305,62.8588414919173,249.663772021821,32.7592971888216,1073.96686769871,152.344854932434,460.95353782771,143.257645088904,722.028090413654,68.4540097134292,385.369244122864,80.3443759354673,1185.62294335172,308.421196119917,341.089608754788,107.586281371835,717.49208153277,88.5531502443916,2010.77119635214,132.949260362374
666.41389064697,49.5757956605746,995.729582572292,340.869032961187,864.348779614893,129.749456918554,289.561824704522,45.351980752506,470.087675932825,73.9847843888194,296.632975967834,62.9843959852968,253.431581453451,32.1529790336218,1077.8364849022,151.911949841399,463.960548725172,145.160854524592,728.712059812363,68.4898636606527,388.026342431802,79.943324766087,1214.43280918395,308.650330076694,343.506922062037,107.475855372294,722.434454040796,87.8412439474032,2041.45893110598,128.525969894225
672.153704174662,49.043125344599,1004.71337822321,337.795763232052,880.187674364284,129.583524851749,291.96493187519,45.3902307681216,474.698288672561,73.3195045864036,298.466708134253,63.0736296299791,260.628214456411,31.6031070239025,1087.69806021693,150.756000234112,473.565574619456,144.635994336085,730.094090307389,68.3054964789012,389.547949545792,79.8323412910653,1219.54512303207,312.95278356676,347.726600004277,108.249477921085,722.177199207046,87.0755746234262,2008.64673208295,130.980065618762
664.343121062075,49.3911823153909,987.979539382927,345.204653956768,856.617770150675,132.124893405099,288.540497713425,45.6373358195059,461.959250576842,75.5514126836851,295.104869125319,62.8696647533328,251.929520228721,30.0460016361425,1075.01202070406,152.481887898946,458.04953947486,144.95986624795,719.415977552523,69.5250198231493,385.609909228268,79.9198237430592,1169.97325882273,318.395991478389,340.127868299542,106.801315138723,716.146258509911,87.4545596712825,2001.91657623989,128.79062763408
664.827565239941,49.9828672518969,993.618375368947,340.976220173902,860.611000290485,131.575172922718,290.181652903526,45.4905724631296,471.023626194026,71.1391767373184,296.023243629765,63.0891333073333,251.131731745858,32.5886827612271,1074.53641874182,153.844715895558,462.12172092828,145.614332543834,727.744507236405,69.0197791947143,387.527914791554,80.210991398787,1208.37322807691,303.926825404412,343.671769740576,107.328662095521,719.525162043779,87.9249746488701,2022.8756250444,132.84275955568
669.093485164035,49.7571919332813,1001.36521931033,341.838988664701,875.031970942137,129.018010510545,291.271399912858,45.5454099361182,468.85078368983,75.2039828223209,295.255307357596,63.2494822920306,255.230300593687,31.8787360792517,1081.46731605653,153.6822762676,464.262303066506,142.914859515957,715.9587675663,69.7292322745982,385.713309631291,80.1474951864247,1181.01612261108,305.826404741713,342.181810955753,107.513559799541,711.319138207941,88.1704118499726,1975.81369523438,137.494145740386
661.963564087856,50.4159479311567,984.824695784208,345.434122932414,852.745914865015,130.456838110911,288.900831743825,45.717476744393,465.158506914986,73.470546349817,294.52084644392,62.7950821297183,247.261441084806,32.3499013712976,1072.46440147917,151.507171822466,456.640674095356,142.856528247488,715.897823480878,69.9486704461257,384.328579740872,79.8633782488058,1185.68117720331,298.088538346014,338.538789079064,107.320198969261,709.779060393139,88.6805142606148,1985.26643462339,128.703025417536
661.688763213377,51.7005304079718,994.285204308031,341.396856423421,859.711744595951,130.788577261795,290.595365881465,45.7968116225901,467.235061693307,75.1998180292632,295.082718453423,63.0547893041786,250.505835811244,33.2580284224404,1075.13564020858,154.114875242689,460.618466352495,144.896714093337,726.828181300909,69.7290231950913,386.951163322621,80.4848287805006,1205.24139559726,302.4849426013,342.847647512789,106.989293700758,718.873924856805,86.3326692359321,2020.95173061266,129.359810954484
666.46648585208,50.7788450163235,997.619457967529,342.014456636571,871.964280580849,129.463167319497,290.59484098044,46.1647122848012,464.970292651511,73.26795204449,294.430808356089,62.7585771944961,251.42315810619,32.0372251700086,1080.94575552786,152.785979361666,455.621383644294,144.584081294562,712.546507677235,70.8326968598478,383.750666584804,80.2598214595621,1185.23138841371,296.422337170571,338.748550274784,108.110309557775,707.678252664091,88.0238104940452,1972.9273704576,129.425288933519
658.440246698785,52.0276222080798,986.210338425054,342.321230518772,850.503400149241,130.870580511596,289.196566887672,46.2254375333194,465.338066139724,71.939033844517,292.85289976276,62.9736937377875,246.629671815085,32.7147249449247,1068.51256039756,155.438601785493,457.118834175055,142.641355473353,715.746722842146,70.3376643789269,383.731013242637,80.0191058221837,1173.43761705288,302.820854925417,339.647089668364,106.372617495771,704.450154987023,89.1397578455492,1966.6317623637,136.131036464842
661.151301973063,51.5741774197683,994.078934888856,337.021452548687,857.225193953808,131.673149381555,291.055808336533,46.3910050823688,467.645992696617,74.834694435368,294.53697936793,63.1441640604831,251.225703987228,32.6431950360684,1073.70062222192,154.34058678543,462.38702985784,142.511614668518,729.005126026941,69.3448005036219,387.147331794706,80.2196576780177,1213.76034290357,299.902653036909,342.836374499912,107.362034922952,714.787967384235,87.4503630895452,2016.29487407943,132.119208532859
665.940027949389,51.1238651324478,998.025927907577,343.969536006921,865.784326043744,130.487467835961,291.232327614164,46.500351836922,464.316588172382,75.440494428072,293.234904950659,63.3292214764056,251.454101212349,32.085791728033,1078.35223800926,152.562290762388,455.498773662991,145.645129941553,714.092158817399,70.6480167300382,384.219581400285,79.9967737508331,1176.31746792099,293.691388568764,338.579862415601,108.686167169701,704.968834169367,88.2630172082827,1967.91004332388,132.580533241378
659.23337970999,52.1388060249958,992.343181789327,340.382773778837,854.389568369234,129.08326815806,290.2990738855,46.6324211973274,459.870004350714,76.774754938127,293.044007040153,62.9489647812354,248.386616749637,32.3953331132564,1068.73685783086,154.586506405879,456.71754115364,143.121243815505,718.789049144038,69.8889508954121,383.302215907523,80.6555752241269,1154.94403057068,311.28470390094,337.554578104802,107.417015221305,706.153605934147,88.2750377462178,1970.37786603709,135.646213859102
662.573768028579,51.6049604338466,997.069832498707,339.39509651416,861.246031269743,127.802295824114,292.452098853161,46.6195560935011,471.00586719011,72.6689891543131,294.493140416991,63.1673944543695,254.085056863525,32.8037858347727,1071.08756905325,156.532201289119,465.205854975964,142.532850257201,730.224545714067,69.2424154772547,386.91069607053,80.5310707909434,1198.96568359047,306.440277399395,340.813887397245,108.333017050443,713.197704672699,88.3069292168751,2022.47459878619,125.961414518781
662.665699985724,51.7436949225124,991.365805384868,342.353484476094,856.698733781659,128.458090812781,291.081042630908,46.6142173704649,460.371648160179,75.0892559148287,290.958809229488,63.6685014945713,245.393424994574,33.6674868849725,1069.13131078792,153.619530964597,454.08316453341,143.158507974016,715.105230777432,69.9622300743713,383.358438330068,79.9615208456231,1158.47406688191,307.045755175653,337.70252758188,108.03960276738,703.076953598036,89.163373726694,1959.99227245902,137.237542097676
660.583326400939,51.8643500746514,988.813496474448,339.411287276121,852.434087987088,130.569532952211,291.292869208044,46.7217814148587,462.93606395737,75.4099951978995,292.448994525758,62.6911568409254,248.382206318716,31.9644265393863,1065.6180138648,155.22838902198,455.932660954759,143.986034204667,720.369737368196,69.7985204848638,384.067737588328,80.324310949605,1181.71611430389,295.112453207453,337.660759091207,107.873336811083,707.837782359579,88.6546747385836,1975.28107484667,135.091224822962
664.173696544337,51.8279709116523,990.236057111445,345.170144585701,863.740991966212,130.387551228602,293.742801875886,46.5489677840142,471.361203797383,72.784513002249,294.684006196809,62.6691457797372,253.625687173217,32.6534256286711,1076.06580077249,155.064401882677,463.725076637967,144.476758850369,732.118326603486,69.4362759761034,388.379241550656,80.3892267175119,1203.14048184022,307.39258536583,340.395927268414,109.837237309875,718.068877182435,88.0898907932541,2026.9300451624,126.956428461071
659.929967463324,52.8409062518195,987.142401650479,342.386070831644,849.830297294332,130.224843924441,291.265719494443,46.7797316819477,459.758428563438,74.8315955645842,290.90371170916,63.06573122764,244.975231846641,32.2986590375903,1067.29844370425,153.47849925032,452.066696630654,142.952659684825,715.855177131133,70.062428659346,382.934746200081,80.2374736255252,1169.27550172524,298.96803783352,338.641606054918,107.142435478339,706.282757105698,88.2846231345516,1963.27022221122,132.354623354855
660.676976625826,52.3819552556913,988.6599037546,339.909072769221,850.958758719057,131.288086350475,291.795967889128,46.8773030992472,464.359367662186,72.6781431947502,291.669654463236,62.9601128131872,248.531076257805,31.2743385387508,1067.52949179263,153.571951003403,455.524494929298,143.613333181638,720.236385572705,70.2607778233709,383.576488709458,80.6131847918112,1186.89982112657,302.747098660814,335.917481424784,109.247432567382,710.023383217031,87.8041782892867,1984.88830772728,129.902322781001
665.29743811994,52.7923125499226,992.847420625224,343.890693730238,864.519403191626,130.298021519021,294.208264406844,46.8238748182302,470.753939646917,73.5923722226909,294.215754487738,62.7587394728615,254.801973010031,31.9932353322611,1075.62110638486,154.028845502551,461.360835700263,146.737795075088,732.37130152393,69.4698347471667,388.454233741415,80.3565723710917,1212.32107381838,297.570843437432,343.435164140982,108.207931314727,719.687709421194,87.9905376848542,2020.38037775349,130.342539137982
659.222976548012,52.8262814255725,984.126685630012,341.269257195173,845.413018057475,130.593963742339,291.502525154895,47.0151672297949,460.32554709495,74.9665742256598,291.063102708436,62.6419683227361,243.826399763384,32.9219828536978,1060.68902446064,156.323595874825,450.640726867695,143.743434462526,714.652711040088,70.6630004816988,382.814714947701,80.0831370521008,1168.98365563581,293.81077852641,335.565536291022,107.316019633665,706.024814277644,88.7659379649277,1951.8910704052,137.42384768754
660.010553420663,52.9242667210641,982.916562091904,343.107898621749,845.330570577404,132.477004740377,292.408312772044,47.0891340936039,458.946650612516,74.4347080641436,290.627475223868,63.1095643459648,247.614535199561,32.4546619981323,1067.2977205895,152.811692331463,455.547023305693,143.174190392758,721.748121979751,70.1200686576287,383.961253843956,80.5887453178376,1162.41480532651,305.269311320001,336.288023525678,107.33196047385,708.721236793565,88.9433430768417,1971.40345392325,135.124694616198
665.791292097205,52.0411553238357,997.925647794095,340.230613561668,863.698166060109,128.998329480627,295.012269557943,47.0009769595538,471.949423372405,73.4116445239517,293.097522968591,62.9831999573967,253.278036965246,33.0351999151954,1073.90478783906,154.628085840366,463.123255517739,143.397156376932,727.768294805919,69.5548019068434,385.720169767101,80.7627345343889,1182.20744501872,306.520142194748,339.969895432064,107.630978397392,711.593356594282,88.8127426662384,1969.33546010483,132.023965932451
658.917159198526,52.7775070024646,982.606994569133,340.517060850374,838.770360544779,133.452853203319,291.612828979782,46.9596333923317,455.111724238091,76.3147534871969,290.111048002734,63.22292273289,242.978782876714,33.7906777586816,1060.25701153885,155.914235736948,450.068526838704,143.603846204523,714.067730481282,70.4719773226433,381.128113212586,80.6236941631136,1141.91436797866,304.735313247986,333.338473164818,107.017463034453,703.646537086682,89.5481534912539,1941.86767858587,135.498422193585
659.746966621184,53.3492134356226,986.084517801493,341.282004791846,849.043391126324,131.657655481274,292.957104003573,46.9277712432823,464.138377635625,73.4913693530811,290.959520474824,63.2951667520764,248.095390164877,32.0036645501621,1063.5400923317,155.405414853472,455.66641766956,144.091044342506,721.85981724944,70.522801933083,383.804039031429,80.5347149412568,1170.35218797656,302.463591385549,336.567304113722,108.234347344066,710.235432392681,88.7414017098308,1976.23881826596,131.100626095854
665.757495227204,52.557144249811,999.366348016447,337.586802796579,859.16894764418,131.967267898591,294.906542547407,47.1599216698057,465.159890439768,75.7805563422244,292.99569656979,62.779947694442,250.546641824432,33.2354349551029,1074.17287698042,154.558965206219,460.403107708697,142.618669428239,715.383113302618,70.7812857864253,382.860324280467,80.6447796115793,1157.88986741898,305.825487785111,336.895356834436,109.359175924319,705.9448473862,88.5509667279525,1938.03136143822,133.008386660951
658.68103902956,53.0852859640754,980.774087317881,342.593996232961,841.585333729521,131.427832453066,291.955577145322,47.1938846715807,461.443057659478,73.5252456712951,288.644301214336,63.7774668201338,245.262161304561,32.0689291029969,1057.59686725556,155.426464894332,451.239140582689,144.20428150172,713.737437392018,70.4082773746717,380.041112330842,81.147021515793,1157.95451526327,290.177496092994,332.970178230024,108.277328451572,703.543928541897,89.5290191065271,1937.21403375999,134.74136278822
661.439278970947,52.6117134977114,987.07905993474,344.251965967348,845.413024564909,132.791518771916,293.363776204299,47.349479905057,462.319673822926,74.7461765170986,291.753671057309,62.9959166802142,246.705177441268,32.6291105995438,1064.23404590505,155.656043964804,456.459846004277,144.125289567525,725.253962419551,69.9876562231379,384.597054135857,80.2540840701989,1175.68967158351,299.555818264032,337.228610415985,106.81424626816,712.215719370442,89.2091323929927,1980.73289728997,133.148064400939
666.045197653019,52.8467671900356,992.15970034647,344.034555774051,859.061964021875,132.797808944229,294.524679428978,47.5122453193802,464.340151638724,74.0421773766935,291.982766554049,63.4105864377117,250.051162597943,33.1422439846424,1068.45387238339,155.395075792226,455.210099458214,144.044331691868,714.907709178958,70.1257772329295,382.121355365564,80.5399148001731,1150.3500207678,293.161569502509,337.329367089282,107.193584247012,703.303401167244,89.4529605726507,1939.18774914831,134.835299933275
660.786274770442,52.8118547717956,974.918621044052,349.172913052811,843.45046111587,131.819056924249,292.80145241097,47.4957014783267,461.189172936762,75.3167196875607,291.027236046737,63.1059101963687,244.482899764242,33.4035867710862,1059.13208884329,155.979082292144,450.740819081632,143.18043864434,715.740684344082,70.8770250713228,380.545762919725,80.9953456381246,1127.88559792161,313.820587170735,333.185267209681,107.44553938501,703.278210933421,89.154713688988,1936.07863111308,140.162359475969
662.246233130937,53.0175420224308,987.913690373985,345.149814820035,848.558333723633,133.202431980286,294.890982399747,47.2746988699496,462.436112151363,74.7680781413496,292.610881267943,63.2306137439057,248.018016917824,33.3492310018621,1063.62258402953,156.719851133282,457.378196643755,145.071742749037,728.541665481178,69.692039446648,384.892030115987,80.5461609359472,1159.2276177099,315.200211495153,339.48931496189,104.733764624722,712.150018213046,87.8978483451425,1978.64822767341,134.445941292967
664.495092199811,52.1270935453956,984.925085691068,349.014028965551,854.309705861064,130.469814650778,293.318293653604,47.5172971154515,458.355809619079,74.2497135978333,291.043765391778,63.1534609645195,246.014220342704,32.2048168156133,1066.72639619037,153.327381487033,451.443235042566,142.116136519238,713.151947514862,70.3897013484656,380.771439615701,81.1016983100493,1131.85164603904,312.037551517791,333.508833619257,107.366671730957,702.092910415517,89.3413088545642,1933.34336064107,137.207417309426
660.371442912994,52.8666077613172,982.789176640806,344.27190600912,841.835469671149,133.323036561727,293.41786732509,47.443858778809,455.916268244009,77.5296310873945,290.662080403254,62.8954629511305,244.454576373967,32.6074719875159,1057.72361953643,155.943299050526,450.747827732432,144.192436250071,716.271651269514,71.258470999004,382.355529972437,80.2609979499152,1150.38672663641,298.32098851113,330.165849324299,109.164155821902,706.161505286981,88.5120792955078,1937.42176859093,138.364290066179
664.705749961663,51.7241810589354,989.277765776104,344.082614847946,850.996556070148,132.95923496714,295.520902222063,47.1455503063162,464.468608664089,75.740524803891,293.354826306569,62.6304219711601,250.529149422502,33.0144862257087,1070.19075163861,152.982179480183,456.056304818156,145.683593976462,730.08004756453,69.5307565889455,386.478126084943,80.165531126206,1166.29149277765,310.032722143588,337.097280492317,108.147382722947,715.71099562755,88.5249017003061,1992.02157631953,130.857159868991
660.386510773011,51.9944888114547,984.221231010773,340.23695359904,841.758206853681,131.963850454243,293.38748799407,47.292404957636,458.400496544082,74.1912779686593,290.5351496525,62.9049302581409,240.128418951857,33.6518004039261,1059.24960154442,155.501665133536,450.154752381282,143.315893614649,714.415766772332,70.3200926391163,381.728693285149,80.6019094453332,1146.17050491589,294.868868747856,333.022447559121,108.144587813509,706.001076082253,88.541206844929,1939.66401070707,134.963700621036
660.574414217479,52.2524553356479,983.94212709454,343.374825275037,844.428255739003,132.974650336608,294.515385488286,47.0855705975348,458.989499333393,74.3771979017813,291.727883870494,62.7779366400215,243.74614038598,32.8834801199953,1057.95316575571,157.01346173246,449.570946212148,146.215707729956,720.400702147205,70.1514901528657,382.998161634387,80.7111460035139,1149.06684536333,303.256970483945,334.593517103718,107.908514830528,709.325464656989,88.9169427456738,1955.22912698936,136.979446335051
665.560111245331,51.6728141170621,991.133729500778,346.128947388336,856.446411029767,134.284279334964,296.376244422701,47.3693757885519,466.154765296012,75.1792070560254,293.984699660401,62.4611068395164,251.978056195456,32.3240054643918,1072.11429152364,156.708080388346,461.073958530613,144.862689943192,731.866527773726,69.6349959793821,387.037804951809,80.4033749848989,1196.25640642682,300.246792973901,340.434227452077,106.984022685091,720.069743846181,88.2525817415405,1995.83900784184,132.192243435162
657.974521932711,52.5947443297381,976.434141121208,346.951367673751,841.878632926461,131.621996867925,293.747624579377,47.3429081657711,457.60099063326,75.3115359189864,290.142184773904,63.1977734347485,241.1867668122,33.4106686502666,1057.74537837712,157.302629898538,448.414691503628,144.68670985307,716.138563927717,69.810127921309,381.324789919366,80.6782552167994,1140.387015509,298.409418997633,331.481440277957,107.292640278528,705.550178755626,88.8880836256953,1940.11032749521,132.718724545149
659.311453729752,52.4166861137175,984.687872267213,343.974195699875,840.090264643864,133.972103730235,294.938787528011,47.4366706383012,459.613112545822,74.8787722454375,291.168640620846,62.621951852946,244.078213200741,33.8823755116137,1060.95584800594,157.383559181356,451.807557473233,145.889752069805,722.694244731831,69.8122777821778,383.326994288389,80.799201851777,1145.64653640354,313.13217939776,333.359458813139,107.348313016543,710.642084385423,87.87658674262,1961.26674111265,133.437265239895
664.806411434571,51.7825051801312,988.339787529873,346.771306624524,859.110924442637,130.413095406517,297.497955254144,47.0005703015156,464.780900182203,77.3085493799734,293.465096914636,63.0387211803361,249.331293712125,33.6481888016221,1073.10659824604,155.771213018395,461.192194034526,144.637117883925,729.066300334742,69.6614153397069,386.953668196228,80.0154102718063,1179.79688594891,306.167524471124,337.240607612895,108.390432443382,712.899464806149,87.8303652454864,1948.2056250319,136.465491793105
657.075732901628,52.4047427405365,974.57394010537,347.119835796633,840.434543490824,132.881891698291,293.570121625458,47.6298156744198,457.049027584738,76.316205565789,291.258746626129,62.3753541619847,242.151142024941,33.7079113024014,1058.83681029124,156.291629366086,447.031788554469,146.056712775414,714.894422770308,70.6756315016047,382.030815423027,80.199037114575,1119.60048514326,318.464417438018,330.815882174112,107.986241862441,704.89009521043,88.1449312706723,1929.20229766065,137.850040869438
658.046326923278,52.8908992426476,975.685683773854,348.288601214266,845.120659547192,133.104627164393,294.71710953803,47.4162678219941,460.402966388075,75.2222052830845,291.752944943939,62.6570099664307,246.688185472463,33.3696678132418,1064.87673180326,154.907410579814,451.970527354021,145.367069062583,723.735536263659,70.0728997503491,383.876257108193,80.5495026254397,1145.84331361979,313.10972062675,333.411069078346,108.943703516395,708.635369350189,88.3270853753202,1965.39238683884,134.3270706686
