669.262449458512,46.6874189892793,987.871278816229,337.887486336601,860.247160576166,125.537070772098,298.64780106619,44.2375675385332,467.536792557633,71.9836761701013,290.413269615962,62.1129748465349,253.443083594328,30.5725902282143,1060.09177464224,153.581266856229,460.1827459053,143.13574239326,717.281573579338,68.1665242168315,382.566119337848,79.1098268113616,1180.47946798955,299.361999426411,340.509490182769,104.16094006166,721.239026734456,82.7777449084682,1967.05187008949,125.651461905459
662.657629550318,47.0909358933831,978.872468843839,335.298740385569,840.946922863224,126.763613337025,296.100810546106,43.9006229177134,459.76716428518,71.2359992290864,286.191390787663,63.2822390032421,245.008344886079,31.4786991693555,1045.79029698371,155.857033422173,452.106430558983,141.736781228005,708.878939852537,68.5970430848297,377.485928154384,80.1783215181252,1173.50147069028,289.373873202042,333.983345576321,106.031152975576,715.126675723316,82.6590487060068,1949.23012407137,130.784384921019
664.83624563041,46.8855513549713,977.808914167787,336.196637500576,845.294030910824,126.660179924052,296.998446226092,43.9311904745328,460.073016536054,73.5277840670638,287.74321002288,62.7374733099937,248.434191682084,30.8194273813221,1050.60477991465,152.649309462903,452.621604157294,144.071639997828,715.554781777071,68.3196606925909,379.855632572879,80.471388463328,1168.63302394186,303.115909354769,336.229965532418,105.004134669881,719.295373090998,82.4201300168721,1974.15251450887,129.011929837558
669.173601853664,45.9346711816145,981.39026680617,336.301277233209,853.744455379226,127.646505480639,297.801057669013,43.8895950444458,460.588084274331,73.7448241204625,287.540619304038,62.862921755851,248.372603625795,32.461593358249,1053.27411177067,155.104965612528,452.155647444884,142.245573292669,705.899160416746,68.5055244876024,378.561473341674,79.9577860027524,1162.91791405935,283.927742152748,335.367815016828,105.271658824278,714.791299281021,82.2850944551429,1938.81638906386,132.203995524763
663.084472011922,47.0390544749703,972.979233870042,333.089867150825,838.95892914136,126.757551049884,296.001795809203,43.9625266620817,456.159158193963,73.0419707502995,286.46545683082,62.6986141625426,245.742255545674,30.3774486764483,1042.16184093509,156.686939724852,449.783968013275,140.25756646237,706.419416064799,68.0908226688821,377.487131939314,79.8523016492418,1148.45157316575,297.164632079227,333.495947697791,104.376559111129,713.510411741569,83.7579301035988,1945.5948919374,130.276940903894
665.067861240129,47.0969752036022,978.478983452592,333.830649117201,846.247606631211,127.300474138388,297.835063803907,43.7685184932079,460.294333389007,73.893374819674,287.884408911833,62.766621839789,247.125763179515,31.50697772462,1047.07098950448,156.681800978987,455.576997458208,142.04552362212,716.479076984367,68.0575474807777,380.54141647092,80.095889522195,1178.74001897924,297.831818410182,335.240032020168,106.724263099531,722.081915706725,82.6124779084513,1973.85403280969,131.429545503684
667.712483477779,46.4044089016131,982.048473901672,333.711330388782,848.863391207979,124.779337163865,296.149612799024,44.1608047403572,454.493694822938,71.6828586664805,286.27151614751,62.7957592516989,242.873193988799,32.1261291266284,1043.42195042364,157.312561254135,448.631248069642,141.054846913461,701.067141803434,68.9089440673771,377.963265091939,79.5293052463437,1140.60114816408,297.246196014745,331.257384780188,105.117405200681,712.979902223612,83.9983221997665,1931.0916444968,128.311164754181
662.451542367166,47.0357582006256,967.20798049474,336.545025964233,836.173133986471,126.238624019925,295.735638927077,44.1780105232016,454.677441894669,71.7927546756962,286.339200897223,62.5243581998758,242.62992949974,30.8789987216214,1041.63083969831,156.551087931054,448.51428514027,140.349572095205,704.04220573453,68.9488602985352,376.779232425871,80.0756161947401,1140.86890309979,295.834995637733,328.370576073561,106.057098843822,714.112592150866,83.3357210725582,1934.91714944082,131.045073047552
665.378976731441,46.5072453115062,982.732686814925,331.22648777349,843.668359450504,126.952966958443,298.174852597889,43.7330723227624,461.981324310983,71.0596681711196,287.972753010231,62.5244368802954,248.099154180561,31.0981818452953,1050.01207959104,154.263079228554,455.537643983917,140.86791720288,715.204429868396,68.1464212054626,380.098007468287,79.9955216452747,1162.706628115,303.737856104877,335.996680955924,104.80478115498,722.6293190105,83.1291346009175,1967.34166105768,132.311892426814
666.853561562628,46.8815227989506,981.38379072797,333.450300575228,851.880722341833,121.78989053864,296.510645400371,43.9088215029577,452.924250261374,73.1812086751613,285.176156017179,62.8624064846249,243.207976390443,31.17345014311,1048.48091606177,152.487694481672,447.70431298588,139.536464051445,700.274569954243,69.036218448496,376.217017013822,80.1582928549748,1129.99457511005,296.795788889764,330.755944229825,104.002883684508,714.541534257024,83.0557361001731,1925.24700055226,128.028871700519
660.922921064948,47.5091247756933,963.579881580995,338.393653839011,834.925063817672,126.24410888687,295.824615962413,43.9194102197528,452.203153677672,72.8590271261402,284.849724443116,62.95826745802,240.854471293367,31.7437108579741,1040.92433303925,156.285519361081,443.027633635939,143.178890051191,702.344946251524,69.0544056807876,375.768506611951,80.3870571779227,1141.52747960402,288.921104111838,330.277381913115,104.414145714874,714.587895604964,82.7306599581102,1925.09736121273,132.515434873444
665.708743138352,46.5729486304514,971.339150763014,337.395088776336,844.404677160259,126.828272108977,297.679538715736,43.6493540044495,462.012498604739,70.3037164793413,286.77063607523,62.8025217054801,247.71502991088,31.1522786960734,1048.46695329578,153.493943963816,450.347447972608,143.10394566869,713.755161467896,68.645617657462,380.14721642292,79.6885401316424,1183.96899874482,283.16884891312,332.584893078143,105.807623890559,722.990536088357,82.7089367689216,1968.2219987522,127.009098080374
669.061038474451,45.8900718044226,982.484653966957,333.121403291114,848.785747030719,127.806203409054,297.251697954348,43.8088762033246,456.36863288134,71.8135624789857,285.544043466211,62.6235793403209,246.580428857743,29.4574147976767,1047.81038030437,154.54647505995,446.174810032014,142.328801354998,699.009696053427,69.3967468608542,375.707774219864,80.2998810703101,1142.836671217,286.033690468138,329.916080804715,104.687380457237,715.601119898376,82.8484706233493,1918.37764909028,131.504274147557
662.392542385557,46.9207094332419,970.597386266448,334.415994919861,835.621347385479,126.495045038736,295.821276307861,43.8854277616785,453.36174781888,72.8487057661301,284.864078920248,62.6805706897961,240.518519025063,32.8040186689492,1038.7386964778,156.800034462913,446.619877075916,140.244307528835,702.347577022107,69.0599582015607,376.082966451104,80.1022279496395,1142.4001932044,289.843074604498,328.975180861893,105.346233397738,715.435503293116,82.7199122049714,1927.77682416239,129.928406760149
664.428618404425,47.1159126722304,974.013789934333,334.111003118141,843.760099087988,126.126618666665,297.560320630217,43.6449201062386,458.078331210933,72.714560025185,286.498947275429,62.9288332840927,247.418445634261,31.1101624358176,1049.92483852067,155.702731745207,451.063287240736,143.481959544291,715.080455120989,68.1787035176102,379.563219660366,80.2572994297564,1179.06823613356,288.358661846047,331.760936682405,106.541137732895,723.488512922103,82.0378267705298,1962.2866502381,128.310952363416
670.136002371615,46.4968257352774,981.660729514982,338.229059616953,857.353925995301,124.908338501472,298.428579423319,44.0808690687386,464.246867624096,71.1784705958688,287.229255778647,62.6248816295486,247.441956925797,32.4611411596418,1048.90395543031,157.834333670451,453.040058716645,140.649685727433,705.30880352105,68.5824009751242,376.908595124568,80.3185692197921,1141.39726058054,298.102762421794,330.82887275457,105.2954446705,719.008377189473,82.0276196087828,1930.84614292025,132.986592676125
664.050674266511,46.8503501519549,977.17160359619,332.199986339101,839.649612133214,125.003243093199,296.230560476159,44.0784945449885,456.62203289418,73.0150556356715,285.637359192174,62.6911104451345,244.260964801445,30.7938722803642,1044.64380168755,156.366591793027,447.589823764624,142.152256604581,705.022464196295,69.6938169580579,376.64234966937,80.2796008895133,1152.88401969802,294.505619993528,329.140908052097,105.389080141134,717.786918858623,81.5673794445505,1932.21514057721,131.073438283008
667.35844684987,46.4828605330606,978.804144857054,333.882724613041,847.663893284424,124.463938879537,297.577859346692,44.2000949196721,461.172350478323,72.196303613134,287.53181860833,63.029713127514,247.566645930285,32.0725605892112,1046.7764689694,155.582366416733,457.233694605399,141.376103770402,717.535622265681,67.8818946858898,379.89156504633,80.0810129730126,1176.3491031529,293.354436596669,334.904254926557,102.819485494156,723.859032035045,82.4445561630203,1975.13816029535,126.356190918463
672.314356578785,45.7151762934953,989.13189547147,333.635730750848,860.388380175107,124.783818627823,299.445775504238,43.7144954053232,466.499342218335,71.389865301716,289.465398933997,62.2063900989524,252.967461796279,30.6919610392686,1055.33168473213,155.871713519222,460.004559859951,141.284804978511,710.54337147019,68.4818709840291,379.954601678156,80.0849936224115,1152.05101920063,302.06937128672,337.985221136141,102.798872952083,721.29571992231,81.7235882728098,1939.34466473822,131.495574801284
666.424621788581,46.4849199494235,983.194903309413,331.839409940409,844.674714830469,126.587978652869,296.941213759616,43.6472959128216,457.848836925535,71.9638592512359,286.887568314962,62.9893304021552,246.098713175673,31.0791014159318,1046.01306702351,155.800465850645,451.325045220333,142.420016335138,709.364173183046,68.04706028092,377.177814052907,80.598106754378,1148.25136047014,293.259844253452,332.217949878018,105.778667858399,721.406277493372,81.656484022587,1947.36246483322,132.36141926107
668.747869523697,46.0423256491978,981.484576707597,333.927610835954,848.474318139454,126.915190304491,298.338031952465,43.5167142110019,464.279792785617,71.8183048710804,288.137135106199,62.756289903385,249.812901576362,31.8077436773923,1051.65857804604,155.000977775743,458.184831234612,141.307248782006,718.90762824071,68.3616740952395,381.164586131439,80.063373156391,1168.12167288567,308.668359251578,334.699693236701,105.410991460742,727.829963727858,81.3955335903737,1984.6449041886,129.510939847297
674.118848245822,45.1958781725314,994.369460810317,332.210924665256,857.224433638057,128.182510775239,296.915387510538,43.8899159664834,461.287086305699,73.5070420661962,287.019771936662,63.1596328875427,248.931837660426,30.6282106569001,1052.79394972753,157.00934350135,451.780141798434,142.217828182097,706.371794931634,68.8005339938391,377.554801877991,80.7830103747358,1155.56980717481,299.03913050792,333.172785558779,104.903868001873,722.748162479014,81.4469227430797,1951.83376570146,127.67037194274
668.157523672634,46.1461252343475,977.137608425016,334.263283877817,848.942668959467,125.632125134793,296.305883101948,43.8362142282472,458.795142263753,70.972459182314,286.706755425454,63.2345819737637,244.73929334704,31.5832395765375,1047.63434259822,155.847271767559,453.340567290371,141.044312075649,710.059045420568,68.5742812734714,378.063832378262,80.2148758729551,1170.46952846746,292.541375635137,332.845450356008,104.68434718179,724.142084972444,81.3508131830312,1961.00014438869,126.978535946633
670.866349437826,46.1417998391233,984.833461259171,336.622407456065,851.823679483965,127.998712011093,297.473912262567,43.62440931816,463.527459619047,72.4345938083254,289.350110323954,62.7333348909672,251.01850938626,30.5382070986553,1056.73175917764,153.811748689753,458.771264773866,142.447586980431,721.914665247643,67.8987195453753,382.507570214879,79.7510012609387,1184.25194908039,294.998373974154,339.816571997831,103.88289630771,732.207754598641,81.9463308998462,2006.88575089907,125.733889864156
673.069671080708,45.382106094774,984.15237328352,336.144371221295,857.021086638141,127.669720188839,296.346539549645,43.3258485551913,458.438954750355,72.9031651588942,287.939655946339,62.8565618978038,247.164109287869,30.3601588680471,1051.22686879665,155.345387267458,453.740051046985,141.86147301624,705.319547093326,69.0501306257335,378.742252164009,79.7697554309472,1144.07284447172,303.459718504145,336.586317505366,102.5762363801,724.563048011866,80.7370861210751,1957.32438936501,130.637511322065
668.212314054834,46.0901117269641,974.751985720138,338.026620259195,846.693744554565,127.243454518974,295.531351730105,43.2856199835894,460.425337606885,72.4289634683438,287.786827022341,62.4395933036989,245.973401779134,31.1162210419321,1048.69907833892,154.252459833598,451.84692946308,141.727541623839,709.144338834379,68.4969433343893,378.299430428809,80.4450072091599,1159.10177552734,294.402971263771,331.954203204033,105.700103373282,723.40953459751,82.0574342504851,1966.58635742994,130.15238000186
671.174903487037,45.8970803307187,986.625920010048,334.932953242463,860.409639607709,125.102246910047,297.109731520797,43.2997664237055,466.286555329492,71.6000207286163,289.908040324705,62.7826305257059,253.853477977556,29.2507540476317,1055.60373838091,156.148844844604,458.048647897423,144.47399242116,722.05980390537,67.6013161962448,382.48342334662,80.3817040325934,1180.70360603681,299.025108487547,338.662799385289,104.087637755447,733.253992204935,80.4597409640773,2011.94017099112,127.094006523899
672.008038848007,45.2931506512128,981.760496407413,335.411320289376,855.616317713915,122.939840564295,294.799754125182,43.3154109988763,459.162639254806,72.3437628002409,287.164081306341,63.0116283903082,246.98238093885,29.4143648488545,1045.43487878528,159.180908853649,452.095404875084,142.288377578985,706.122551268233,68.2836785457341,377.298676834962,80.5580089933602,1150.12800873504,292.912558501238,332.556585016337,105.231518849277,722.109503603339,81.3395845586082,1963.19115158814,127.743416716726
667.907315635881,45.9303783397004,980.353680307582,334.085620763455,848.221580011637,125.932127005367,294.240791914296,43.7223236794622,459.179973117355,72.7246416488859,288.006422063668,62.6943121823178,245.343605408106,31.9959662697598,1046.3729909408,157.407312893658,455.05839477051,141.146162168375,710.759151247036,68.3307914076242,379.145713649154,79.9848473368781,1154.8221789116,302.550870989447,331.8581806247,105.902633591087,722.544456936475,82.3498749088817,1972.40734977813,128.745382119031
672.890750108003,45.2649984144292,987.402865217874,334.567660051735,860.650447934325,125.705040682256,296.220444675723,43.6553660009677,467.290330959962,71.7816721625245,290.460029782732,62.9193952684342,250.799041311184,32.0100817080801,1058.91992912079,154.930534166585,457.78062198331,143.151862685642,722.677754564001,67.9922740668861,382.744712711703,80.5957455496614,1203.78001494308,295.489928328912,340.571312936036,104.400999104376,732.188049134163,81.1494739937734,2022.00438449509,126.408082170481
668.762763142961,46.1940437067615,981.810820950835,334.639897414749,849.115104660749,126.15171957251,294.042983694961,43.4380761248903,457.198814422851,73.2198506664439,288.523032601628,62.8655789304564,243.784241674222,31.5675037064233,1048.23059009565,156.240909551898,451.942205096915,142.223245799359,706.992351116931,68.8462643468549,377.5535256441,80.7933175724533,1151.65729194202,300.440182704161,333.534772227762,105.262754539634,721.400152673773,82.1202853092852,1973.77986805433,125.783863018162
670.471233526178,45.8326227631856,982.256459007784,333.733764663476,847.892344064789,127.411964562815,293.491222286144,43.2803667827483,458.00313440423,75.107103378749,289.510419570764,62.9355694397989,248.082920887703,31.3156322892942,1049.51854215126,154.491371496108,456.156836406646,140.58736997989,714.032611305895,68.3965658740098,379.451253799908,80.3208650893162,1158.69386032129,304.550276321631,335.70812244225,104.297748556158,722.641913240941,82.1746489588156,1994.48338502968,124.11648333013
676.090954886059,45.4984095069997,988.341372759001,337.808295800833,860.124580830208,127.386775752452,295.576121594415,43.1310982674685,468.113190065678,73.653251776905,291.226435900337,62.9928977467231,253.300323617432,31.2737324001923,1057.288913537,156.097000424696,463.404492793665,143.252417758527,727.568281483123,66.7961790378499,383.8668617933,80.1885606393135,1216.66772774125,291.000820636013,337.027296920709,107.149822785384,733.790022187442,81.3258853257697,2044.10070136562,123.429607406254
672.785404408425,46.3379894098466,980.849775255468,336.319049322528,848.797345102768,128.212062732579,292.347737362688,43.3481984980779,460.382536321472,74.313553106607,289.118498494836,62.7834378552287,246.655895785132,32.2508564065746,1047.58993106982,155.966894606131,451.477852549977,144.170391835227,711.103992276327,68.546139775924,378.666458607417,80.6781617829053,1176.92058815224,291.185967130557,336.039381054375,104.60988839258,723.601991832874,81.9063271368459,1988.27302101654,128.086865746915
672.072076145595,46.5044316315931,977.271671341871,338.184937660723,850.209946644461,126.987723196508,292.599423350593,43.3219141066004,464.424714866067,71.9112515617143,289.621172391452,63.0391549916713,250.643746277717,30.0531713893783,1050.71131416278,156.035031667234,455.237510189831,142.510536661247,716.143161908251,68.0237041199521,379.971302139191,80.4649118268226,1172.18875155234,297.542847931644,335.751040233217,105.850865342689,723.371214101734,82.4312388900375,2002.22940649681,128.327879309149
676.225682518673,45.8197965912199,992.614953621484,337.620302284276,861.732963609135,127.372011751293,294.801721464932,43.0967185587973,469.305576832886,72.0786265637241,292.139923050789,62.6864582515202,256.053908633516,30.7075292858802,1059.22464769599,155.8250736476,459.877269539679,145.541328446138,726.999730435598,67.3168210735576,384.120533435888,80.3781953500042,1214.05062322191,296.357699437378,342.676906946134,104.868678653245,733.614737145573,81.0376210313655,2046.81666073077,119.99161863957
671.605967237038,45.6745542931509,979.761634897409,338.277992624021,849.667973066394,126.087239734162,292.500386959471,43.0005441465568,463.272694725444,71.3721357819028,288.881840608185,62.9793300780631,248.29987025716,30.9967700538197,1049.03972827275,156.551225885255,457.377091132546,141.62977542974,712.355182940287,68.2908146004614,379.58066181747,80.6635897505464,1176.66041706839,290.883878881671,335.693866369396,104.400405002021,724.298905626987,81.1357825369906,1995.39423205939,125.898140617437
672.211581446303,46.1132776020886,989.820327191192,333.780587270342,852.254790363348,129.017209787878,293.357472645513,43.2531668761709,465.040311561833,72.6092340134146,290.432958946251,62.4495581360799,250.230608770078,31.6564833501859,1050.53349700907,157.970255114765,456.312897475244,143.52731025397,719.335667838545,67.8592598995609,380.75030992206,80.4669344764511,1178.72959771954,310.044921707506,335.136726348678,107.053336892316,726.950112724302,81.7494234402498,2007.29552564659,126.952588974485
675.875076640483,45.9242781178753,986.951256133169,341.397911170356,867.527866867703,127.024690379002,295.780523660523,43.0406363102574,471.638759513754,72.6353489167182,292.622739279503,62.45462468473,257.262351525566,31.2904990265642,1064.76113521863,155.346714860182,466.4862224618,142.660197937208,730.291004793344,66.8695144299993,385.559087028942,80.3443969523824,1242.00335454644,284.721196032475,338.691163259183,107.880842394798,735.013164388938,81.4617314635447,2029.90716762565,127.724234240891
670.250991818142,46.1234349060309,984.326086025072,335.266165812369,848.295479793904,128.228957272613,292.330231597915,43.2018338889367,461.421729162778,72.8400342767874,290.06121594713,62.2991555964916,247.168151036882,31.7540921834458,1049.77070937689,157.423741372602,454.745219205123,142.196403375557,711.503570461478,68.9239197646104,379.239067103264,81.1244260476701,1167.07691810033,296.618499017702,331.609346717394,106.386115764109,721.107342254597,83.2014957758321,1990.71548557661,121.968387955823
670.908501208823,46.4981532055655,987.362898719854,334.976432154268,857.395212964097,124.671250019076,293.453771531032,43.0104405611816,464.094689995436,72.3059770100627,290.599953741008,62.7039199595338,250.328869795598,30.8739338834153,1054.54737893835,156.741666560208,455.0935989388,144.42419455733,719.510685692866,68.2435092713204,380.347279352208,80.9512925850728,1189.93377055113,297.074629726636,338.312344691648,104.470179627242,724.757735917671,83.1490559224805,2010.70021458051,128.186931113412
676.617644830087,45.3763369434683,992.139519405483,337.952607386626,865.919251800047,128.527086485337,295.790778857861,42.868186362548,472.383085102786,71.7821343187161,292.053311358396,63.0646307707931,256.408589223477,31.5739965514841,1065.07812383292,156.307938938899,464.508260067942,144.614404899319,722.656906578521,67.9004056054758,383.124124668888,81.1630590210871,1199.20568919053,300.721934180426,339.827874928815,104.185922269603,725.380704317932,82.7474668138465,1991.61719420945,128.465030197309
668.433511575038,46.4755274804673,981.722358779399,335.699672920073,846.088367960156,127.439200590236,292.858365785584,43.1861232478702,462.371604975044,71.6948972388179,288.742982008447,63.1378719787756,246.563211580715,30.6592385369353,1053.33479973979,155.946515288203,451.996547614475,142.741165861723,710.895258458727,68.4671745069399,378.870368687573,80.7094274138193,1163.35736276971,294.011347889386,332.979858948893,106.883401866824,717.819226385585,82.6978390932764,1973.85238435821,124.125361264131
669.478019041656,46.8288104321284,987.569831186259,334.08962540305,850.345826093955,128.218557043344,294.358836049469,43.0292575821839,465.991978481392,71.2960935795461,289.541011753699,62.7996941279008,250.162555398323,31.3117249940003,1056.77855533194,155.572946857752,458.792627970216,142.318779864162,718.720774533099,68.275564717101,380.566144708168,81.1391806073673,1175.3433459236,297.113327503281,335.37749788371,105.595959179112,723.544752062955,81.5217439509739,2005.46437659044,125.206874785836
674.200060250299,46.3085858842323,987.596520629568,338.717224594462,863.59582673759,127.511607041394,296.071352460173,43.2267670297298,473.536258086449,69.565457750475,292.147506701517,62.4782405699113,255.087690571408,31.0426073847894,1064.15342383488,154.622764117592,462.01990885017,143.140585087564,714.343148979309,68.4882546210124,380.920008338942,80.9154868436192,1180.83790655036,287.445113106098,335.909109362498,107.036772040734,718.566895677178,82.6891165360826,1969.36114248595,125.691314789056
666.305447942934,47.2650729457461,975.684149902178,338.512678688423,842.889411170149,128.784389048978,293.008332700767,43.1991833423015,460.113135653178,73.611740838506,288.837756324001,62.7149790484026,247.370068986823,30.2800899956095,1051.03325305094,155.72235548971,450.646344405917,142.69132737485,707.433953655395,69.6840123709082,377.227586365948,81.15398953691,1146.58522629794,298.229479283468,328.764385447719,107.461639966675,714.098083175575,83.7152535547353,1956.65156442445,131.081282382522
668.111191761297,47.1147325308403,982.985856459464,335.29750142612,848.61745572748,129.238157792689,294.718156304043,42.9585807572249,465.985238493235,70.7361420977575,290.075172788815,62.811755750703,250.043781185826,30.998250015408,1053.28411176858,157.020982064228,453.977831946962,142.252934188011,717.885486112982,68.434238443782,379.548471689014,81.8408531606862,1179.01257765519,300.475082880666,334.659687530645,106.201787238241,721.322942462503,82.3180702190061,1989.8308032106,125.360771339725
672.459065190506,46.9207851112978,990.320519129642,336.348279520916,862.233090487432,127.720818126678,296.263366974117,43.0721178855381,466.01714908146,75.2952575157417,291.38957453352,62.7443736683147,254.443385569491,31.5048026813901,1060.31524789443,157.606442181976,460.326480813841,143.178744877264,713.152137397984,68.944977729008,380.005914023923,81.4694410957509,1156.64427874055,309.094352875709,337.886782318513,105.474728537776,716.470985463528,83.7344317964162,1961.47226742663,128.235223987235
665.601693242789,47.2597137312264,979.303180239999,333.592915955748,843.570269582341,127.071870941588,293.163511530951,43.1943506968554,461.718255159425,71.6335393664139,288.596829400275,62.6473735392792,245.767169606466,30.934685216203,1051.60701827355,155.523845167449,453.290738129694,140.266807349369,709.077145563857,68.3350159547075,377.129840856327,81.3257893391807,1134.75416525752,302.220515189039,330.224998721198,106.269939071294,712.73111114748,83.6275197397966,1954.62429901821,127.284272154545
667.648882337493,47.105200451812,979.701830750773,337.376007486633,846.388137791967,128.64699845417,294.396875458126,43.2799757325106,467.024304951561,71.2626103442212,289.014720860113,63.1646158382469,249.41238927424,30.122755882099,1057.80683006608,156.713655123357,456.350711520089,141.232720037375,717.504962215859,68.7268396762762,379.694046941063,81.4648386198003,1165.24941652628,309.285409178469,336.018964226203,104.951353592526,718.485496517146,83.5269588544263,1981.85245384476,131.201493162705
672.560912634195,46.7324395458953,985.597002353233,338.34104020698,858.932079102221,128.854877848505,296.834558482621,43.0927272379466,469.37513282894,72.3246685535887,290.559948771462,63.3021547706474,255.406871556656,30.485669745107,1060.9257242921,157.117155382395,463.158290608648,142.261125717674,717.237335580804,68.1739106300051,381.263550247483,80.9906081513393,1168.52109898999,304.048767301025,336.324636318171,106.397007414029,718.193722882586,82.5053394130901,1961.02622961825,128.384481149034
665.518747650379,47.2980514624475,974.417510508258,337.83136496294,842.382408667121,128.0670865195,293.77722758267,43.2845143954107,462.536095118066,70.8962334258328,287.877588033565,62.6830454883201,243.998830460047,32.4746406243511,1052.9662455424,155.402969389194,452.240301401669,142.050417629741,711.099165073506,68.173523681897,377.389618694017,81.6260920427225,1136.05426674349,308.028398116208,330.206740999653,106.124279312727,712.679192613344,84.0007729014793,1953.30873987701,127.880027354573
666.784553592734,47.7538753272029,978.051029896784,337.764416289118,850.682781228114,126.422762112172,295.313710118343,43.1999228954847,461.59631139247,74.5225356341966,288.740238623193,63.0020967278459,249.22753768886,30.8322495102452,1054.25304049512,157.131544755877,456.510991035107,142.016444151497,719.743632044986,68.7254395483424,380.016093251472,81.0351418521004,1184.6170355349,290.859589530329,331.777736709699,107.796925097313,718.535155360601,84.0821104440456,1985.21228087127,130.808887935103
673.318610333744,46.8224217611281,985.305442077368,341.659652909767,864.755279291583,127.350790517578,297.784802974226,43.4249446194259,469.318265721709,72.8608066776042,291.648816026799,62.4412626969495,258.282175669335,30.3451430948167,1064.57500236657,157.538525231898,462.804678558651,144.049473072439,725.902635647141,67.5151687273774,382.650218660476,81.1592844288334,1180.54794997894,309.780163924239,337.240818494307,107.431360685944,720.809213318147,83.3930872127134,1980.33712998865,128.365702813937
667.261933188846,47.7913802642082,979.139499281506,337.167912827322,849.431028768237,128.182941965645,295.122153199457,43.3834302216189,459.568191079437,74.4429812756691,287.809492332599,62.8139575196188,247.664747174688,30.7242582824863,1054.15743422836,156.326959494534,453.533747689918,141.978110110324,714.863077218251,69.0997195527952,377.997738178222,81.7502732266148,1162.69308874459,292.869408214967,331.796255623291,107.126318809235,714.596840345842,84.4087296666006,1964.98453017138,132.354354127124
669.50887406567,47.8912184135642,981.519628343209,338.662660303708,851.194431043011,128.167078741408,296.335127215625,43.2754248826977,464.612660582546,73.139123216201,289.612459685255,62.6663216230457,251.943981133949,30.6276265403068,1056.54345770479,158.223589051969,454.587063424294,144.933182254015,724.857043953937,67.1999140826912,381.757177286237,80.8629342759888,1181.18751233609,300.508111649148,337.421472213881,106.002327002436,720.338300554799,83.1680211002354,1995.56518656523,130.100312555249
675.28129623734,47.0860893095967,988.069058857161,342.550128277013,867.953925691155,127.370172630475,298.323411535515,43.5026656937994,472.811911736619,71.3882502563069,292.06895294029,62.2981073081838,257.906624995449,30.6372706644557,1064.89586448853,156.03582379756,461.427721715434,144.775726698987,725.890327837976,67.7490756706244,383.650835598686,80.321523923914,1201.98198887027,299.848565095646,338.638264557719,105.416991169457,720.036907497665,83.9885445873361,1983.1935399449,123.988100291742
669.842463885696,47.6173136880835,986.438803512734,334.6886101825,851.899695323776,127.679304697513,295.523339283919,43.9317688183779,461.814386294776,74.461998752829,288.788047227934,62.5656468190874,248.959704755581,31.4757499364535,1055.75683832864,155.961046656385,454.757499153261,143.46445315093,717.224306356728,68.6275846338917,378.101975771781,82.1215347464738,1169.65295344577,291.83057408217,332.644603482588,106.090526731083,718.054723243185,83.1414210799573,1966.68909561755,129.26301072208
672.186474387096,47.2364856020913,983.418326285302,338.404557497865,859.008109777481,126.42018934275,296.847688405924,43.5674994285758,467.160006981355,72.7674465091787,289.941474021061,62.4679161166994,250.7612651655,32.0375732453431,1058.24829699114,155.847027605941,459.612963794021,143.576376903031,725.47495665608,68.531136055996,382.650138727665,81.0532492950818,1187.97245957066,304.774390138901,337.152983569884,106.027420009789,723.804087632351,83.5714969910232,2005.75543451442,127.791380235291
677.359723599131,46.510500139111,994.574221621893,337.734730430992,868.780743926317,128.268370158757,297.774658545235,43.6731236157767,472.098775083344,71.0336365790694,290.511167334645,62.462785426403,254.943904789989,31.3162446282119,1068.53156306725,153.971755359741,458.676215671222,145.013795475225,717.144522616984,68.4561897784001,380.454069646562,81.4437543135583,1166.36167955226,306.219285858935,335.009235957624,107.837360084238,719.738740732259,83.7207723769829,1975.86319448775,121.229973468257
671.845143752385,47.2350265761583,981.164731232217,338.599101094846,851.813118864364,129.376368482486,296.0699193733,43.3407103884704,461.489741099229,76.8817490990156,288.415932250024,62.5350010094594,249.974985626804,30.8071874447429,1054.792363972,156.048914823839,454.828031505576,142.002540594415,716.073559085346,68.4913703419468,378.593279495661,81.9299728760512,1164.42649149888,297.804217849809,332.798008156126,106.204170898337,719.280312519641,83.4802064082098,1970.74669136638,128.826836071625
672.968500118294,47.9787504049128,982.367814856814,341.955430460398,858.557698928014,127.963964730124,297.203341289171,43.4431274933507,466.153717648341,72.5776292255912,290.322484346368,62.6155778837366,252.420831556683,31.1347316796701,1061.01422889596,153.874673698785,457.009436299609,145.20873711886,727.049763584458,67.8824697384341,382.527602240736,81.0796079332217,1183.9427717571,307.539197186188,336.539200634302,106.700796962853,725.967122382398,84.0494622076482,2012.77994656646,126.85685548218
677.058040644195,47.0169477570268,990.651679689954,340.198684751897,868.540980809412,127.118487207165,296.725699794683,43.4532670048154,461.354881532841,75.2874150984347,289.492324673521,62.2584350584617,249.138098816566,31.8408166069205,1059.65418867091,157.039129679547,453.925545280348,141.811199007588,711.958588208952,68.4788483924097,378.874100094635,81.2609925909775,1160.65466292619,288.406609802573,334.154121399393,105.227772061887,717.02599402971,83.9431557502461,1960.24184779814,127.555781441012
670.106768230605,47.610036177478,980.873975876674,338.282370446903,849.974414992732,127.19861842403,295.09510828903,43.3763821237057,462.931972047229,73.2445086810368,288.083704597329,62.8802049362822,245.589832539948,32.2078295487452,1054.20183602108,153.713315577885,451.554329999072,143.260038641343,712.770862992687,68.8433082042601,377.862969325881,81.7580647909791,1145.6380395862,302.001291529243,329.081346567497,108.213799831504,716.492885001217,84.2821292590466,1961.03405085136,129.377333790928
672.580405760978,47.4979358338631,983.135660360652,339.572380554059,854.38292772036,129.051441723406,296.459346998313,43.2783065530655,464.163503105236,74.3911195393343,289.904432566624,62.5617910509162,252.521070518154,30.76621589907,1060.63278993787,155.467336471772,460.207679879935,141.724543857092,723.958514866069,67.6797220181375,382.00646829555,80.8915810165321,1182.87656171205,292.657237122114,334.862578673561,106.534354724469,723.663567444356,84.745065226267,1998.56349210566,128.517084182534
672.278201362423,48.2022924749157,986.391531916753,336.898132579428,855.523711300394,126.692833327746,294.852011423474,43.4612248450803,459.119791492104,74.0312414759356,287.435114279188,62.8649621016234,245.064811325976,31.4956419714496,1053.97299057835,155.940289840353,447.539126528009,144.335171083442,708.478148744477,68.6478190331049,376.720871591616,82.000783660184,1143.42089464328,290.001434801132,330.137136919421,105.561455925804,713.477643915656,84.719430681064,1948.84319898052,130.632659240069
667.633104134047,47.8853138472007,976.701111196989,338.382717325526,846.375674002066,126.64891356449,294.496309647188,43.2330674498514,461.548777369832,73.5834581109678,287.511106684877,62.5398464832348,246.477188007354,30.7575170089836,1048.18456783941,155.52175584435,447.981913379142,144.451792783531,711.173952370132,68.6412721261696,377.698983032376,80.7720208126134,1133.86377209645,300.420787468078,331.633712857963,105.944631325511,712.257499302759,84.5753904468402,1950.94832031415,126.548893060074
669.707247564133,48.1553121754739,984.782754677573,336.778826992862,850.104074276904,129.374813280761,296.720267347873,43.4142872710692,466.184423309562,71.4561749025748,289.133187278229,62.2060212844855,250.082329815015,31.3545994085167,1056.20510038122,155.947399387995,457.15307620582,141.975660327043,723.396088787597,67.7428883603049,381.597312642785,80.9559967189277,1178.4327384313,293.675082072458,333.541348170445,106.158086047867,720.239619683304,84.5425023968851,1989.19757812743,131.497253286616
669.705657734302,47.7358349204076,981.011879572353,339.468419666069,850.520762891232,126.304331188646,294.966029383225,43.4852497401602,457.829623815081,72.5419063990628,286.839647381094,62.8525175531921,242.83913442819,31.3979099862287,1047.7169252804,155.717111306047,448.945834554549,142.684831536513,708.106396226002,69.0799558341734,376.569163868753,81.3963312438677,1119.68880406185,308.527719939104,329.910408577363,106.453498345638,710.96548586991,85.2437875349213,1946.44770062378,131.604453487127
667.024245430336,48.7383899496787,974.937534657316,340.45479928613,842.149244146568,128.429125024427,294.620423566226,43.4956537290136,457.745996117318,73.9405053233891,287.755243517432,62.1959672952159,245.496754022622,31.10214644046,1047.5175538815,155.659786044642,448.52826301614,143.711578300031,713.82947784901,68.2114471135172,377.544003697724,80.9058971907948,1124.07610500029,311.103228565677,329.565130278052,106.630265095043,709.734681609696,86.2929124404608,1949.00786299837,130.812628704855
670.739583824672,48.193615004177,985.007815708305,337.287242431756,845.550836143201,132.922842705187,296.931652621929,43.1331174464976,462.176852259684,73.6713124252801,289.427115423614,62.6114811567803,248.964386852031,32.0641402876758,1053.30112457304,157.23297130073,454.97476025112,144.226954504699,724.578234105764,67.4725992336486,381.480298455369,80.9195008459485,1173.42835769927,299.755127384517,332.486800697867,107.63515161523,718.696396696585,84.0847539919396,1981.6064988229,131.7940236128
668.597240894536,48.4048502449702,978.252982135927,338.811823725399,845.571649362474,126.11194423646,294.54557055564,43.3274012106454,456.578283715259,74.0390892805753,287.137494439963,62.7250760125753,243.019293256778,32.336380312234,1046.92043753427,157.150575508964,445.70381615638,143.799826515219,708.965575889536,69.154118818721,377.000392504564,80.9478764225988,1126.79800978953,300.323363224587,329.181414893232,106.881215561095,708.011360893148,85.3614523213554,1932.44921099557,135.394069525042
666.792552139021,48.468864651205,965.873187500415,344.867162127872,838.93594642193,131.236346001423,295.440506030528,43.1351682687388,455.102454785594,75.865930559405,286.824477732054,62.8095603959519,245.771062209046,30.6741435589229,1047.00294367401,156.088507871764,446.903367771888,142.348858447831,713.468491166591,68.2569821466727,378.549804814405,80.472607215956,1121.22193036268,304.690608176599,328.995459419652,106.392376950367,709.059161623494,85.6513415003575,1942.02934704436,133.127696425661
669.925583413462,48.1444497735477,976.969008589053,342.113696880602,851.289487201291,128.378699285352,296.796465819292,43.1308102714761,464.03497777234,73.1670403747283,288.884064514521,62.6469692331014,249.952517068909,31.7857287677054,1053.19657881637,157.264259775156,453.875939084586,145.41487447307,722.882003015384,67.9974334309301,381.98283204695,80.8077411157385,1164.04392656004,296.762704087359,334.673164713106,106.194702193798,717.672816687658,85.0195419518402,1981.07175880526,131.895729772747
665.29324401188,48.6088128413743,972.389553966083,339.546149190402,834.78444674379,130.598045053267,294.078073532904,43.3738859446329,455.175053085438,73.3206822958328,287.18050127277,62.3428869434041,240.728482719257,32.0789773195183,1044.16684441091,155.083522103969,447.119264632517,141.893921633743,708.364440357957,68.7760409840275,376.796914472785,81.4080230450863,1114.88310042098,310.162929981113,326.420525482819,106.658539336972,707.695294636647,85.1413258704969,1932.43153438223,131.969613340687
666.075028083413,48.2448121318761,971.548626961808,338.484941449767,837.112973776112,129.168849455012,294.673124301376,43.066972870274,456.726489732918,73.9413261220209,286.903212342791,62.6774318114262,242.281289688792,33.0907183586635,1046.55205816353,154.837786422455,447.050246566124,144.321128125182,713.492542421273,68.4931659758178,378.516562423839,80.9081750131854,1122.19709582002,311.556499669832,331.926241498009,104.431487521824,710.155355535367,84.6844919297012,1943.33139724143,133.783962951372
670.328209370385,47.6571317559097,977.006225521557,340.746341761583,851.306374113212,127.053973415175,296.818602516861,42.9066136229132,464.845434510679,73.0046072885312,289.238482149389,62.6471077790576,249.65422860861,31.5292040879345,1056.02526573294,156.645299490465,453.946924563423,143.911840065624,723.562882491123,68.1142806847945,382.591963975348,80.8478512127716,1164.00110201625,305.080259323563,333.450094873519,107.059040682773,718.049054927821,85.032725476665,1980.66351056103,129.858243022027
663.781392631241,48.3623606243114,964.127197260524,342.730130867656,835.148132237756,129.034086622026,293.235570971859,43.5100941516758,451.020529165381,74.7210923260008,285.916849737129,62.6749069824179,240.808291202267,31.1906056816647,1043.74789978855,156.536230052024,441.794659766944,143.959971315675,705.84728766691,68.8317111714502,377.430902640583,80.5734662490432,1118.05398774459,296.295302019554,326.021487233023,106.940821791436,703.10944830399,86.2233938804659,1919.92411588212,132.363336461656
664.088884576693,48.4328182367308,969.977913819712,339.211969334854,834.288295178572,129.088820099069,294.22271465173,43.0501205079013,456.979850733772,71.2309853538999,286.882443012564,62.5343454818331,242.749212890006,31.0135807241223,1047.48480121853,155.555803402784,443.990792043164,143.709695315097,712.275897756166,68.2437780878293,378.437058253224,80.8694917819282,1125.93841695909,303.19806758315,328.513950038046,107.825910585349,706.173563809392,85.5917231034309,1941.66751378061,131.612837537812
668.243755655935,47.8459256844281,972.884949812747,339.070322372894,844.687435359886,130.52033787638,296.238840918973,42.9078921797316,460.947694129367,73.6830543095046,288.391204345395,62.6979438823376,248.26596316552,31.6186637250178,1056.67754631692,154.635564997519,453.679788127178,143.607258753918,721.727399925241,68.3096844454609,381.780671775745,80.7756313815517,1143.0830796613,304.858896584405,332.650633979491,107.458387811412,714.327514803045,85.0694828919337,1970.49253584733,126.361418722716
661.249110195328,48.8036781300202,961.468559227834,340.741870812818,830.65261722207,128.299860598182,293.426274772639,42.9825348826883,453.368609426075,72.9291590396148,285.107735845005,62.8162734606653,239.25081149241,31.8595983500173,1041.45288169662,154.997656677481,442.256598839048,142.650214717556,703.446861389827,69.673344282039,376.031156136948,80.503251248763,1095.6916316211,309.876195235245,325.264569206514,106.718485442802,699.529858595359,85.8004371039096,1906.99580023862,137.395945224639
662.257341008313,48.0838427256333,964.972358420047,340.969240717444,828.55701773472,131.779908376572,294.810586930874,42.7993893154398,452.217937284623,75.0036891005008,285.52524949344,62.8762234504839,242.054987851528,31.8077118203746,1044.49538925808,156.28293382615,441.864589889064,144.465096616219,710.405266817598,68.6788591176524,377.444114608973,81.028204442577,1122.21382905735,301.765587022237,324.499769018779,107.264863840899,701.987030645843,84.8752861653526,1927.93506544759,134.301318736986
666.953737346862,48.1036499046021,971.394946744414,340.794459973813,843.960758126069,130.313501046288,296.662715567177,42.9899541469287,461.269480455958,73.8023871941291,288.646144722223,62.2534322238471,249.113052311827,30.6823152046758,1053.8399124182,156.066728039715,450.412620285479,144.828059654489,721.26835642066,68.3315231858983,381.781799059104,80.6365738769218,1133.53558532959,314.28456846132,332.999401916397,106.229821301492,709.158168373932,85.365545637073,1957.04805262191,129.387493548071
660.423911411896,49.0778689554683,962.696192806728,337.935265353093,826.855578871086,131.098971654369,293.846391122318,43.1197398509164,453.584597748974,72.2722034359812,285.03872605716,62.97928710316,238.522576483368,32.9607442920408,1043.85788846759,157.01144744721,440.974350373773,142.567508982034,705.697907638415,69.1486265383513,375.552106572107,81.3411225493759,1104.0282171355,297.3569542487,324.42345234779,106.811947350353,697.909098305364,85.9698786016656,1914.1763415769,130.975197383101
662.264794675954,48.7832026013918,960.16684430279,344.684462511931,830.175114133643,130.680108294777,294.850374665493,42.9875520422707,455.620780047758,73.948796236151,286.807516688075,62.3376001751014,242.630573652914,32.3250439176472,1046.07800792245,157.707566458979,444.340869867063,145.157594846121,715.197144783273,68.6094140138563,377.631949915362,81.4300505996135,1117.5891760771,300.947517377948,328.106046095335,106.743660473439,702.565403124082,85.3156948992255,1944.58623560376,130.241854547703
667.849996559539,49.0175694859938,971.683189083249,343.72006921067,846.068289839286,131.144922803537,297.019306551935,43.1023307390529,461.217480938587,73.9778986078925,287.840219833028,63.2833473708921,249.273668390892,32.3465578810756,1058.98582851859,155.894533298904,455.262201563655,143.831867191851,724.761657661025,68.4034384818462,382.033395592016,80.6728988732439,1150.10334838081,300.254768538278,333.148806491077,106.627470865356,711.24468751977,84.6822203883115,1965.763380624,129.853940164601
662.134191165139,48.9526966120566,965.062874903166,340.70581772728,830.92684978751,130.774278196378,293.97214817074,43.4038396658961,453.783504324954,73.5847231721502,286.020332628158,62.8250886609371,242.520847842611,31.4441193387475,1046.01459118846,156.064131730119,445.280216992271,142.257153639318,709.801673994375,69.4451516193123,376.704247120436,80.8462683192459,1118.84913127413,291.76534101459,328.005132064217,105.791819906905,700.28122853674,85.0569690410254,1922.97386811976,132.989305594228
663.778208011394,48.6635743887249,962.708871476653,340.189859318367,835.443849271364,128.317507117619,295.061410183703,43.0385446511678,456.259287134296,74.7315016149784,286.700037353416,62.3230199236501,244.150607982729,31.5554583328382,1048.66807739414,157.050499645404,444.754035460191,145.202077933129,717.162924798447,68.0109059706812,378.834611024597,80.7405153147343,1138.28282250935,302.426555879165,328.083387013397,106.89515022956,703.144214961909,85.3046099763117,1942.32432947107,134.533013729165
668.759323023257,47.9718108446499,970.721892836204,342.966152416147,844.901185651147,131.558051955645,297.018952165062,42.9424944599158,462.362487899406,73.1442121292371,287.828394341283,62.9127987277117,253.056272790273,29.7411834279553,1060.38798990908,153.897445184877,451.183424518809,145.786162669434,715.345809192688,68.7936301750971,380.338688121639,80.1952574965375,1134.6321648315,300.977544686257,332.059203317976,107.059383503849,701.414766626382,85.3895929337877,1926.3168531389,130.416455611533
663.234488400576,48.6011282465924,964.254635908934,340.657817338553,832.595359439735,128.203688681609,293.981218128804,43.2244314185786,455.97633239462,72.2461048870807,285.316293763839,63.3172956200884,242.201616112769,33.1712693624766,1047.93549373166,155.716912936757,444.426426108665,145.50245540133,710.184478979123,68.9022590605748,377.590975598213,80.4874202575038,1120.48220452396,296.630371751791,326.446616917471,106.409842471995,699.326965824824,85.2448136632306,1922.15270759589,132.46076040497
664.969948551943,48.5210833487581,965.775887823071,343.49973495525,838.261107531957,130.840185754071,295.159951285861,43.0088312472731,454.827141192472,75.2612043775693,286.930082740902,62.9761364654883,246.397352088824,31.6861683179508,1053.3060284158,153.696438988295,449.767006182492,143.119614190076,719.847867334377,68.8472906151248,380.490034796747,80.84733035879,1154.42622386505,287.733199123542,329.116318287052,108.622273070191,706.46367864331,85.9309102982417,1961.7704168629,130.295792827903
668.738476091565,48.1662531080655,973.210761018358,340.728682284343,846.766153601198,130.742977730697,294.473502558235,43.4264431820916,454.594931595145,73.0564726805561,286.34149019383,62.8911938969509,243.472337520274,33.1762662105375,1057.22225581824,153.33584056154,445.734110888844,143.323434961823,706.033505057989,69.3984760457007,377.397188836044,80.5885895185326,1106.25949435439,306.701189047564,326.971471458549,107.680523406924,697.878486406444,86.0297663611615,1911.88782200778,136.810050340688
662.462096297953,48.486639094101,965.117217336796,337.876757373748,831.419893865542,131.722889382072,293.056226134973,42.949489534068,454.066129636926,73.598897629535,285.715763704342,62.511430664847,242.730719921154,30.8612896406581,1046.72081955715,157.182522584824,441.068124396076,145.352575402354,708.608016339055,68.9512006130479,376.107073026281,81.1185557034749,1117.63908299205,296.239308716629,329.443295143235,104.496646637904,698.248788903357,85.4713761998666,1917.81585217028,134.59781983544
665.185036721971,48.2694385431388,965.340694606662,344.543476721089,843.53393808699,128.196342613564,294.833026826006,42.9237095097367,461.786999388327,72.1574620981334,286.435403707109,63.0699416991159,247.305634623594,31.1870776773066,1056.26879103798,154.370632132815,449.274778595387,144.747662590627,719.590308495086,68.4564584271084,381.007062219487,80.6009152538735,1132.22066145887,316.244913150343,334.103784606858,105.529944029967,707.333747387465,84.6809161882504,1960.11365521743,135.554949547131
665.174519281096,48.5360764972504,970.315965332905,340.076958118931,838.540034611076,130.517730111795,292.674290545036,42.9458873392055,448.901564202768,76.034363787499,284.778585173991,62.888644266506,240.019255839114,31.4305384141473,1051.59804203819,153.885474531414,443.225835616566,141.284360476901,704.320147302023,68.9301413062457,375.792251860669,81.0051852094823,1095.73874843833,308.06914810922,328.033357314228,105.826431240618,696.808379189419,85.5318201028657,1910.56715346868,133.47011102308
661.455870164786,48.4097241802491,956.51112989832,345.034362288596,829.412142649329,132.165656729601,291.736441285489,43.0220587514017,453.279390411861,74.6960135222359,285.22333295071,62.954208574635,240.441775105911,31.8720463193364,1046.92061939908,155.942835739906,439.603022990572,145.102898912365,706.557239792393,69.3657871527785,376.455871192172,80.8600289159283,1105.42632552193,303.298367679174,327.940230106995,106.145788672924,697.532691561183,85.7863344493017,1918.0041163859,132.943877303464
664.138448326958,48.3604079291093,968.450769212321,341.685939786421,839.160246046853,131.583113491932,293.50465251636,42.6674991240333,457.68540494318,74.7255168654608,286.750226682266,62.836807553542,246.145908941192,32.5507793243076,1055.35398687764,156.168964800939,450.668459556168,142.795167569059,718.778664383071,68.3348404353141,379.006065331629,81.5058716335377,1159.58715745185,293.042376809266,330.814677410669,106.402633259706,706.211989978655,84.4731387359196,1964.91119645621,129.128205106598
659.357609876708,49.0593684395175,962.591779517273,341.083268944001,825.206750965346,132.704341653854,290.638807132815,42.8412250628953,450.798310584514,72.8044801892182,284.227708492283,63.1189901747104,238.95542990587,31.2650908099767,1046.86619098733,155.093937357494,440.613469270719,143.643465430484,703.614247379016,68.8869068188685,374.540043095508,81.4253839306941,1097.50460342829,299.02963057089,324.647294417347,106.273141831319,693.596108230481,85.5554465594462,1903.67591072894,134.330618192669
