641.099928758703,59.6096092922244,943.38689899596,369.501225637713,809.254520709034,150.245781655633,293.531399625675,49.2293593135006,445.744415877268,84.3046692318383,286.976475863514,68.3919543399154,239.689322986379,36.4613507597093,1044.25212825558,174.373294111248,432.505039390802,154.989499865315,723.755711536665,76.7958814989687,382.641574106339,86.2034813354089,1068.68137533866,325.83698682081,316.583318398812,116.286540572744,664.804524707759,92.4858341133342,1846.15853144968,156.818764544006
634.557116033069,59.88021472295,929.260225695092,369.105713437508,795.324964460647,145.634132149034,290.233697974215,48.7594223339835,436.458001289043,83.6385834459559,284.406481006087,68.2092124374283,227.877039378887,37.1783776104212,1027.29015775333,173.327995701792,420.637345696463,153.05993163384,707.841249820929,77.7420991657613,377.338207495648,85.9522931063295,1029.44596015841,326.384218272195,311.917031488643,114.433315088935,657.990555668748,92.4895958580371,1831.263987665,156.685846214919
637.131131141282,59.6429326390916,937.530740785483,367.252788177047,800.573093679612,146.734671503655,291.370791392135,48.7152933088633,444.195746998946,81.8214041560836,285.625045732163,68.4929301820008,231.546517626863,37.8896295749011,1032.74770363805,174.950164704074,427.301525298807,153.261616916373,718.216138899542,76.9281113664422,381.170471795138,85.5056838900243,1070.07930455819,316.171281035249,318.484747856766,112.850523320293,662.817121817885,91.7443520550744,1871.37627525586,151.100900608088
642.46195854701,59.5351746385583,948.552244735952,367.801949702231,816.302049540139,147.557082839554,294.076772175868,48.5659666384908,450.427918575502,84.364617931908,288.75655999536,68.1159092190866,238.784744708659,37.2322407718008,1043.26680433613,175.060591173166,438.397437882541,153.726552557914,728.231818585648,76.6014486323848,384.86613094873,85.7386111612646,1084.17089482879,332.147601099649,319.533958989608,116.143640376565,669.181842302909,92.2136706088092,1871.30542584257,154.558380864215
635.635792709078,59.6623105842091,933.486967836079,366.999957519789,796.334914439642,146.369299501112,290.088616557195,48.7890395254086,436.737648621978,83.1968806480673,284.659023062614,68.3839505314707,228.41829667374,37.1080666066521,1029.36198032931,174.013043359863,423.088115485485,153.576742687138,709.933069929945,76.9725499906905,378.950773378171,85.3241363511769,1051.04228593701,320.026955023965,315.450220534621,113.821666775349,659.216418438415,92.4956033276245,1837.86220909863,155.990423806293
637.491686025857,59.2734314269961,933.03566351546,369.534975047187,801.818651628954,145.793102261373,291.430780444217,48.6383603215188,440.489398110648,84.3316716982195,287.591001541028,67.4953417833309,233.274932374195,36.4813336620379,1036.00126293236,171.804572661488,429.192097371998,152.602705818198,718.689276936949,76.7693092723271,380.875738181158,85.7134598535162,1055.32721744043,339.747712367589,318.952231129807,113.887671048478,663.436510146987,92.6948796848277,1875.53994951273,149.848421195206
643.153124090135,59.4674560347995,945.349289323725,371.638920561467,814.329854038997,149.02080804053,293.738914118138,48.7241292482675,447.966769932349,84.6115848113701,289.626693464913,68.0962675503169,241.176892137317,36.9182592880073,1049.21795176604,171.154650605624,439.603310114238,152.535751774397,731.188706738519,76.0084028332778,385.484456288002,85.8219073636037,1100.11248786775,334.216589731508,324.240150667345,114.809756195702,673.488765835063,91.5176856303345,1913.93578141809,150.736742580829
636.44322782241,59.4712807131309,936.655686901485,367.198313386838,801.378287120166,145.759351301037,290.287670984578,48.7040918255395,439.281056607302,82.8904374221786,286.229631408665,67.5356312894969,230.624147709329,36.752715898978,1032.87717875002,171.785188460889,428.286184580288,150.858589901382,709.918147925537,77.2971147142544,380.385538242812,85.0677245049293,1060.28368326553,311.198118992696,315.964015921542,114.057963169818,660.295632231589,92.6636218071885,1850.2993868974,155.008879626527
638.658609194743,59.1446750312665,943.063587076086,368.177553582377,801.051940265689,148.613912193595,290.921422406493,49.1221091355632,444.901397722421,82.7005939715463,287.38089879202,67.7962886155461,233.574604185935,36.5988187086878,1035.24991308101,174.659235457388,431.610159804668,151.326076242395,717.437461833381,77.3794020988707,382.20548817362,84.946994892444,1058.26744602216,327.350819263214,319.867741711976,113.612856111674,664.834253694652,92.281370193856,1876.18253774408,152.361600740166
644.354760112046,58.8430105545291,954.469826441161,370.35835559415,817.763959175376,147.896351783091,293.893171617713,48.672650231885,448.089829435166,84.7632170649385,290.045415101528,67.9201893234755,242.371819276955,35.9547416490783,1050.49510535559,172.022588784146,437.416543275266,154.332383022796,732.486000940601,75.1709598706558,387.591094310988,85.0778247317225,1109.13156948466,324.921457521257,326.725061593079,112.905537606194,675.017022545986,91.3830021684071,1921.0535133985,152.193221230059
637.967411648693,59.4141932821165,934.565678217278,370.833000098124,804.87067341827,145.969993855147,290.435783470688,48.7644230305433,441.697901357116,82.9614836429899,286.928200281931,67.6780541806606,230.312376037813,37.2412950066083,1033.46049799559,175.004809767415,428.084748086097,152.924359925735,710.893962296669,76.8671046175764,381.167611306191,84.8407194348376,1078.72607608979,314.11368978651,317.26326682633,114.601253685805,663.856826268342,92.3792685577565,1858.08838457698,154.818506903073
638.358931131053,59.7438410204662,941.754045199191,369.301348487976,809.066150230904,145.801348205048,291.302480316349,48.8259393593673,447.842752350116,80.4824249197171,287.700158945165,67.9871549127732,234.982979745618,36.5096665238963,1041.58715559837,172.989890736276,430.079693374854,151.815851591731,719.934583640455,75.2976679248599,383.232724323165,84.8922862634635,1065.31634583878,334.569687805411,319.806815237564,113.357480693339,667.771313613304,91.9958993696995,1887.09944078021,150.559086380537
643.292143557861,59.797241537415,953.427495747718,370.967714279859,822.990752559797,146.378828392473,294.02429092488,48.6724101283219,451.851606681905,83.8892175598113,290.502558909937,67.7821851503331,240.537679541686,37.1373374331866,1052.42917513274,173.383865613723,440.16852041849,154.328344878543,733.763294090294,75.247459310303,388.35636995682,85.190108742585,1114.818560016,332.33006379845,327.525882958841,112.768047321464,677.603324306108,91.5078262137981,1937.02344848423,146.058065379314
641.194794144958,59.5901467756209,951.508240536371,367.593054069684,813.016140909268,146.59810433671,291.528762436471,48.7719789164906,448.328420162717,79.6487166993257,288.149896488707,67.7697121657719,234.018844012128,35.7806941467623,1043.98029093515,172.636272368772,429.637228429263,151.284155614161,715.597609482313,75.7218850425518,383.305047246923,84.5709179861472,1084.84622755468,314.887053526195,320.876865509733,113.149505217033,668.188694136776,91.8104559934927,1877.15885306661,150.09795013143
641.748355718824,59.5157020539209,951.381585631776,369.030795589804,817.271110099559,144.614991127818,292.880772600731,48.6397941011215,447.466769909714,83.4700076459476,289.232616652391,67.6945670199183,236.591865555634,36.5524528505516,1044.15571025246,173.458231778368,433.706113023438,152.552762994247,723.658006390932,75.8067459844693,384.182628235786,85.4643013558519,1090.51675284082,324.121382681602,320.113811253321,116.381104130046,673.424977276326,90.8853937019706,1905.97344550829,147.99729298247
646.600535701186,59.1990654037621,957.538732676565,370.893576106527,831.088104246633,145.445035783728,295.319427268541,49.0694984467325,459.00740588481,81.1694795516587,292.434004037165,67.5765649915984,243.406745212179,37.0521261111507,1057.52277155811,171.498225060756,446.891540343066,152.819603361205,736.939088050613,75.4677911876521,389.769274858556,84.9435156792248,1138.43203497027,319.642905186188,325.89829489834,116.535767190316,681.849957229315,90.9321305960757,1942.20625756162,154.157796923233
644.262171051235,59.5178220462887,960.089164762813,368.535817694826,821.640577631892,144.416584174313,293.46327520208,48.7464522516626,446.272639405261,83.0452768704009,289.791000651991,68.2336480528507,236.620422605374,35.7659727836889,1046.80810565023,173.548395526805,433.84534583837,153.312440618935,720.048972491836,76.1475239344506,385.008136866114,84.9161258415792,1072.89634509054,330.365466155553,321.460375250622,115.5886769502,674.524073193522,91.6252816688129,1894.10234411799,152.158481280216
643.88857402194,59.7302273604379,957.193406867192,371.399227677945,823.74014250036,143.049813698385,294.036893086441,48.9372665941562,451.393012336882,81.2020607935504,290.246836509603,68.3053177904962,239.007055430325,36.5296853455469,1051.66268076163,172.117277892128,438.792241689312,152.418278487049,726.689183560001,75.3188205287775,386.921245716638,84.6475276112753,1110.83773581576,317.298924143905,323.07533277663,116.192853894203,677.73600201223,90.6758451751948,1912.08622851066,151.347681327462
647.66509861778,59.487830715287,968.661787353702,369.928422390505,835.94423026454,145.247433094067,296.643103583161,49.0781235739255,456.17529395218,82.8861629584178,293.03312980568,67.7681982091111,246.964735037409,35.4880833767202,1059.07294316365,172.189449680683,444.006708668713,155.690468641042,738.900539502488,75.1792819397931,390.362272206357,85.3443137318457,1130.15670472322,327.679401975345,328.85304399468,115.105889482678,686.706212688799,90.6549701981613,1957.37491247948,147.343871296451
642.390082476123,59.6481675133909,952.518120896966,371.457466929069,818.348504390521,144.781342928279,294.154069829853,49.1652736841269,446.913913187339,82.5332264733213,290.151492085991,67.5618089920359,236.729566745019,36.3276023848063,1046.87275163503,172.471787863209,436.105652426204,152.151188822892,722.545457539385,76.2548909596621,385.873604102638,84.7874605161058,1092.90832827183,322.172645763287,322.455719594251,115.054662089475,677.527674363523,91.7442826926576,1904.47522455918,148.528404510289
645.61054820951,58.8521447784123,961.510237941529,366.672835292062,827.331207747711,143.34520933058,295.540052313531,48.6883730598644,451.327388320298,81.9764121508603,290.867126271896,67.8505077630633,239.232210209698,36.098148045487,1051.40046902333,171.232165281475,440.475458922874,151.976777637441,728.641330430145,75.9961317455888,387.584521883039,85.214212631252,1129.25794975532,308.204005304165,325.188258340599,115.551521308576,682.316396346951,91.4223291035196,1924.62773127144,150.347622356634
648.210043857365,59.8553674861407,967.217386190896,372.477454796983,838.709251753023,147.30921043092,297.911640244944,48.9501135245159,457.904544105384,81.6194686445952,293.365902448564,68.2307278974951,246.697192640131,35.9474951396722,1059.36093268137,175.107497332951,448.969353979247,152.669355402984,732.122204977999,75.7669279166432,389.184664173638,85.5694514947243,1125.28019481421,329.651871863565,328.049873613464,115.824770552294,683.674061599677,91.7468036899138,1904.25156235328,148.911787790678
641.777620956635,59.931588376846,957.883557998887,368.22544226536,820.277455085124,145.062815276455,294.541944760927,48.9963564444964,444.523511737243,83.9562650328578,290.200066114379,67.9947328206857,236.577896599729,35.194117079884,1045.17810241169,172.580004756237,432.033772263202,153.657272951819,719.712406195142,76.7545022146639,385.109083704217,85.4226243564241,1077.88783193795,327.360527088179,321.871837639854,113.802168345129,677.204273109206,92.0727607035658,1891.93702486369,149.80356336809
643.153693937506,60.0721352794397,962.238254982113,368.030120353509,825.842785310098,144.094762402764,296.051943582818,48.7835263370941,452.51543080776,81.3143747531661,291.132873566848,68.0016038876548,240.856230335258,35.7472427815202,1051.89207436162,173.235382256172,438.776069023138,153.279248385944,728.820420203509,76.1403700928633,387.243923946287,85.5848891041606,1108.23925367265,326.274800269675,326.695088363429,113.322257130578,683.141367265125,90.5368142760495,1929.40221357385,142.974291162357
647.321663156517,59.7395362647116,968.509005744442,368.161276038875,836.879115901386,143.875575404568,295.396381867345,49.102951736224,447.162873541554,82.952099294076,289.420683363453,68.3268757978552,237.144238007707,36.0354842226087,1051.58212321247,173.888209623649,434.889826783615,151.065390694022,713.407246634253,76.630420910541,383.061566605925,85.5197672791084,1057.33392832959,321.605437281227,321.306935714922,114.735208359114,674.944024568098,91.4797375454178,1868.27573168712,149.377079420242
638.264061254455,61.4430194338435,953.622009032337,367.548234915535,815.321611365701,143.73438262692,293.861866812533,49.2486073663669,446.001578884341,82.0806928276643,288.468363594535,67.8570978896211,231.540140852525,37.0559228690073,1044.10875944707,170.682872252806,430.811863093331,151.135661074748,714.342962623355,76.847273610927,382.640265456141,85.3354411670249,1058.25194770582,327.956628868611,323.235336726436,113.185314498553,674.309550728273,91.5474327758734,1874.03431315243,150.164356048711
641.968075372447,60.0147315443559,960.887742266065,367.982611877907,821.626937758703,144.283807525153,295.687198266276,49.1737279807349,449.256124064399,82.8542378166982,289.20769278648,68.4724356431394,237.61392908098,37.390528030177,1053.90908226564,170.905179001223,439.300909148138,150.732842127841,727.937479956148,75.5726007644168,386.782942641587,85.4158518839949,1104.34685387641,325.651503914427,322.799387355038,116.107898390391,681.333774415904,91.081517335153,1915.89323460788,147.810683763554
638.035549881399,61.0032428407446,957.796012353822,363.580632685521,812.041777366098,143.858944578087,293.415680770572,49.1181178147125,442.16912731207,81.985987942493,286.344324925341,68.34316178949,229.230875784103,36.6457885673276,1037.98270172584,173.592746359204,429.11671277255,149.830687305396,709.912084727229,76.4471575209216,380.2910332171,85.8570430766678,1056.42328049288,316.293997824766,319.25741740375,113.674648421161,669.528410305834,92.0849974158492,1853.69856034228,149.73846111131
636.642684728593,60.9741537733935,952.298514278714,362.429381278419,808.022425682336,144.68032605632,293.779243841116,48.8624526330036,443.482342872295,81.9242023543462,287.093757050908,68.1424796823071,231.453890204908,36.4113912589303,1035.28995831856,174.326974785928,430.457915197673,149.572589872455,714.25718270485,76.8507363434346,381.025798246416,85.6539442905529,1051.53772682128,325.272645025883,318.375166638146,115.94580678485,673.179301779552,90.2068712562484,1866.05243747168,150.512767843408
640.917573421854,60.7663322673422,960.126364828429,366.011886226129,818.965679083501,145.905439652076,296.219745300867,49.1852084802207,449.837749901956,82.0216043691988,289.027445934173,68.5051440343106,239.588580991908,35.7077952413661,1047.13809569945,174.583765466736,437.234061249073,152.234389304313,728.063871404241,75.9137799255546,385.432451855222,86.2933201947802,1097.4007263558,323.083315109526,320.673942083177,116.659865021278,679.207528850979,91.0804672565919,1907.35977054834,148.994978262136
637.044929180858,60.0866122733869,950.306506765797,364.405835191689,805.872887116483,143.102946563314,293.782262988413,49.3870243979067,440.78445719045,81.7627638082634,285.511117835835,68.5452381222605,229.626834102024,36.5474549334633,1033.47676421961,173.237368450329,427.842253630331,149.600473101372,710.965388474099,77.0824206003666,379.375657825161,85.8905246214509,1058.62048029238,312.56946529454,319.080842280678,113.89981230728,670.466506262036,90.7109192299267,1857.37287636767,150.876606087951
636.283634189527,61.5209527293385,949.78105244871,367.456303580603,809.192432090199,145.005557564948,294.539630243825,49.5655145644586,445.930711573004,82.4719649956933,286.519552445802,68.3070744163859,231.071099645309,37.5864788357151,1038.41263844268,173.031729532356,431.818150326498,150.242678293934,717.345147307723,77.0044804250484,381.718276296895,85.8250688102052,1066.28468732259,321.251388921995,316.188125051664,116.822431546169,672.209881171166,91.1694673244398,1869.57203034824,148.154437619363
641.28333156039,61.096641643329,961.472490422602,367.488670829754,821.465777236597,143.906925655035,296.401963456879,49.6014420110577,452.707249566289,81.1325336081818,288.682983040067,68.4243606239319,238.642265941569,36.3385105270005,1046.8544667851,173.185703928856,439.252027077354,151.332648409292,728.496607159367,76.0634603808291,386.0662207572,85.8295294219793,1092.38275638107,321.689806870647,324.926181026256,114.428793158846,679.702268382102,90.1551934563549,1895.29525027238,153.069030705596
636.052539140795,60.9294768723395,947.380660454457,370.384340434786,806.447424856412,144.567826812986,294.439997857076,49.1893723421002,440.738934886383,83.3726483449479,285.854293432754,67.834489242094,230.408626171406,36.9257959314607,1035.95246817764,172.919388251267,429.294095392465,151.0781448328,713.597491561125,76.5220120116071,379.861650807622,86.2240221716413,1056.21112172332,314.19389640962,316.287837147102,115.446133170117,669.95703853306,90.9684911214618,1847.91583414516,153.924732160187
638.253576222581,60.5884547725327,952.842084530355,363.360594121776,810.861115772538,143.771485623976,295.118673190155,49.4368040882703,444.147448144368,82.6246716373442,286.528750118435,68.2416999675303,234.705699017217,34.7270483009889,1040.06079216337,172.57833910838,431.303682923437,151.505055595904,718.830786722826,77.3902765824377,380.711740008527,86.681261149621,1074.66458111392,311.868018906944,320.32095912828,114.619493217213,673.748387637959,90.7408368266065,1869.74136687319,153.199016845551
642.770405532748,60.3192779958372,958.383376531998,368.241016493184,822.597697291644,146.239418076807,297.074255524486,49.3298318574673,451.046367359881,81.3047397008726,288.364678623111,68.4751740638302,239.152242176481,35.9796775693427,1050.26912775557,172.693973973853,438.161106617982,151.272550893687,718.926882422841,76.7740061780075,383.182582587584,85.7086618288778,1063.80670208413,329.802439178907,320.400212300835,115.0177955686,673.679523672553,90.9843860013862,1846.34767409557,152.881148936937
637.225869740784,60.8211471752733,947.410295689262,363.420997926598,810.894749782371,142.035980068643,294.104168826256,49.5776557229024,441.411220880462,83.2560670405468,284.892635063454,68.3864708705637,231.306073510138,36.1988102349215,1037.07595767722,172.823442355506,431.51845426494,148.291459904935,711.759885173666,77.3290610896662,379.827291993961,85.8128538705578,1047.22790219164,328.505934824949,318.367965496767,114.377640085083,672.004421841909,90.3658667118265,1847.77779736615,152.734943022756
639.77348985667,60.7109171367819,949.601386393712,367.780981423813,812.462122937503,145.148268882721,295.796115887558,49.3954955851483,447.148636887412,82.6634411929711,286.678198602347,68.1657338086027,237.350035612168,34.4987160128708,1042.13680369075,173.948571993915,436.74648935344,150.142194418276,722.274813366864,77.0133196555341,383.142232216954,85.9071352945694,1089.67705083213,317.152221502767,320.908925130782,115.315021895148,677.130982950691,90.9065339980244,1889.73646779167,152.247597454034
645.712357814172,60.3856224807501,965.498923001596,364.584806600099,829.122864209187,143.546588165013,297.08103727635,49.4472219744804,450.365204642168,80.504082959564,287.359847392489,68.1433513672818,237.694759990386,37.5233153494113,1047.37470420023,174.517517435395,434.199955060059,150.616933255249,711.96232746337,76.7175142712064,380.512381895192,85.8546928372983,1060.43235803411,320.135220060835,318.107793556137,116.411583257565,671.183539157023,91.741166982662,1849.15561473212,150.528402795174
637.763904046884,60.7213748037396,945.98047541605,365.763403029543,808.414884332946,144.562582329484,294.083621678416,49.2681297316742,442.487251918588,82.5557428307248,285.395894338116,67.9219720336348,230.155581556526,37.4688586639968,1033.67206477669,174.879238543823,428.833586148838,149.709239801636,710.584680050047,77.210521231479,377.791520655532,86.550767809428,1068.49542537599,308.764183716172,316.422388868353,114.351593160525,669.900740468368,91.6308689203507,1855.97631153805,152.648914891012
640.474997666947,60.8833006732162,955.277006836536,364.774517167626,818.163302803591,142.946916877917,295.755430738613,49.4343042745041,445.463495729239,83.5173476784275,286.802461826033,68.4988412623287,235.389054454079,36.8058555425862,1043.36169937106,173.590690899339,436.872682406843,150.498665039097,723.26635607447,76.6460454925682,382.556360348084,85.9669263618758,1092.26885384002,319.224556338819,321.406440966669,115.337151641404,678.319354363627,91.3275237435322,1897.60933863244,152.422737870752
646.887081132021,59.5678366833898,959.546668205032,367.49322289547,827.760065446835,145.250417473267,295.42862885772,49.5688719520373,446.030853950884,82.2205445236549,287.489112108092,67.7683636945588,235.467285364743,35.7272913085984,1044.63582499097,174.74968338763,435.05161925896,150.585891477857,708.577648040723,77.246405215004,379.104433339429,86.220030100006,1048.33065686092,327.603807631447,316.734682183482,114.801283779513,671.481819067149,91.1104526604773,1857.09707406555,147.577704555098
639.620163846814,60.1113261087452,947.329065936814,365.292038324038,810.427395128846,143.334427903996,293.61919760499,49.2372549363685,442.717451371216,82.0062622074314,285.625581558649,68.3118987234181,232.706841994564,36.020419701727,1034.21288052552,173.02721956519,430.807247768335,149.889825903387,712.059502483482,76.5259924088649,377.493145874728,86.578901006221,1075.21148547301,315.690547476634,314.994752132017,116.693081732568,671.786385495287,90.933145526865,1867.21927373651,152.481644599156
642.336499962679,60.3078838339132,951.56838313555,366.211429391552,819.936347433211,144.183779891472,295.29446887732,49.5148392429057,449.19813222446,83.3649825551946,288.052552893984,68.3580599697021,237.034567880905,37.1840937001439,1043.74071710402,173.954677188801,438.513069008976,151.498803068212,725.122095930919,76.3861145271332,382.804764795388,86.2548864251668,1106.89766934078,317.215476093788,325.041562414958,114.906805602331,679.389887795596,91.1772996787778,1914.17747528889,150.600848986172
648.864122038553,59.2141612462016,969.079028414758,363.493727202736,838.843347219912,143.156064846924,295.92573798331,49.3218389531024,450.015714911022,81.5589281075375,288.11311210116,68.4421586479782,240.392525777165,35.6586289589477,1048.44423028414,176.435649569644,438.835549278023,150.640087106771,712.866732118308,76.9611830124584,379.460727055574,86.5494855491654,1059.09207157704,330.949721864877,321.949532936459,115.15554098653,675.392142545795,91.4020584815346,1878.13366487791,148.540990009288
642.005954303357,60.0042057503677,954.474723911007,365.450205953767,816.012810319577,145.030199367579,293.753428265209,49.5907690549003,444.892673529571,81.7397046770813,287.848244564478,67.9168977879872,234.957778394393,35.9791862443312,1035.55074224436,176.596434901625,437.277182989502,149.147899479344,715.555505873435,76.6296923204776,379.364593333168,86.0619056845338,1091.83141757236,318.388526885058,320.081832286992,115.772824888891,675.235803023813,91.01682988304,1888.06583425916,149.085715486038
645.422567268029,59.7642412066399,960.756649897237,366.304338888142,823.513234398451,146.712373543753,295.79158176161,49.228897707452,451.986772156441,82.1313310622412,289.993051896826,67.7495558671925,239.328905883994,36.6824521462219,1048.12367420886,174.321504719097,443.599618063476,152.337007600157,730.1817532503,75.4270270602274,382.292773464106,86.8882718232716,1112.72605602583,327.877195888577,325.048935864147,116.626483583667,683.498684004083,90.3165080427834,1943.0490756616,146.174909018008
652.102232468081,59.2663856489741,970.617666324191,365.002681021395,843.794163513334,144.572082683123,297.660392630983,49.650423351729,454.857049401453,83.6532473810057,291.08104916908,68.3652498206538,245.316022558796,36.5713070737089,1054.51835150056,174.773250082523,445.119059074509,151.52618535087,722.330387266965,76.088788701865,382.322618305874,85.9466770211173,1104.98975255995,322.041789265412,326.522939280241,115.394889009723,681.401260178082,90.1037822196506,1902.71520870628,147.412102577749
646.019107758939,59.7618643116035,961.211107922519,362.904773508468,822.403700499451,145.784219947316,295.230787652475,49.307368170061,449.357738588685,84.356497489748,289.935157133641,67.902233510979,239.279470454675,36.1636967458154,1040.91618806548,176.120362074953,439.574369591526,153.425987368495,722.392100066922,75.8309070847587,380.542548039902,86.6390404517387,1110.86640369945,317.0073879783,322.154750962138,116.435212534478,680.625525994177,90.7427715092633,1913.4179908955,151.61748759896
649.898025569814,59.0785475124872,965.194891402512,365.620416504989,832.567873963457,145.589757448654,296.304009567218,49.2519080954912,457.209555559984,81.2477209402228,290.822903202294,68.295391443103,244.825322077389,34.8174343572518,1050.39590081615,175.040502578804,448.211395128325,153.369180960767,734.401674357251,75.2055959213615,384.810839671469,86.3087824762471,1140.66196064679,323.86112323496,325.825427646348,116.373239864399,689.555545206204,90.2748793951852,1965.85680578167,145.753966375149
654.375102214104,58.6672604353122,979.040787856546,364.600281810864,845.986162877417,146.390110166571,296.066426274826,49.3121033202046,455.74010960378,80.3083630832842,291.490364031294,67.7868884434589,245.63300675252,34.1725189663238,1054.51742058869,176.571279905582,442.3492117992,152.710925176413,719.74785437039,76.4895214589555,382.439744728186,86.2075414835735,1104.77135743565,317.204275766767,327.604744477009,114.232405397461,683.792327039758,90.3587183393474,1915.47822338099,147.413248291315
648.101221870351,59.5109472570448,966.723496255485,367.835291034534,835.008842234629,141.375667787638,295.360347351233,48.6760097575185,450.662383144868,83.5161832449254,290.776418776186,67.7355054257406,239.89134083052,35.8768108315211,1049.04106127205,172.658568037935,445.607465722357,150.410483531221,725.091875025249,75.7368637601952,383.704446134975,85.7437730983559,1107.93877013531,326.018242394778,324.632319861305,117.210721392233,686.920017983983,89.6416807787273,1933.37574013379,147.46489634095
652.775562613077,58.4852620941699,971.843803526471,365.788824130034,845.794747328475,143.106157994467,295.897072594052,49.0550584516813,459.423176294534,81.5520421342058,293.278014777846,67.9851667355399,243.698460641807,37.104172781104,1055.48976946729,174.659310302833,453.036566259588,150.888941942269,738.934518379051,74.6125768025446,388.708763280769,85.351117272758,1150.04748164372,328.609670487816,332.056416805729,115.940564545308,695.798696068224,89.9084797379496,1988.09498610257,145.724133549417
657.380843750318,57.2361491334784,982.646677982593,360.816811658685,848.253601411012,144.849660361241,294.717358253678,49.1161676948561,451.841504794136,83.8174986920201,292.932263962242,67.5730109029707,242.033045101193,35.8135725132964,1055.7247792232,174.59190514937,446.375735424185,150.709401776966,720.546906935904,75.6417116094827,383.655921276358,85.9602582886876,1127.80373311518,312.448378279774,330.485771688579,113.825597775254,687.848355898531,89.3245576753868,1930.08438146453,143.137098256716
651.132542804233,58.0144974346993,970.413917924658,364.464275875686,837.05517469776,142.438607963779,293.588114798325,49.0824916200461,454.984497775739,82.4070766886678,292.713462973117,67.5163582213886,241.986602781939,35.9351835782544,1049.45048503048,175.465080007771,448.422524058153,148.74864531134,726.757473534759,75.175246168348,384.166227051052,86.0407686075594,1113.70524280655,326.326249200671,327.528154369392,116.252364279657,690.295297390672,89.8474268142685,1945.94372828628,145.113445782858
653.609197231074,58.5340130251983,979.343563710864,365.059889770037,851.968809850738,140.382875416485,295.905093134915,48.8763027387132,462.006543254666,81.7421841969987,295.464825818965,67.6282522545263,248.234821780427,35.8798374620097,1063.11760051242,173.679288280767,456.808874753065,151.145902143819,740.615244126488,74.5740917424254,389.876468997502,85.6103867341178,1151.92956982762,334.425746449306,330.90624782049,117.009010954108,698.433647377097,90.5248043135501,1999.52619431686,146.389123352754
654.323152044443,57.5730792486501,977.005338047743,363.721703218651,839.877988890476,146.617678923005,292.959019709298,49.2120943065361,455.490642628637,81.2365610803446,293.150694362315,67.1088571480996,240.015893782023,35.9217087011763,1055.17712436314,173.596537502252,441.720209681351,152.489307022035,721.922971342167,75.6355982992135,384.193957029192,85.9543189541843,1121.7189511036,324.377835154399,329.667898996118,115.777541454343,689.035144374025,90.3888297153351,1934.09586934394,148.34256797496
652.034173356699,58.0030393407592,976.372385046981,362.15810036695,841.567087072194,142.40419397008,293.164798930764,49.2829545766038,459.364598520584,78.8725600083164,293.706150992762,67.4031734445197,241.417575061944,36.3470120746214,1053.92637300259,174.408259440305,444.385471936826,152.420603407926,728.513605531351,74.9534102945136,385.221978242755,86.4265473330424,1131.82687734978,329.378216351705,329.316033959679,115.885974877184,691.973598869168,90.460771916369,1955.57220488613,147.264909196079
655.067250618848,58.1894476486116,980.729980094121,363.923334125912,856.752166792605,141.713128231125,295.821996396193,48.9586599712893,464.022604989116,80.5311373752256,296.50446452745,67.1104425157933,250.281319720177,35.687123457755,1068.2341177415,171.760457332493,457.087857668202,152.379941452599,743.076696550182,74.2585342177151,390.553681366048,85.9735848403852,1166.32024865752,327.534118929673,333.55867238544,117.083623367039,700.690290105192,89.9653594080606,2014.81986847603,140.450323961357
651.080359576364,58.2087042739189,975.191050240722,361.317740320307,843.330282708861,141.79485110301,292.923433739996,49.2526341789286,455.34191017621,80.1601031076387,293.620943117271,67.3667136222554,238.346568521562,37.011115225268,1058.34976641147,171.2179831279,445.246333748495,150.607506571282,724.777008509987,74.6190998817993,384.403765876637,86.3524889786453,1119.64987844586,330.83587239149,330.902821426925,114.843124718044,691.214405413269,90.2094252239808,1949.0068770924,144.72209485734
652.38807962706,57.6083918712432,973.878567674995,364.673348696655,841.935260904169,142.453485490914,293.994936491848,48.8491079634676,454.808454312837,82.1815658240728,294.529398500949,67.3730946470459,241.723978522369,35.4282293855657,1058.9011648983,173.982260332696,447.772867025947,152.295211834328,730.776717674382,75.012784847261,387.139694393983,85.8955903833114,1142.67337786883,327.618737651327,331.851566783634,115.500649878302,693.652196254576,90.2802187460674,1971.2000852003,141.395226546072
656.680058845021,57.446554264865,986.273955666523,364.457187432488,858.303790249477,142.53917885571,296.678170291626,48.7021744179228,464.197237863585,82.8535020609626,297.296538716557,67.1576300284199,249.295359017519,36.2637113184267,1072.14328011877,172.669273053002,458.093473021899,152.101468570454,744.556089696559,74.0091256902568,391.404083179857,85.9751519712246,1177.32363784742,334.147921513694,336.361463590224,115.870135093312,703.246601055514,89.6447557421912,2021.18913511135,139.268832721738
650.272086205229,58.2104913499611,973.263308175274,365.245511635431,841.957069648352,139.737809153353,293.863132545299,48.9360201081608,450.732943940058,83.0248155880527,294.265914991332,67.2492367002141,238.492165620314,35.9141241652936,1056.40284725685,173.114687915589,444.164998231913,151.913789044026,727.212339657641,74.6576688422023,386.490903277326,85.9261590293579,1131.29375515671,322.001732926532,332.818149037121,114.683659443699,692.001685011885,90.2596545002195,1952.74259164458,144.823086965516
651.571701555643,57.7674597614569,977.886925634699,364.441183375462,842.705306027514,142.347961325233,295.095766741516,49.001403536847,458.117638052955,80.9672858330056,294.424850589194,67.5500676498548,244.658328920383,34.9135764848637,1062.6200596148,171.838747784267,448.01422377995,152.877812119129,734.104495911221,74.8578868011456,387.71998246145,86.5833718980079,1139.65174604604,322.690675208966,332.305973940885,115.933733274563,693.796413079915,90.4426372213623,1968.08988197988,143.791125106846
655.428866610447,58.1154108500908,991.864586921608,362.417877626035,851.506561570637,146.701822501995,297.673126650664,49.2552562894339,463.615774427174,81.100725063736,298.517087258235,67.4270604350598,251.490209820614,35.0828738706519,1072.03735038324,170.9283839752,457.918473140141,153.999392306866,746.458871958795,73.8774547664731,393.201000243988,85.3057040597911,1170.67141106977,328.860292516429,338.059036581835,115.160151737414,698.998930227939,89.6674602696084,1982.07331681815,143.410954909856
648.310763647682,57.8739449946869,971.541564870289,362.371106000493,832.640558509514,143.552399861788,295.262455311224,49.1973077327888,453.089598371775,81.7289328975687,295.997541203998,67.216884081375,240.98696029408,34.9891849472098,1058.8352938802,172.029389906986,448.721771102529,150.398482201566,726.22226379883,74.5457104578673,386.225469655298,86.3413454447758,1110.5286122892,324.300047363653,327.612608597643,117.071759220053,686.209649398898,90.3470912698305,1914.39013784286,150.124905810143
648.381160368632,57.8340084596603,968.635158729978,363.415567622618,836.009894980796,142.153435293685,296.704195414017,49.4230474155589,456.2647147374,81.2677872156345,296.885678613663,67.1248746000415,242.468808189754,35.2208605117443,1064.5879201901,171.337462047725,450.647929140746,150.988925513085,731.661718657019,74.7656084029494,388.209461090134,86.2144818628782,1126.99426204916,332.450106790841,329.989068032755,113.764634988545,689.512953764714,89.4264896348972,1935.10244449935,144.807930341685
653.597043657479,57.5892085747839,980.608863152465,365.092097051125,855.254812331139,140.28268759661,298.861181774037,49.3974452773937,463.835574922959,80.953114261692,297.549536486654,68.0256277137073,249.799495506166,34.9751905227957,1071.6895442898,172.12463487227,459.730821405286,150.922170094582,732.650028518895,74.5631258075492,389.070291501758,86.401401051078,1140.96762765106,318.699628679863,335.212843385867,114.146461762311,688.718758894886,90.2166320723986,1910.83735602545,146.979757243055
647.560083820921,58.4655805978262,969.359561897146,363.494662086915,834.007677249808,143.246557756716,296.554995346426,49.2072439152344,455.119641924134,80.5224016226988,294.724708386052,67.2496352336438,240.002396061967,36.3670544148756,1064.48693632239,168.665216841417,449.002703081324,150.436901337323,723.914767593582,75.726151539777,387.049884542523,85.8374290407002,1115.45851181516,317.861329956401,328.439118459804,116.020682714577,684.406412254397,90.298367126932,1906.20910167201,150.030767342573
651.00954987137,57.9123731704138,973.066210808249,362.266102827671,840.807293936106,141.992571901347,297.970649281086,49.2352939124322,458.996522903053,82.5967848787662,295.126688458574,67.5692536991294,246.145115876771,34.3110091193405,1061.8063384337,173.181203581927,451.67904823077,152.775223114636,734.742634464816,74.3871493253669,389.400050841802,86.2755200099589,1144.08955310411,314.267578101196,333.500740594746,114.105053598569,690.671736452139,89.2982329274802,1944.53364839806,143.421844573292
655.073080440127,58.2064179911889,984.903854000083,362.280855916313,856.27609778931,139.075129491206,298.142045013799,49.3776541585879,454.243238706558,80.8425631143278,295.118729630528,67.0491904505526,241.870117690728,36.1403417033295,1067.62703725676,170.886410303395,448.046955788075,150.610260172162,721.169736406099,75.2530725748815,386.079956686421,86.3009888558803,1100.31390575929,323.815480793126,331.797055042163,114.388063839747,684.84771902939,90.1856136972748,1898.3530402441,148.202601862158
649.475115141988,58.8111589864379,974.271070454481,358.952123987301,835.764231508535,144.176459028276,297.112318075449,49.3184928972147,453.566614312622,81.8446085528465,294.021605976942,66.9120085733171,239.976633907498,35.9386940505625,1059.84747322264,170.911777329464,443.515972203843,151.811872457793,724.274321480654,75.6337185972582,385.901821028993,86.3588486514496,1111.90732601864,316.731258641676,330.142050911748,114.886783310691,684.259793523651,91.2873461079267,1917.13203747938,145.496181420983
651.443670887299,58.9511986279165,977.561607978146,362.092512554586,846.126923873074,141.481546071043,298.78359138613,49.5186691406129,456.306631011022,83.4696020567503,295.000050287802,67.1522496133135,245.157070942626,36.4737867559211,1069.03453107542,171.52827521826,452.994979877749,152.772816733868,737.891884828626,74.0657506629075,389.493718078454,86.2902866772268,1137.26983532928,324.389406680118,333.204017179694,115.012666847471,691.941989308523,91.1439036968648,1961.01294949376,142.402945644131
648.301718512476,59.3087230745182,967.547692485496,364.58732122555,830.712409799904,142.088982743232,296.406855587288,49.6092110610766,452.063481957077,80.4150257308011,291.85514085849,67.4454577558891,236.639552248485,35.7206778772424,1061.27892957817,166.800387939834,440.084894498357,150.687142487606,721.682314188173,74.8854423391119,384.528937309033,86.4412957247319,1093.26885488154,330.637078616447,328.347455884814,114.589860153079,680.016107389627,91.3988329736325,1897.99271047963,149.590515088561
649.796071076075,58.8330235681628,966.649994134206,364.12773819058,832.542487063805,141.661362052309,297.208766428109,49.5683064365215,454.006478998739,82.0488889009326,293.263700119848,66.905781916089,239.155719543147,36.0729476478338,1053.34480482873,173.348268427492,443.95895242066,149.863108769602,727.33067391986,75.2145757687227,386.061411049898,85.9516054876959,1097.83874777592,330.735582502389,327.710027734424,115.533654507287,680.586470126145,90.6993394388285,1908.13925403313,147.485610722574
654.763429958517,59.5307148350796,983.75525322754,359.918929951366,842.660547213556,142.654461880968,299.893906816947,49.7115608172282,458.608727735,81.1448263471842,294.987379084173,66.9384156891448,245.293747276785,36.2053088527304,1065.38953790844,171.396035053885,449.036347367534,153.240380472468,740.034456762907,74.5620882966412,390.415216081533,85.7247980222946,1130.01371377326,330.673432966972,335.068491989325,114.504601933498,687.213208546529,90.1456696543823,1933.2695319896,148.95163678543
648.30859618789,60.9383944656902,964.758439337139,361.476027133041,822.663690779127,142.704772427631,296.665120528276,49.6436078741868,447.133527585409,82.1221329611181,290.844516380021,67.0824540945762,234.339807596356,35.7925560752387,1049.86531976054,171.429038046972,439.669145647457,148.76306969859,721.203463850292,75.2909565733686,384.340917446716,85.646277000121,1073.27958303636,328.100684375606,326.130741930996,114.966233284749,674.495121103021,90.4425240019914,1874.22916028522,151.388869580604
650.674889755561,61.9351202710525,957.97475229796,364.56554721564,823.867969541931,141.76264992848,298.020895524957,49.4261394705269,451.349091586804,80.7426003847564,291.231900708746,66.765160336162,237.148730035354,36.2366632137458,1053.6543412764,172.294675449583,440.326924932072,151.427755504536,727.552407093036,75.2755924178219,385.196594451375,85.9274760132193,1084.41438117695,334.863412835163,327.296701866797,113.499336338849,677.329636613796,90.1558534879623,1902.48460202832,145.401850904298
656.95849114863,62.4298423209238,972.671925472457,361.914205942633,834.770332677805,143.958686417933,300.70594025722,49.1910008985026,453.464117108491,83.9288442785663,292.316874912511,66.4731723815066,242.069685465088,37.2506782880618,1061.79688760895,170.692364155971,445.488165843411,150.645312512899,724.872098973855,75.0476942450907,385.620823115789,85.5180562280899,1094.39366340696,326.724974718481,325.940848610152,117.514474687672,673.870929728267,91.1322909352902,1867.82512625678,149.000498926332
649.54012881067,61.9513464181136,954.43618223448,364.671901733406,813.242278263534,142.603224795694,297.040441327054,49.7475344458127,447.888263121442,81.623840272751,288.575247964111,66.7638593297673,234.638250697889,34.714516733724,1044.15339113652,172.6572643034,432.616664234278,151.368144182611,717.434985738006,75.4990378346981,381.299037249144,86.5777222314206,1058.92385675906,332.02464996752,322.071260942522,113.522434050497,669.861049097519,91.123716745239,1856.66172018275,148.889662954884
650.944122282317,62.6912336546964,956.928966643285,363.634554158433,817.538928805615,141.089735222568,298.727675007888,49.7770180088077,448.597734533637,82.7285157477873,289.87283135862,66.4722085463665,237.997428713651,35.2309157838468,1053.09952077502,169.837843899386,435.170152700821,151.966891699285,726.25862066449,75.4418000543754,384.722937548232,85.4844273364567,1078.91616052687,324.265118857731,322.981450728595,116.656855537114,675.27721267902,90.9906317293202,1881.37070315504,149.218655951627
654.380205851579,61.8343288466734,967.535868312399,360.242543077961,823.42971636634,144.926145831978,298.251667825446,49.8062054512018,448.12429718247,81.2919580614193,288.967148292354,66.6320704821621,235.388046874336,36.3546759323402,1053.04560125072,172.04543299923,436.054437955628,149.028288137116,711.898078307498,76.1043261953977,381.332601801604,85.8360257047313,1041.32446005488,328.010877829286,322.419048030489,114.738319352757,666.260997133787,91.7757614102786,1826.43878041108,152.72623081338
643.959084562014,61.70792266569,946.215458953075,363.483657598332,809.360701725599,141.971353583895,296.764263099481,49.8332323891393,444.198309437611,82.8198677879147,287.537616641144,66.5547000487891,231.30894997648,35.9018743936619,1043.99352706539,171.262855761962,427.410225595363,151.694761143136,713.842408560729,76.0196736617848,380.567319279586,85.7508519151664,1027.98468003617,331.967267064982,317.759556586315,115.135959400107,666.619001736411,91.3571508267712,1831.92838660919,153.288796815297
647.577989339552,61.1781255988288,958.143043209762,361.971346263009,816.948383890511,142.69989518504,298.822240469689,49.8775345967049,451.104663691869,80.4763901449665,289.325606992058,66.7696216014754,235.694254600114,36.8996240016699,1056.30825762982,167.903783730928,436.186433151185,152.567242329508,727.121063418129,75.3470841851379,384.892597499591,85.6540950640737,1070.82776435231,328.892900093123,321.393241086353,116.936135984676,675.312468618805,90.9527666926783,1880.01755488076,151.106753918103
649.226863455134,60.591366112376,957.140935706435,363.548023898188,817.162193744374,142.525587400829,297.56466250227,49.9786663029911,441.932464426166,82.6253313932064,287.813825276134,66.4279550864522,231.175491141245,36.8239150507444,1044.2931972172,171.096665588357,429.299084081709,149.557687629939,712.191252417841,75.7776292300247,380.477107708071,85.5684022480851,1043.6438773879,321.287318956165,319.077736919905,114.395054625388,666.288164694156,91.9084091008252,1835.50174794308,149.056788462049
644.53914158705,61.022699148727,953.728592934337,358.040144697867,809.931017507371,141.754204220747,297.462621930235,49.8401983857451,445.129924808418,81.0764647497459,287.976267600432,66.4018992530414,233.125743749474,35.2809289498034,1042.60002620487,170.601292064744,427.940211838863,152.320019043689,717.97692264902,74.8196205529662,381.297500729899,85.8850581675361,1055.87285628276,314.868017823755,317.971663761269,116.099314721625,668.854819975847,91.5040044379452,1839.27656248051,150.812756637547
648.753545934884,60.0037558770467,963.916281258526,363.295779866025,817.681651984249,143.676792044752,299.369455548541,49.7437562890335,451.97670180381,81.3046431136918,289.39101217759,66.9492819254634,237.423764664409,35.701710123371,1056.06781625725,167.948268092219,436.408230867964,152.94559636964,729.296366323002,74.7019608087548,385.201475931442,85.8476715885594,1084.06930748151,326.179132866708,324.329135861842,114.971868193773,676.699479100745,91.3305408531418,1878.65282520128,154.63827509082
644.112538382206,60.1604993938017,944.312071263972,363.439931030588,805.129654070818,144.504964459421,297.097144513769,49.6085037925221,441.879453991189,81.3847038815018,287.391127323538,66.1938207588053,230.338386240857,36.249324133331,1042.68445109705,169.244376088656,430.197349846468,149.710101651559,713.978110087701,75.241016943121,380.65770597683,85.5587317258267,1038.63896391283,319.267027552276,317.616211937224,114.223994838611,670.710990846549,91.1657149110039,1835.57982762862,149.776959181136
644.729265717649,60.5844601122266,951.298767473495,363.6176530567,806.254769774617,144.82885282035,297.726022359315,49.5492204482152,445.647033653167,81.2572599825498,287.763451304865,66.6968918162202,232.824302958164,36.2272055279824,1045.46066633501,171.056630394333,431.024618334603,150.647773627871,719.781971830086,75.6153385621146,382.768925870053,85.7850599141869,1054.25075474154,320.947638194544,322.287010146177,113.791670497609,673.38002908654,91.5009941712647,1859.6624823006,147.51479231634
650.717978081932,59.515070620386,961.382378178326,363.798050129494,823.661708961363,144.552523719668,300.379824161706,49.6132387288602,454.161176583096,81.0132853816439,290.592682934746,66.8053698790755,238.874742622439,36.923449630035,1061.62378295532,167.147499948564,438.890166984627,153.007565966099,732.915038421562,74.8798445121854,387.825358468195,85.5104944791228,1094.840393286,326.732262669558,326.469977026592,114.796896213533,682.302995440934,91.2466959991772,1892.22272474301,149.478655453452
643.38232399926,60.2691205604533,946.601939650975,364.187224104998,801.847013667417,146.925026236711,297.106357854068,49.6434135249981,442.253953564392,83.6109012136193,287.711706767723,66.4850738639983,229.967643051787,36.926745441633,1046.94358954692,166.284196607886,428.635124663939,151.286651151817,715.749427616135,75.4156063858136,381.363716243228,85.818156529602,1042.34607809208,327.294977605997,321.434347857575,113.036613080944,673.671781825283,90.6169894538106,1847.13629648577,150.040533428945
645.708177714103,59.9091950555334,949.255063915329,364.664151665922,810.801551654796,146.690233478694,297.735382271829,49.9304076248694,446.478476119158,81.8898796571294,288.789697335929,66.8344183479024,234.291228979702,35.1521577528564,1048.43089767446,169.977360811124,431.823151459221,152.417966544842,725.627086680817,74.1365128333568,384.389878008827,85.5909081658743,1068.38730432756,325.920650049521,323.576307131114,113.482591353257,677.182709945023,91.4796050414288,1873.77259669562,150.327957364877
651.290724845048,59.3886651106048,959.079240812054,366.632622583707,830.898347005999,144.283279681438,301.078459041002,49.2786200979448,455.377312060083,80.9243410944651,291.322422723918,66.700425807132,241.597863884268,35.4261499133891,1063.32976990902,169.100666869982,439.246220654813,153.946304831797,731.602088886321,74.589860800741,387.084666604872,85.9417026371483,1095.71940233713,328.643795771417,326.474058754479,115.567308978207,681.351688563309,90.7403298277751,1874.97231018345,148.651464019008
643.71721834788,60.1868880466226,946.579782053056,362.65629574989,810.27601556743,144.890621575059,297.167186520301,49.7053600304641,441.549729164211,82.7091067269763,288.690488040308,66.2968685898753,232.530397737003,35.4269617328271,1045.679743616,170.762883380192,430.497426943615,151.819017837203,717.367250642807,74.9485069941355,381.595812505647,85.6958495062646,1055.81057729023,325.418113462599,319.556284757919,115.44497736687,674.811278675299,91.2392844849734,1852.67835835688,152.220026141243
646.022883063632,60.0673932354067,951.184825838149,363.506668755022,816.108370908141,146.058724925107,298.265799192276,49.4533329629396,447.868806326534,81.3771502637134,289.454672513639,66.5930759958371,237.304919310274,35.9709322834655,1051.83124232369,170.608774300373,434.139492527172,153.727863826972,725.944380317181,75.1225972301402,385.572823433328,85.3861280265555,1080.22168062228,322.88936587326,325.386808729719,115.673073245541,679.764978327264,90.7486315448349,1886.84660866503,150.704555209019
652.619513629582,58.975819669561,961.77248057131,367.526723289502,836.436937664104,142.831654266504,300.085815740913,49.6600512266609,456.094795644441,81.3984369624071,291.688259149732,66.8678771963365,242.764817393753,35.3403275352684,1068.45515478794,167.636250516128,445.782682005201,152.065540268633,729.003403238653,74.5833758122151,386.936763825428,85.6924847438545,1094.44311750949,327.493163756686,327.637262803081,116.485536538631,679.873769993404,90.8132340824195,1872.733929481,146.111929173175
644.442868629228,59.660048800362,949.390364785602,365.371374099932,817.472847246971,143.030036223464,296.442970323218,49.8731725371379,446.296157510261,79.9772452959945,289.220424813494,66.0243869651156,232.915102963232,36.873165572525,1050.64710225463,167.792272291494,435.835234263866,149.004480040801,718.485897038083,74.6975703069104,382.160554479845,85.7765907827572,1058.93875723302,334.571741271604,322.287687622256,115.119422644898,675.046128857444,90.7184050832229,1867.28269751394,148.101678855767
647.516538429297,59.5372343905224,954.955586645508,364.535434927066,823.746270311779,144.766456860658,298.124409293775,49.3691737777103,451.026463797312,81.4379957622881,290.614939448911,66.2182786099985,237.917818714828,35.8119567852233,1057.7950223371,168.924923993313,437.285655352674,153.433500279539,729.374932589085,74.5103315540501,386.831806612698,84.990200415552,1098.49802991597,326.333095962724,327.773055296451,114.166005509263,680.584530709426,90.9034431714069,1911.19545905523,144.667272014473
