647.7902023811,53.7599018003733,953.640189874046,352.134146225755,819.259660619469,137.454519306375,295.390581132029,46.7120613897615,445.97878253186,78.5311224002546,284.931007063652,64.8381282653862,235.655040886193,34.249028191191,1040.24294287989,163.673330053695,439.209893768249,143.474882582637,704.220274226657,73.0525966786012,374.554594206899,82.8010924793791,1073.90612177682,312.835358337572,316.724411676411,108.035024644543,693.524536387428,88.857627303877,1879.71854174997,147.006645016552
648.528997816579,54.3572964867842,962.639972302716,351.622243664343,824.313478373064,137.298643349731,295.869016405048,47.0565531305036,447.121775057354,79.0198712361762,285.595253262999,64.9699570946176,240.211989389466,33.9640391591865,1047.52827972631,161.591955001687,440.976355262043,146.977046195675,713.194241436431,72.9647951995415,377.701091325933,82.6851300514938,1091.98808118264,318.545065458456,316.844640410122,110.286903231244,697.819977665106,89.6223977158156,1912.59078678343,142.716756889122
653.977237081453,53.9727170513086,970.441775542682,352.858854347338,842.097165535933,134.820787476733,298.694785168551,46.6554409928081,452.066979571298,80.6983242053972,287.766013682393,65.4330159515846,245.682736288392,35.1938906598721,1054.92828377318,162.729576325602,449.099074523874,147.823282544584,723.964469557818,72.8899346680356,382.889280545342,82.0506042573031,1136.08632697084,312.359042085115,325.147572575411,108.305952991838,708.209530313271,88.4888531502745,1964.90346068795,138.828868242256
649.004800308855,53.8082766903304,961.049095639386,355.293967060831,825.179697591848,136.54317671985,295.725014355101,46.63675503457,446.486497984672,78.7261217207735,284.873195184304,65.4151770906901,236.145879212274,35.625866902599,1040.68367987524,165.436227732785,438.423356970238,146.977299768984,707.997755097794,73.463977220692,376.538260199374,82.9862716040798,1093.85532810522,310.566952683474,319.833871388399,108.105402208881,695.802801726097,89.3451200549813,1904.01225051372,142.043097952846
649.794027063804,54.001319664815,966.322529461532,351.201555300582,828.845001799588,136.654540911724,295.962098214978,46.9995337725095,447.909541115745,80.2437795453709,287.055685190853,64.879324520627,240.788029638694,34.6627941928905,1044.09374956445,166.095832557319,441.372666628415,148.679714421996,715.649684894961,73.1065358353712,378.940807390069,82.6176006474451,1111.61397566627,308.825257775228,317.240172753615,111.085749526159,698.352557113101,89.7306170829185,1928.64411837761,142.61044155042
655.295936041365,53.2285354626065,970.658462870662,353.514075378364,842.492331416547,137.215101354265,297.948955032594,46.9266998639817,455.067865065227,79.833849504646,288.546688113518,65.3933368600869,246.634138399879,35.0090652229041,1054.33143440292,165.205524441402,453.177580938009,146.664429218506,726.599024023197,72.7089211484229,383.450161899571,82.4846597504281,1121.42166655747,321.502639197113,326.190168235785,110.342045083745,708.719129432705,87.907598585857,1968.25858487437,143.863790868016
649.672211775459,53.6062914558118,964.499643411883,351.932344247831,828.953935631524,136.221400150387,295.166151354238,46.6766092327624,445.471978604212,81.6044499152,285.976132551198,65.3079472242739,238.19737652299,35.1144702594798,1045.65512173886,162.601977156023,439.194945655903,146.879250282613,711.178219082142,73.2414823940299,377.798441219541,82.8586927617365,1098.49111679642,317.311327013059,319.706654737596,109.135362929977,697.55509062647,89.2199106282699,1919.70247068849,142.835346619223
651.485510243844,53.5337403635142,966.037893772625,352.485971510356,832.990155025695,136.681446984747,295.855593619539,46.4487391921094,449.253413485626,80.2680758390478,287.452062118539,65.1234194045453,240.069350349506,35.8242610772544,1048.86536254457,163.458942492077,445.013784001738,147.68927503743,717.835254888976,72.7469786526967,380.046973889054,82.5521254183975,1112.67690312334,310.832667626121,321.787396394847,108.556825286528,701.416121787602,89.1169898655174,1944.76808426614,143.660459615584
655.999470704626,53.2162714225414,973.69070885336,354.247677361743,847.249456713012,135.777602736889,298.08375144779,46.5081576614848,456.325799345044,79.7749794255632,289.559196085777,65.3032154950182,247.202344978517,35.4257496695154,1059.71015959533,163.96793692463,455.503119071387,146.505401551725,728.906716665856,71.7903954414578,383.588780571015,82.8002479192168,1154.51716243408,319.875824869746,329.743712107582,108.294266033274,710.954152467802,88.452946746541,1976.79037424768,136.045589565855
650.353524569315,53.2986195509631,955.448814625822,359.352444745925,830.293225022234,136.743682966549,294.772712776754,46.5748564215334,449.211734347001,79.2084902230269,286.380837664464,65.6495211615208,239.0736629724,34.5968388345239,1049.0068709339,162.295251095163,441.039259513469,146.588434195837,710.787523406599,73.6891399085745,378.774430139205,82.2438383431403,1113.5094344814,308.001050437552,322.619994605251,108.19528318828,699.12262922115,88.3873019064509,1927.76571401939,142.61027971464
650.881094882376,53.6861616732556,964.872420162395,356.194392396309,833.275573690956,136.77582414937,295.679066803127,46.2749474011571,452.422859333311,77.5668058001103,287.549286354211,65.3056819551282,242.300221784184,34.3104476661289,1051.14701399427,165.218243356909,446.742159075324,146.627923000451,717.037633336768,73.1657491317732,380.874239565462,82.2647188766843,1130.61560295383,309.801611376689,323.751542093411,109.125580633652,703.011583837472,88.2563506402147,1956.83751826529,139.173596403309
656.745695151131,52.8966636955374,976.236164636775,354.089480729306,845.944655155797,139.458138639482,297.327753415552,46.4456152801237,456.344123788018,79.7208505841468,289.829991841436,65.4786230140436,248.342597432389,35.2867756746793,1059.07601368552,163.774736973264,451.352007636051,149.865250459176,725.924696021923,72.9400501532777,384.026629964542,82.6285506886294,1161.67450285498,321.39246192453,328.932214985342,110.072551690764,708.134726853446,88.1342012469403,1959.60238959643,139.72059745267
648.493670732933,53.8131435779855,961.134191869777,352.630649255343,830.630477940236,134.47365899445,293.430719271326,46.6341203095409,446.063788209301,79.3244729562738,286.515461786646,65.1284553790105,238.434960221613,34.4613883541306,1043.16694498178,167.395120811746,443.835009913758,145.160193865634,707.707293436638,73.5481040351276,376.993581566611,83.0003538509402,1102.04538526689,309.315150901248,319.837487727045,109.719676644069,697.326849942365,88.296369644284,1920.6454663631,140.602410706609
649.244718009376,53.7407379687798,963.057406943256,355.545743197738,829.843561015381,137.544813701937,294.346613491,46.574004620469,447.874057836969,80.0724136841907,287.232366468902,65.1602439789721,240.484579127109,35.302831183998,1049.27348853686,163.924766302922,446.210212799945,146.72689185042,714.464712882268,73.4218602850934,379.402107247237,83.1148105996182,1128.60277125228,308.576111167699,322.588625062863,109.480126055084,700.781977839163,88.2026383131092,1953.93044922261,138.849551812262
654.128497449545,53.2633416630874,969.58758373734,355.936283472707,843.119595623405,137.600648901714,296.925912628753,46.1090020578103,455.56549248726,79.0274870006965,288.579687724869,65.9162687368967,246.68199786467,34.829791673044,1051.5971890387,167.510191931323,454.152320128045,146.818041833692,717.448972368355,73.3950209199487,380.598604442524,82.8159381885231,1153.35057272067,309.589622133703,327.190245680943,109.374967899039,700.452696231997,89.2353513865418,1934.62472873991,137.78300705326
645.146650204312,54.3138854732102,954.240095444171,354.465972137645,824.475745550554,136.243965156716,292.856471935056,46.5773778296538,448.294316487515,78.2377459576477,285.373462939614,65.666185802675,235.807293138305,35.9672620984579,1042.28333535616,166.682567356487,437.011712923298,148.598006944298,704.210397153018,74.4416526276444,375.515493548102,82.8750057713734,1102.0359187919,310.146943857195,321.041008381673,109.354728087086,693.983528768438,88.6420697523025,1909.74093867877,145.38017478139
646.583072776687,54.1502946865043,959.115130077606,357.642374818079,829.515641036656,137.358856902717,294.492596213606,45.8421858508728,450.063040086008,78.5660098053908,286.273780852209,65.6444013753042,239.536039640197,34.7153270565236,1046.48873399546,164.052782413578,445.247268018612,146.444432351145,713.272275462607,73.0445778250891,377.053278117195,83.8464804587168,1120.39091034991,312.440652055936,324.102623898115,108.867581376542,698.633284300671,89.2235880805291,1944.31274008672,139.424993480844
651.741241936317,53.8752848264871,965.832879409402,358.797768854224,839.320811867818,138.032078232917,295.852805754191,46.3197065110506,453.937086985398,79.6565889393678,287.910734734538,65.6766511537035,244.167522019433,36.3123270517134,1050.17878393169,167.991407736764,449.185834216702,148.725242804035,712.486286929718,72.7635140562034,378.112121500195,83.4642526780979,1130.96718942832,303.216150292302,326.465091284716,109.721023004173,697.067627107115,89.3289517689387,1909.59345724137,144.704849624601
644.974060283248,54.545839721255,954.703497628289,354.094281130712,819.74152188056,139.50713645091,292.90059496507,46.2531696017565,446.783268319951,79.7311588606344,285.338144855761,65.7608558795017,236.654652474884,35.2599120841346,1038.927395455,164.712753576742,440.537176476871,146.493144938317,704.801712847732,74.2214247866469,375.798692188169,82.9854247594703,1083.32588482038,313.737041634091,318.430772103473,110.508972437743,693.066430526534,89.2513243380653,1909.10401401769,141.391383170641
645.85345918018,54.8258317479171,957.264476603825,358.165058683168,827.769398490264,140.276377843671,294.478568568096,46.1825041084883,447.754951481993,81.2045666729176,286.433954473646,65.8294897930225,239.945672281508,35.928105119962,1046.12388638693,165.010316554142,443.900456312437,148.644048673314,714.599937211275,73.3954102172649,377.798471803721,83.5196340768047,1114.95382281322,320.73261749553,323.623760687369,109.286175200956,699.825481253071,88.4843433490138,1943.38965172079,141.003117894063
651.741645557089,53.9906587913702,966.05363481587,359.518306476973,841.688423710793,137.012938669833,296.26231849766,46.03643647517,450.640542397477,79.9375208356302,287.20228550344,66.1647378672948,246.888925452516,34.115689895214,1055.24129842912,163.93164727373,446.206834844278,148.263000470227,707.951778514226,73.9649310480333,377.075857059626,83.4331410189311,1110.21699744447,315.949154235024,324.071391153346,109.443662173372,693.787083262538,88.8777927935889,1903.97703905039,142.356595996243
645.541043476104,54.452351145367,952.005287289703,357.855820477089,822.309727778931,138.006732360928,292.9337207858,46.1033097004968,447.476753853375,78.8138271138151,285.00627733703,66.2738966868239,236.074424015608,35.5382293158848,1039.62394716194,165.005226871487,434.798667901759,150.047352228032,704.107812930597,74.0200367543474,374.787501004923,83.6551717050537,1098.10347241793,310.64172818221,321.169140598132,109.500582254432,693.229833861055,88.4749691583527,1901.43408704056,144.915073406089
647.00439270348,54.7055316617786,963.869682054086,353.260013465501,831.618437929264,136.100102539728,294.459277078506,45.7621667951139,448.043638486138,80.3577543427244,286.723619897769,65.8085845338186,239.813435998882,36.6245837666348,1043.10402690316,167.756723014043,443.528338208691,148.908229727612,714.955945844875,73.429333618961,378.724498572775,83.4366391930628,1123.93055624551,314.254082049796,323.2505286895,109.780372515228,700.390490828433,89.4085082837088,1942.45283129871,138.609383325963
650.136856187784,54.0141050612428,960.857302206101,356.860296846872,830.06272245461,137.624284593397,293.480391887901,45.972461597039,443.986628864494,80.3374552575742,284.151574431906,66.1553126799656,238.496170744447,34.2113374907321,1038.86175231723,167.574621545442,439.046601571412,146.295420830061,700.760540912554,74.2284155260829,374.815066749578,83.8746090866153,1089.07372608748,313.935145921094,316.026626837005,111.626910155748,693.812855195093,89.3293996697467,1896.54587960614,142.645021459334
645.662828486515,54.6281640219961,957.311234203839,356.11840484715,827.022229871862,135.607114841404,293.158981492964,45.8388541199526,442.739328663963,80.2026041608429,284.919707221252,65.7829860303467,236.92965691888,33.608838542965,1036.5674260127,167.060885490413,435.380799379542,149.372517966135,704.720059487491,74.372728880211,375.422323091927,83.7352269620258,1107.59916516321,307.721000392803,319.707801423116,109.889653587538,696.256674370701,89.4442336608657,1909.24083132073,142.551020896191
648.870986212733,54.3005762034111,962.915889251806,358.554497308386,834.398854052581,137.416512267598,295.223780626596,45.923823841787,449.524717056065,80.7986246052918,286.379818171479,66.3490431155104,243.177865085982,34.6517498566004,1046.7217965461,166.562192792586,447.496801443933,146.490398179213,717.212228300099,74.0313750386825,379.489532071763,83.8039901960546,1127.15779109392,317.832618924505,325.737616023788,110.043144757122,706.517119113288,88.496901990003,1954.2098163751,139.356923736185
648.402374652682,53.8898539429458,959.733881906735,354.369295007969,829.27804811981,136.13375059762,292.824679054709,46.0226592771317,443.714528299738,78.7238821295701,283.817139571084,65.8801150840913,235.751863599435,34.4069235441076,1036.28025852116,168.654801587893,436.391460940435,146.64822383154,700.530943047604,74.2738747133818,373.608467691833,84.5320684471276,1088.89673915271,313.315499686369,317.292071772506,110.83251940191,697.617733797087,89.5063375962346,1894.79563745577,143.709375901174
646.3224331861,54.5363076422267,956.492541419013,355.759207663192,824.106236807242,136.405362641905,292.749515906433,46.1289171837992,444.423190276725,79.6065292658519,284.300406313618,66.0204103968436,237.586056042033,33.2486566864832,1037.32751543004,166.614120138938,437.772684468866,147.015969698578,704.478358758277,74.6140653613775,375.440286340595,83.3786681449106,1079.06764171174,320.714462713006,317.765599101215,109.846720968936,700.013876444903,89.492445517215,1907.40783601448,142.688638744895
649.554432335746,54.045016107154,964.435333798726,357.892794851785,835.448640296705,137.037079291731,294.772566751882,45.915448867015,450.339261906476,80.6646006565487,286.552131095527,66.0222127771078,241.804290662691,35.2017691783009,1052.05700029754,163.690879867478,442.550868085432,149.734798751093,716.931156198237,73.6413560122155,379.745012082824,83.4506972247819,1131.44751078557,312.624457485827,325.809429235787,109.060585790725,709.223451384819,89.227037227793,1951.65581640789,141.357591201553
648.930542402882,53.7695607366305,964.68375269087,353.229567645781,828.439948660475,137.898888307542,292.559290713514,46.096611815973,440.640981035488,79.7942885883129,284.424463155143,66.1839200680706,232.590687155862,35.9790695065348,1038.85482518852,166.930695013761,436.048846279319,146.820531170989,699.501437636333,75.451172555064,374.460807726668,83.8203719675549,1099.12976014725,303.166575685593,318.676173340846,111.504840475122,701.186231310637,88.950579163229,1892.46713251309,141.688511569709
645.565942543153,54.3021451387157,954.45558346031,357.677334864044,822.333688359046,138.898287057304,292.738332070614,45.7491864501295,441.581804254642,82.6466330994701,284.0987396792,66.0590110534596,236.18824486808,35.8028377673529,1039.71257019477,165.56445433423,438.578876366908,146.799171788928,703.728815270246,74.7783098990936,375.525135432529,83.5320370264639,1103.51263755956,305.73380483146,319.533578383441,109.688430530864,701.249981878677,89.9652256599027,1904.17138761531,142.688044948177
648.845848029876,54.2333831510292,960.330816230955,358.895593176968,837.244771114788,137.016461724584,295.070206564816,45.8035804905359,450.305328594129,80.408832222138,286.143910186197,66.3038871826311,241.785658591988,35.6307536408336,1043.96599993821,169.05000285317,442.714659804583,149.06630745661,716.785555119063,74.199587724215,379.426843388673,83.9280477913487,1133.32848334031,313.466134700687,325.156869597512,110.629584958857,712.406500368136,88.3869942856876,1949.20914365087,143.360763382246
650.115432720191,53.5907076493224,965.927944292114,355.817059682842,830.361383139714,137.173343792175,292.970179487724,45.7425839228534,445.390667067044,79.5628039412707,284.438865794099,66.0076019514717,235.516191604099,35.102275649664,1040.99627453087,165.978578798342,435.69287309407,148.142035311649,699.939524843524,75.3021601138481,374.004414364265,84.1742856231556,1089.05339091463,313.627565514603,321.786257753047,108.93123507079,703.261055050981,88.8033890043643,1897.75394745781,143.183907984882
646.03214610801,53.8049329284251,958.893973994189,355.23615152115,819.897585115486,139.449073434036,292.072882077952,46.0799309256017,447.275628281195,77.9078197329289,285.194332425626,66.0366316054156,235.060895096486,36.5416494730465,1040.36326826129,165.34602434897,438.995513861834,147.488437493657,705.278006267415,75.2911966959805,375.102981375213,84.2722397530717,1101.78971641495,309.952790065867,317.259979913134,112.811458937922,705.629536831675,88.8049187100406,1911.93933752558,144.103820851605
650.474874855441,53.8546524043282,968.389293698512,357.111720646189,839.641329757074,136.844273022498,294.592288290572,45.9041539506929,451.287390822212,81.4129571711143,288.179230396413,66.151926428646,242.310099850022,36.2271204333982,1047.51509975901,165.916839002524,448.324835206051,147.301609126877,719.385986476578,74.0419107329041,379.350448812275,84.115054930769,1128.07881123459,320.424332394767,327.191054534758,110.256692605362,716.331884306164,87.832421234612,1956.38030203776,144.086852624287
652.320680565921,53.926619382851,968.626576212257,359.409797828358,842.917110616855,135.091117406551,293.169319061004,45.9723514872127,448.515943608508,79.9400619250653,285.883980350425,66.443286864194,241.161505595437,33.3461598998319,1047.88986731354,165.726673658758,439.15476782462,147.545829514617,704.045107080171,75.18192815474,375.682528052726,84.1532588849852,1096.22167663113,310.895076917303,320.131779296721,110.8270562433,705.906275730046,89.2172879202053,1911.51296470297,141.511083016419
648.350310747796,53.922986500568,966.04430050263,355.661420273584,831.493533029663,136.461816089567,293.443020685535,45.7151905223094,448.851285430276,79.4527663221643,286.708294136514,65.8818118444444,238.305347576063,34.7934289184713,1035.67082178252,170.198597019554,440.607625376628,148.073595961122,709.696925450032,74.8599567889443,375.591657984712,84.6576634754462,1109.2862147489,311.230182894531,321.072000594293,112.238110740024,708.884987867076,87.9875143544002,1925.07203930959,140.420404085325
652.063410947689,53.4611099015482,970.589535559566,357.957982290823,844.081558192993,135.017411135038,295.187703815483,45.540998273678,451.902685234735,80.5160978661181,288.670323227994,66.2253230732183,244.875651153783,34.432048682229,1048.80891382915,166.409191579274,451.513788535967,147.510807320454,722.045828923736,73.7517033433035,380.54759839545,84.0378906418395,1145.05595867214,310.888290146958,328.569025791562,110.451341337161,715.813817833463,89.026989485865,1959.50399317862,146.269922176562
651.19474170901,52.6363738046887,971.629986220412,352.356062714868,834.82061583242,138.044474019716,292.238132001845,45.6561643860046,444.392169379574,80.1479029153173,285.992618100323,66.6187613043372,235.999736118447,35.8205387237077,1036.55205894991,170.503770758951,439.730237965789,147.078182819487,705.96024429682,75.0051574724726,376.458748448962,83.927467998627,1106.51952193307,313.541011227127,323.533105856798,109.726038660055,709.048965758801,88.7530595725283,1918.41510861712,144.915460196596
649.245595361355,53.8342839324617,969.285205695953,351.37854636781,836.980448508875,135.527004038385,292.507361700721,45.7996426210573,450.60956645377,77.6549516076076,287.843131876603,65.7040216770602,240.950404156719,34.3412572507608,1043.67609056365,167.383026826843,440.242051469745,151.802886426936,712.526745636618,74.8931648568219,377.599008162629,84.1339939125631,1120.24571989977,317.069873092337,324.627263955101,111.575703608242,712.212332798654,88.2691164353274,1937.79398373068,143.654423529854
653.666803434323,53.3368307605564,972.802409273829,354.824009439851,851.519552354369,134.601465080583,294.492808398449,45.7304923672828,455.953569739906,79.9585148867106,289.398961700822,66.200823529955,245.814477756701,35.9862007747828,1055.33346987487,166.4382162195,453.512661679554,148.015330117133,725.645994707158,73.6871622110878,382.575791491202,83.9646160813069,1160.14514897443,314.358970678313,330.943340281526,111.045145960991,722.699815313075,87.7694348724428,1999.48493211584,136.872573994088
649.916496901891,53.1442824621443,965.936765896381,355.825991837277,834.227252765142,137.633240855567,292.168395215475,45.5231801519158,448.045911159413,79.4124700349051,286.972002407012,65.8575333760557,238.998289409592,34.7289725503812,1043.88051957903,165.605288200339,442.6840199473,147.070993396146,708.634323830098,74.3029805607897,376.952141267905,83.9768100040393,1124.07387909959,306.618794185221,324.482556378109,110.824673262955,712.41562215425,88.5705633214298,1933.30931884061,139.965811565791
649.592891312946,53.6949069354236,970.928906247356,353.949197574391,836.782636781438,135.996764530236,292.058746901109,45.4711095357479,449.127415581428,81.9975168346676,287.515585272711,66.258506112573,240.292969295641,34.7554666850426,1041.78965558304,169.555102244114,444.624776021308,149.047033319474,713.205002943232,74.8124240900347,378.516466988769,84.0033918326792,1120.22429240706,319.174262873128,324.793334605346,111.218276495831,714.126398189384,89.3053825441281,1952.34904093704,138.048499997365
654.10362912356,53.6103122930063,976.407650867594,354.384219167274,847.781752953569,139.634192640685,293.95117424149,45.727388553013,459.425288890911,79.0818877100141,289.991576574817,66.3284294869921,248.493779416988,34.7205368548507,1052.6029527335,169.453142930529,450.173067463968,149.655334520575,725.947505515491,73.6531763875806,381.872690020673,84.6312984408538,1160.93549512117,314.680730166803,333.339688808808,109.744116637315,723.758419504224,88.6503587166307,1994.61819720833,144.484743091391
649.151239739799,53.5471972978126,962.128901461943,358.416982552622,834.936397392944,136.679503711657,290.782374370816,45.8534912436637,446.126983974135,82.3948557166343,287.771060851713,66.0931228638542,237.796325251441,35.7690511551056,1041.86189060734,168.887501078479,444.132939873567,146.889279898057,707.245191155923,75.1934186341897,375.731444122942,84.5704709198131,1138.10684866373,299.466219605647,324.600444733735,110.353842615135,711.021564295243,89.391523200776,1937.5029462022,140.281717701671
648.772277196751,53.6153036886825,967.410731568169,353.538699357541,836.01901557442,136.448809345541,291.329906022903,45.4198295722747,452.430845080607,78.4751106860274,288.65089387235,66.0397576554562,240.60905749043,34.0913214147148,1044.52718508073,167.17916649831,444.328678930426,148.172529105575,714.308866417279,73.7670809228955,377.942963405355,84.8421673175286,1126.95850811982,320.096051515921,327.858293458846,109.330127899193,713.257120518927,89.5232418081882,1951.53577362581,140.637338816722
653.445574733417,53.4507507335235,975.28320313822,357.355051330362,849.048670796629,137.631381529208,293.373380496485,45.6283985363004,461.187239830921,77.9837815101033,290.514555728296,66.4392234908939,248.28079363781,34.4902198103872,1054.21035288243,167.94870388896,451.913005527473,149.795812423214,724.656791250208,74.3585710429428,382.64926942237,84.1506692355398,1169.77091978351,311.60276848343,333.987815174648,108.500609427482,723.464607218032,88.2655058571473,1991.79441262152,140.584399072262
647.764065560014,53.6304790685909,964.870934915571,355.602903910644,835.664801183968,134.583203646133,289.871354112362,45.6557587969938,452.456329769872,78.983379175487,287.950376200546,66.2203116863842,238.587396025736,34.7332638403317,1043.71454655342,167.362957857765,442.127991288821,147.99612503917,707.223990571111,75.0995454594014,376.238717024297,84.9932483251233,1116.23374425908,312.290555925473,326.201748138102,110.73437831521,710.5548212147,88.8349296193887,1939.52858629259,134.851044670127
647.837295774768,53.7782284749364,967.480277398275,352.824964002828,836.039596396646,138.111377064824,290.794155254184,45.3772098000946,450.368928077987,80.8016228483952,288.49736685633,66.5048910670736,243.33432440151,33.6191826662818,1045.46307565413,168.774451747938,443.847702780159,149.769246449909,713.238775388182,75.2555365584124,378.787680463466,84.3607684819234,1127.39647964684,318.160338214301,327.892967266206,111.423739159355,714.512572132301,87.9880720531146,1959.05858769643,139.023722710006
652.212808605311,53.5267155605631,980.709307244542,352.681384962005,851.130989398675,134.90535724682,292.39384211301,45.5473500071167,458.233397700599,79.9737687347012,291.650041440125,66.0893838334794,247.978999378991,34.8021972953412,1056.10598003809,167.521411244267,451.354791708489,150.464745653641,724.283571587609,73.8222151553063,382.700755683109,84.1474682680004,1166.16641977629,315.751118271912,332.570262045587,111.178517181377,720.006489707757,89.6485837388885,1968.31612610964,141.148676764264
646.532665281542,53.7371305921832,967.133571562998,352.194314156987,834.826086967931,136.132832807799,289.618274929411,45.5817694836086,451.722804905723,78.0123043587601,287.914020292025,66.3268678517075,239.467204266317,34.5914517914473,1043.44385400657,167.903705229793,444.203341415408,149.762367472137,708.446959139556,74.6949402008179,377.438203665581,84.1606435892875,1132.94174754876,311.057433020003,329.661562991936,108.869855823314,711.237447371171,89.1801513444608,1935.13509505654,142.727238822116
647.752363041056,53.8755826724941,970.289730529708,353.198252197976,838.093862350801,135.869172581173,290.642226015128,45.3396920682754,456.804317662931,76.9549933516058,289.085126695168,66.2594808517929,243.019916559641,34.7931670067484,1046.04841803942,169.862817457756,447.38805966056,148.20549128386,716.115952254238,73.9029446794553,379.693763984853,84.1575145818375,1142.70359297202,319.198042086643,330.144247839718,109.68083340735,716.641067782923,88.3602070179884,1966.06982165216,139.77924213275
652.784472685606,53.3635026607349,977.886066782933,356.41580405703,854.745764419137,136.383458169285,292.677841764394,45.3343086598921,459.429637953839,79.7428022336308,291.801329121606,66.13131600721,249.712751831645,33.8699196314915,1060.66005798822,167.144296602005,453.022175444075,150.635404338972,722.699388711919,73.9477774672365,382.836237022576,84.2039923472404,1157.73991423959,326.88966924799,333.926252978995,110.20857054121,718.052569841854,89.3408040330285,1957.63402161528,141.848776556003
646.395660984526,54.1264027383249,972.441182081551,353.032708363802,833.908530040279,139.614237898597,289.569961747994,45.8307707758663,451.813742448313,80.7563848377279,289.529793443883,66.3839047417516,241.359288341986,34.865228436048,1047.35032067024,166.666349175926,447.471288826125,147.292242522251,712.454929037608,73.9226296996111,378.416821796748,84.2451350144476,1131.91864956609,314.128300683829,329.173603933656,110.576592705531,714.281240372745,89.3114385363031,1947.69490118085,141.234377933885
648.783792631501,53.7795254055214,969.637267361692,356.772716144783,841.989984540906,136.982097515671,291.378283568323,45.6331770889581,456.082210000003,79.4800279577337,291.17982915611,65.9264401053792,246.318210024692,34.5175150742121,1052.51649267246,168.237278678812,447.126553642178,150.810001962809,720.522752363057,74.4533568850169,382.124781588744,83.7898951562894,1150.92763603655,321.909038862624,334.015625137596,109.531993320541,720.039791611838,88.4387996128945,1979.78265947316,142.605405795283
654.201052656313,54.0803857819401,987.213070080261,353.313436001196,859.956153395784,136.255507311494,293.871893939282,45.658973148701,462.608017873314,79.3053211806037,292.958031923668,66.4301857191089,252.593892829872,34.0812644321684,1066.263681771,164.540917285966,457.861008942725,150.332454363139,720.882240985775,74.1507421536667,383.378740523799,83.6575756289346,1158.10466697355,323.012621130023,333.264061165133,112.033210683726,718.64821573295,89.6468577655666,1955.06572575726,140.945437946686
649.188688010553,54.0572725961937,980.789835095194,351.122244222308,843.948857133386,135.377678843038,291.338239604932,45.8289040401503,455.605107111453,79.1947611826212,290.320614433503,66.42271236208,245.046556151588,34.8623540350668,1051.74055644265,167.786911702961,450.05790870655,148.043190255057,715.299734939121,74.366637551816,380.273240173461,84.0871357866868,1147.72652868544,304.367526370865,330.755835678126,110.328085264494,715.81654750895,89.0810719532215,1960.42060960305,139.641571036784
650.630590419208,54.2317737757879,979.427737881712,353.638687101064,849.391811717527,136.696376379714,292.474810952612,45.8721517590488,456.375284963619,79.4718605688165,292.038415495835,66.0856116632539,246.344269663841,34.8548377031348,1057.99057238541,166.725565968355,452.043403604587,149.649837153867,724.07890184941,74.1082035352421,382.891121439776,84.5242510685089,1180.10086548224,310.34956418671,332.910320804506,111.932312073892,721.248461205101,89.275939597888,1992.47710451312,138.402441430516
655.235700661639,53.5069053611842,986.325293895389,354.789916302967,858.336840910766,135.714940147381,292.075937764607,45.8363074827846,458.655114063348,79.9477190566053,290.769288410197,66.3186474583034,246.333606269065,34.753304470142,1060.6473506016,167.258817059208,447.562686939218,150.183350905696,709.836875959205,75.0423924183651,380.51381879426,84.3334844141872,1143.88187054924,306.968999742227,332.637902610739,109.428918148076,715.278795173652,88.5285608010738,1948.86802814306,139.396060773159
649.299658583152,54.0516269461055,983.639547357443,352.694803926062,845.845812250044,136.990092244066,291.000764036668,45.9309876084692,455.333155945132,79.2368427934866,290.440784727418,66.2666452598916,244.601795012025,34.8713738471907,1054.10118029965,166.340971784131,447.30004043105,150.611623182148,714.995008813504,74.2780281130246,380.351871698919,84.0167181559321,1140.3517390345,312.891197078526,331.980527892968,110.849065220465,717.243080335171,89.1955606874676,1966.30549632678,137.707484785864
652.972980389984,54.0200047613899,981.649172882807,356.450851564287,855.931384514891,135.675750147099,292.905898452962,45.808540991664,461.051762729968,78.8576571065762,291.980191147215,66.3091619778265,250.724719910838,34.5878572935824,1063.3805280233,165.528624530664,457.16336616793,149.002460647966,727.821560813933,73.6663447049031,384.892944927472,84.4293905371099,1183.62242795212,322.625944363642,337.194689822557,109.818192046973,725.304453976755,89.7826718659921,2012.82834696386,136.593808421986
650.110886949126,54.0833328633043,974.488784555376,353.266187190467,846.108737957353,135.97106079104,290.880255865939,45.7000695567788,452.910854034996,78.8336701997254,289.48899376789,66.3858929189849,241.969377589832,35.2279225070143,1051.33452445274,168.073490486013,449.296745013989,146.616086087217,711.407296701569,74.1231064070292,380.370819233684,83.5630908891142,1140.92053307243,307.282421008129,330.043926986494,110.802208399467,715.084922472201,89.3349007625873,1944.88170777964,145.799315094161
649.95421311659,54.2737173734005,980.313699149599,352.213689778864,842.255547383741,137.684679787945,291.306226945371,45.6107258022701,457.903462236605,77.3239619618765,290.107922478655,66.135498470167,244.116761599019,34.6798141787659,1053.82491404908,166.396178476916,450.472244478495,146.102031200465,716.247578489375,74.2025871593563,380.549733357645,84.5050984908934,1154.84891857845,311.406296470833,331.262386786671,110.479876376882,716.740506639444,89.2253554224673,1962.01661894607,141.184433198362
654.515203465239,53.5666809572874,990.839045651345,349.61078461496,858.513746460945,134.276491036372,293.414301472884,45.9080792056478,464.31130799364,78.7797341478609,292.541963852622,65.6508010011722,248.876081135995,35.8910436490543,1063.81377977381,165.848566680887,458.364473137119,149.535251951051,729.050854356283,73.0057083338701,385.868371699485,83.9647504068074,1183.07159863966,320.45443781728,337.038516332955,110.5903331918,727.18052973977,88.0786565700709,2016.60204474466,131.936738540736
647.079031248259,55.0739794219124,983.047823206646,347.084566690557,840.082230687557,136.70255719214,291.033269791549,45.7467971738007,452.449375881515,80.0235213302479,289.558624934349,65.7636764014999,239.374738126393,35.7556861740483,1050.56981919176,166.993624255697,446.463642782112,148.137722854955,711.490714961329,74.226976971819,379.143239058181,84.038918643119,1133.27603871777,315.26275618429,332.13785860876,109.712792805915,711.873700036614,89.6052210308705,1948.5997100787,139.592177619826
649.495475314439,54.2091795971962,979.209691881072,351.41949434014,841.846046230214,137.175998841891,291.433090685209,45.98371439368,457.166414680201,77.6721391232609,289.268142892992,66.3937827691045,244.358647684097,33.3900753332696,1050.38008237953,168.383344470773,449.244128932984,147.383320453073,716.622738980321,74.3383084532343,380.520148316929,84.33581934776,1156.40551599371,311.525594149566,331.650766513942,110.547366132482,713.945786487156,89.5645911398658,1968.7765040579,136.746066874702
653.859042392389,54.5223815375421,988.727627204055,351.757657763002,854.929947342688,136.221606163581,293.591753947328,45.9187408301144,462.108658412245,78.8347959598741,291.459444858521,66.1482293041469,250.028033064657,34.779902300465,1061.63595009636,167.688848970222,457.744346059422,148.122288664384,724.637500846647,73.7752081755741,384.447226001395,83.9221909253923,1183.01559662127,311.808408603918,334.03531950377,111.71400868781,715.913612074392,89.758983200966,1960.68545741769,140.859010460474
647.31875296443,55.1724216383488,971.949112623487,351.106773996383,837.195665051655,135.571637661313,290.772080384887,46.3299762300575,450.924028374343,79.366725999765,288.738805352447,65.8476260573509,241.399556719894,33.5350656007337,1050.15572653985,166.779591103615,446.697532952444,147.409246078942,709.459676157761,74.4580980900471,378.274061413234,84.5885194240544,1132.44541120491,307.336619767409,330.164562664458,110.335661315727,707.444697406728,90.3973174356469,1938.82595993022,136.799097259165
648.346742972133,55.2535953305997,982.717711805715,346.134469232114,841.566501965561,134.608452864814,292.085414957983,46.1208210113836,455.254929891225,78.7584928566865,289.448668034522,65.7675717236865,246.633568184919,33.1313529468872,1054.387923608,165.321746718554,450.080721991586,147.549452662417,717.815609291886,73.5244797288531,380.481172617023,84.4985690836557,1154.46652177054,309.055424714239,330.442530635236,111.541788112946,711.654413188261,89.5019270174447,1956.34257498231,141.639471738504
653.534943744969,54.7946322528306,982.339184602107,353.353268049004,852.529173924586,135.620098463626,293.86873831139,46.0185043950827,459.914853699954,79.0300858115543,290.957131151458,65.7710571807525,248.627029330053,35.1850136698143,1062.3982330432,167.038455522739,455.708452794909,149.256849624717,715.677170832608,74.1902638856909,381.29254804361,84.0578048541808,1144.6738717339,316.552073823178,333.302098307825,112.363833402406,707.995313969562,89.4151042451912,1928.93568936589,140.172451627037
646.351766087812,55.608378754934,970.42400396091,351.622742601561,832.298299391743,136.225121094455,291.095576777344,46.0814705389211,449.744512580111,79.6024726042596,287.610969404278,66.2235170582609,242.97686983073,33.3836006616753,1048.4110685379,165.857959688014,446.580771663028,146.960154065481,708.032539658714,74.6655480856422,378.33552426191,83.8689219550925,1114.65102899519,315.195629420101,327.374798080529,110.452237702117,702.243410387169,90.5375200308643,1921.86740270955,139.902599586825
647.44934791406,55.9802640774903,974.040077613092,350.773295870428,838.505054637267,136.629616648131,292.831498042937,46.0545588421417,455.170088365815,78.1318694759089,288.839203244089,65.6562179770172,244.771565489493,35.272140689023,1053.32353678945,164.445156291163,449.984702143609,148.881983393511,717.933633985551,73.7928540832355,380.364004750269,84.5625569090742,1131.25762135487,321.361050015918,330.787040584827,110.342170837676,708.800939075165,90.1028083464355,1953.14686518409,138.644243231717
653.740351171378,54.9620525840842,986.155328172342,350.795685054974,855.83788750779,134.155987066025,294.442769704117,46.2258488950784,459.965941842236,77.7712102492553,290.12439059408,66.1419517612125,247.25254757186,35.8697208277322,1058.91390766815,166.091606579553,451.738107964469,149.599694421785,711.815042166546,74.7964011494607,380.117316443732,84.2216424438748,1133.6173637813,310.070100310947,331.003106194435,111.826335497669,705.63948727783,89.6782938704023,1924.52653730229,141.940689108521
647.201676844016,56.0436542656146,971.008303717448,351.149091213767,832.02142697032,137.047375160423,291.795753728723,46.3682713586311,452.194544966149,78.0349748323623,287.439078523711,66.0098300184625,243.83894952122,33.8642856430762,1048.87246851348,164.718167268983,446.349993906222,147.847678819797,709.906969055097,74.4258058776661,377.732500803924,84.2885123279916,1120.54828818231,313.156636434261,328.334963516506,110.593509668121,701.329130200289,90.4605426782471,1917.09191253218,143.203487122907
649.195402697919,56.052829097235,977.607113612809,349.664425803886,844.431538060359,133.157464236869,293.518630785632,46.0104347345476,454.087974748056,80.7057227449631,288.363411008857,66.1562959714051,247.791882708339,32.1083033078686,1056.03158385446,164.889133697918,454.96285916203,147.09117364094,719.857563837825,73.9622761074568,380.967490493578,84.3934915902069,1147.33169606293,312.763214766748,331.862701267794,110.605387863293,709.146239948042,89.9011686903856,1960.28472335532,138.659540751393
655.178308316858,54.8600209457119,985.743461322215,350.168761830578,855.717375830175,133.900831497318,293.487164240877,46.8320701963922,456.464469075613,79.7837946412485,288.559188901345,66.1301400770258,247.57607803636,34.2561329475585,1058.22968382946,164.480992828894,449.918036878328,147.737784295583,707.740418604323,75.0032054484727,379.302822774011,83.9373208197789,1133.0034569825,310.107413695593,329.917995812766,111.173588080452,701.126667072383,90.9668127376006,1919.01621493369,140.543214707964
649.650894804173,55.1056484229864,974.214199387998,352.694318810447,837.076059607124,136.759639302917,292.606533071524,46.4560564711321,451.327080207192,80.1483587221525,287.66225063348,65.96692225029,242.459402180777,34.6381740633319,1050.45748006176,165.43106705278,446.95170256904,147.500445878893,710.934581783361,74.8016519648139,378.930421328663,83.738674192983,1115.63473807173,318.358587689571,331.389936873456,108.016940549525,701.900034542198,91.6495081258509,1931.42567248287,137.217707492448
651.975992261995,55.4173869745845,980.12428251999,350.181073253707,848.786605407917,134.501071664124,294.153919922273,46.401307727421,456.734927061841,78.6207982102648,289.197618938957,65.7289969375345,246.82122915303,34.6603816117635,1054.28702285913,167.002310560205,451.640660511592,148.63094560398,722.790479951305,73.5666592540634,382.385767062942,84.0367991329254,1156.30652471263,317.22748464244,332.365942288167,110.546404964599,712.000408039895,90.4733025635576,1972.29152746979,136.357148272163
651.105920965676,55.7548629450018,978.807331380093,349.498949491642,839.52293789065,135.187034358362,292.500341615603,46.4883244229979,453.696915341191,78.2316625044973,287.082838475005,65.5080792099362,242.11618424182,33.102542657374,1052.07057668787,165.682080588787,445.774155634763,144.379461104095,707.966071524919,74.215899281765,378.436901051268,83.5905012867856,1114.52360026523,320.210129291088,327.529398707937,111.51350412792,704.954949965936,89.6264645929439,1923.38950511566,139.54172075333
650.512094974475,55.1903388795276,980.667126747738,345.304113760365,839.174012323405,133.406602928826,292.862388822341,46.6335419656957,456.537189925734,77.6165914892728,288.075185885404,65.2836655488029,242.390781450503,34.2834141002213,1050.33186067541,164.672928873507,446.11487996459,147.284510888193,713.124209419947,73.8819686017345,379.009759036173,84.0382175462464,1124.72062043122,313.724595854202,328.987079114252,110.80768719235,705.508744503199,91.1490057225271,1941.30552087678,138.6386788928
653.545100736802,55.5813012807841,983.35433069897,350.70674122559,848.603870230109,135.125377463192,295.454403348766,46.3899337030683,460.742934393321,77.4367238397329,289.266374191368,66.0110850566773,248.132107434605,34.2982301791259,1058.75568021099,166.344398705001,453.336672588221,148.428261849818,725.32023813308,74.1418495626005,384.517213516414,83.3576468894137,1169.52005017661,313.999772822451,331.506760530593,111.625454129153,716.889028699791,89.5731656409592,1991.12020751192,135.154233086278
648.84407167629,55.8830337167513,974.247056338817,349.61823536543,834.584478064461,135.806052763192,292.545462775157,46.3569118730517,452.091457167964,76.7680188480899,286.880753252203,65.3465134582064,239.34970000283,34.3341967521293,1045.63395619359,165.365572670815,440.563620196198,148.130262540061,707.059422953539,74.7823679880142,378.467686934545,83.5763950532286,1106.07351284192,321.174304992303,326.788893255196,110.827701100394,704.527490828249,90.5652920582567,1924.81190403323,136.513202536745
649.285492607557,55.2900966524118,969.790351147451,352.395847859858,836.480395478705,133.971727740533,293.147984600111,46.1411616102937,452.697687073673,78.8987087748547,287.369310325039,65.8233071797249,241.03601880998,34.4339231149426,1050.43599477058,163.706642241203,443.830294352473,147.340436203505,712.984646657613,74.2470189037814,380.068643781375,83.4882343488349,1124.70976672712,317.303238547619,325.962498642548,110.999680590245,708.463456317112,89.8932635521663,1933.04033607691,141.507956085894
653.552897754608,55.2689876766417,985.588565415513,349.450097828107,847.26205965868,136.335203796775,295.317610238325,46.1574309251005,457.438888406259,79.1210801712652,289.350583052164,65.8976580381904,246.119305556202,35.0711643854885,1060.42098143484,164.860492712749,457.183545382182,145.366586931208,724.423754191815,73.5502069118375,383.571044629421,83.4680035120996,1157.16031904447,312.588070014879,331.983226282298,110.795623878327,717.280808127541,90.2442065879764,1973.56651665429,139.402527324116
646.746359887994,55.8104452049272,973.602276962564,347.916914739006,832.444523578175,133.699172076664,291.890462157978,46.5599144111963,450.525610632808,77.5507323079164,286.404549531205,65.4454164560853,237.993583336427,34.635142515317,1047.51118193668,162.404790578391,439.919767906022,148.428144470605,706.440664922478,74.8417953979401,378.008615071404,83.476769393232,1114.77361211984,312.06524498199,325.041192489944,110.363620832954,703.768552806449,90.6481331789523,1908.0969018427,140.884607436572
647.891549675062,55.7737686993227,973.403637607635,348.918957181101,835.707597152542,133.933388039399,292.988079300287,46.2756570215719,451.722897814125,77.5060786304523,287.290180422164,65.1991527292964,239.169553664758,36.0861018166799,1045.85255810018,166.709559240607,443.858064153303,147.459078579261,712.743035349321,74.5397038687588,379.385453247291,83.3917342696175,1124.25170265206,311.078997122998,326.040350458613,110.84011629884,709.416401541243,90.1973738928652,1931.4057445693,141.878765832961
652.424040221612,55.558600213231,983.496186960788,348.294059841203,850.170854822277,131.943578672639,295.039766384754,46.1657746842712,457.108724099911,80.0852557387333,289.036131204849,65.6223903141161,247.511163790989,34.4950704154943,1059.39980428077,165.514622852738,452.195325540048,147.891926293157,723.833495120494,73.7209243564387,383.733669785268,83.6806309562965,1149.99662105642,317.420992689682,332.031623867648,110.647386277468,715.29392190369,91.3493299809957,1959.19018321395,135.480480259306
646.401688944715,55.8973128738296,971.753853801591,349.512150708802,831.057738580921,134.638197087247,291.663615433152,46.4703790869703,449.001456100458,78.3825607339728,286.197360779955,65.3496339493043,239.442865072893,33.2503215898185,1041.71839194487,167.236370737131,440.132030415443,147.465214796768,707.140365060871,74.6956110674861,378.054550408506,83.2397963658451,1092.80165762293,316.347772059385,324.117253806817,110.688722161023,705.765746117472,90.0138452926127,1905.08790293575,143.9682216126
647.693535172489,55.6514585301881,976.233654601909,347.897628844258,836.131832994612,133.996467237995,293.223915173254,46.3773704925911,451.38814434682,80.6794015837754,287.615229397382,65.635744177288,240.789544711419,35.589946939192,1052.93995282248,164.018312141924,445.473090320099,148.045688144574,716.016788720215,74.33248644475,380.164198734492,83.4006785660831,1113.38709009041,324.269825290596,326.872327204419,111.598941575175,707.97230910599,91.3742774339176,1938.09320876763,139.286592478585
653.621419572699,55.5828888419517,981.478404355729,349.914860112363,849.127796181675,133.58447188752,296.079156488769,46.6653480977074,459.076228283911,78.032972091397,288.83017761218,66.122943170493,248.862402421041,34.3629221608637,1060.52374930627,162.808792244188,456.661665864536,147.83618698862,727.659030946314,73.760924655681,385.007764418966,83.066581120035,1164.65436729204,316.61876981357,329.88469816126,111.011334467595,718.015237545898,90.3839183585583,1956.27838148878,141.228632314963
647.305560691898,56.1073738462526,975.268600025301,348.008578931803,834.026440919013,133.31486477447,293.321164518242,46.2022229610392,454.907181915556,77.524286853265,287.106841083001,65.8264287398503,239.598580413741,34.3209782278313,1051.68938241474,162.892773451032,442.773986949082,147.400903602604,710.255246817875,75.1643676575673,379.824937903013,83.106894304432,1114.01064929683,308.244519079823,325.98873153791,111.031076022081,707.859398419603,90.2276267930664,1916.89855484498,141.7536374587
648.467277911946,55.9717676635637,974.738824640007,350.501202883124,837.499946884869,135.291013320936,293.649755848443,46.7342734281084,454.257070468007,78.9654120358168,288.013617281138,65.8395749978933,243.795465098265,34.3271088863953,1050.49588495267,165.308967195552,448.181956661184,147.44532618266,718.356299729946,74.5625990815683,380.675672930872,83.7976693588543,1133.70692718205,309.611609303226,327.779942823387,110.739214063668,711.994169285528,90.4146029853717,1941.11762433051,139.912382126003
654.069467575943,55.4970576771537,984.071070267511,352.804793298891,848.105457777364,137.808326032336,296.554259932517,46.3099212752796,463.246302212882,77.990411777532,290.302523632773,65.9768907173643,249.947473944788,33.6521989373557,1061.17532967167,164.180540894284,455.781372046035,148.302550637016,724.701371414235,73.7343336353759,384.200348620294,83.407149719915,1157.18244863181,321.543447515396,332.048612172368,111.43240326532,714.617367254181,90.6230622422659,1935.64712048008,141.026058190739
648.204151923028,55.7641164750882,974.79662355298,352.328022080691,835.624031810302,136.534745176826,293.827962376358,46.4459077660313,454.347551472625,78.1785895803081,287.622589510196,65.8029753468399,241.875631152714,33.3984111816373,1053.04369353076,163.294428740994,443.510215713436,147.849356337656,714.273466357166,73.9489230417096,380.057183792161,83.3867786181162,1111.72977946122,317.970217615552,327.499058634811,110.42677785582,710.807090862691,90.4807408273929,1924.20087472437,142.332892887662
649.950818094968,55.5522771522525,980.656439897724,350.671800212652,843.743179455589,133.225855201335,295.020379289903,46.3676468328006,457.573759670855,78.4719136888249,288.606171712321,65.887942289203,245.711849826781,33.9412511288549,1054.66788278284,166.011518875079,450.635668473587,147.496522334381,721.548846804939,73.9781272202499,383.882660660661,82.9344601111495,1136.42460320158,322.470400027833,327.60967215952,111.959960944922,716.020660641224,91.1429288905228,1960.91635251633,138.110456178536
655.508015966722,55.0748821889647,995.08487491883,345.561957354501,857.246499042601,135.223199151752,296.914698295719,46.49116418749,465.247204015944,76.8869988624165,290.641674136126,65.9307886952004,249.660344078432,34.5691366988552,1066.51129384129,162.230993106074,454.366854816805,148.341412991549,716.45264508934,74.5845524297932,382.790501889867,83.3100106807912,1139.0750994809,309.669882499384,330.112087665373,111.17484426026,711.98508297689,90.3874493099282,1922.96358112559,139.852035029237
648.579992788223,55.7576608516616,983.300969250231,345.010245403648,839.028877353101,135.346378793966,294.208996848856,46.4260980461481,454.171995940454,79.188452615922,288.193855140786,65.9561984084264,241.28763033371,35.294698023233,1050.80025504825,162.721519377008,444.613519243609,148.477477093693,711.930990771184,74.5996457552243,380.808378104911,82.9293095962946,1109.89041922614,307.821074895006,326.633176404175,109.813412717847,707.801898761461,90.5586519287779,1915.85973089794,140.524033727839
650.229869518905,55.8276009671314,982.820759770014,350.249300539119,843.888169737557,135.088935416453,295.498465486977,46.2948492712057,459.013565310897,77.5050625410068,289.621004109429,65.8947624704659,244.867397877094,34.4290421494562,1056.3878635913,164.419733660123,449.982717246152,148.948714865799,722.592996913401,74.2227004065598,384.327545000473,83.0187146391258,1141.08141073779,313.692449255463,330.598669548171,111.230885649889,715.357644440604,89.9703665658436,1954.34901606236,142.316579482014
