256.204967502946,11.2962116988585,271.006798008334,48.0968848160705,361.874884637111,8.12327208775428,493.435216620848,-27.2282892558535,198.41401332469,11.9211760066861,339.325582330193,43.8892627907174,1480.25570150103,22.1920203804305,356.921147771957,17.3376929422754,626.925823697744,61.557355745297,798.80337940015,100.560186975057,164.900054291518,37.5233360429077,12.4280804398582,6.25515194419615,62.4872601811316,55.9986194708608,237.359195130888,-23.926703154642,1378.21513856235,-194.586765942078
249.751496544763,10.6325143098761,267.094061366429,48.1396640375353,346.353801230211,13.6309787934459,490.729268527974,-27.0874034123433,196.610747660638,13.5086228795068,340.275189330803,43.5988670455315,1474.16296466712,24.1607015464709,359.062704114432,15.325194555202,620.20201873073,64.1508556554172,801.789508634262,100.541860803896,165.229242693359,37.5144703314287,7.16544413422793,8.24890909867219,66.5112555039306,56.1313576165032,238.204527825082,-24.1434277366552,1391.42805309331,-198.29982258755
254.264552369195,9.74470315435772,270.741298152349,45.9883099710466,353.908870365016,12.9529966628941,496.434696724574,-27.3925652059497,201.845760686731,11.2980988377187,346.97549388898,42.8526001562754,1503.77065907478,15.678605521276,360.588363455818,16.46906210668,625.453273133717,57.2890180278173,818.046287410411,100.138882539613,167.010688690039,37.5005502803257,14.1217636212252,5.25166375962762,74.7707570016077,50.427955977792,240.1540857592,-24.3996428619926,1398.04833610619,-193.007278339114
248.431117417906,10.5004245558763,268.126457626215,47.1000868793543,367.954779261663,1.35985018236999,486.478420621101,-26.5095983570283,196.285598876461,13.1308400155744,338.894709387926,43.152940422321,1477.24826729863,25.6193309059117,358.56835454577,15.2041265646091,637.328202775471,49.9286261975429,800.638757345735,99.0258756395007,165.550700530146,37.4393965402123,17.8480839418636,2.28190399684731,67.296543472244,53.0189217689344,237.758021854835,-24.0335371396624,1392.64664736038,-198.786937517849
250.256491727952,10.9796225362602,269.064496152764,48.0193438093425,354.322568142702,11.6250037442514,491.313277367606,-27.4882145119116,196.23143017263,14.1352960931128,340.039908398532,45.2555110748864,1491.16909124738,24.5435089411133,358.332015692541,17.4156257136325,631.379789704628,53.9175389570388,807.752999821528,100.729356627225,166.567372847166,37.4774675395964,14.5886574842683,4.51111569287646,69.3212913813462,51.3385542398227,238.748817571273,-24.2509363722676,1392.51252365088,-196.992795243228
256.559261644318,10.2059186191422,274.381800083402,46.6966311092198,360.584485780989,5.81185071212142,501.935728495255,-28.3105749881662,201.74658842126,13.1383622713898,348.989426302386,44.595174749328,1511.58661773123,15.4113099624342,364.220478526998,16.2221848878278,629.824141050628,61.834140419309,823.983830998579,99.0092106939559,168.177860207049,37.9332195708365,9.08533317289328,8.86492895959271,61.2294028843523,55.1153089055067,240.05319098244,-24.3162546180184,1380.0791577279,-190.327271830629
248.251187685242,11.2616080336624,267.080963593773,48.7373026834652,354.666029544306,9.67396110294023,486.823198613183,-26.6571835817007,196.745018122185,13.3559910833008,334.427885803169,46.4301503015628,1486.98306475154,30.0991149816752,356.321212175756,16.8678405609305,624.267903428655,58.516330802138,799.936014885732,101.122532317965,166.193686423062,37.5599347160148,11.0925185339793,5.41726108103084,73.616713689568,51.7579846111072,237.688613242046,-23.8632278340908,1385.14433693188,-189.243764827146
250.289132287599,10.9594529080661,267.568516741022,48.9395906833384,343.509440336261,19.8480703729016,492.094135970779,-28.1445176107436,198.097939868171,12.8915879890749,341.54035790618,44.0986467812636,1497.36277390508,28.9237791767186,359.888337511827,17.210204405423,643.666716770465,52.0723103626252,807.524506607849,101.096255588122,167.06038131699,37.4791073158595,15.9981023414076,4.83183490847425,75.852492252,51.896884699365,237.770472421091,-23.8608884854956,1404.04885643355,-202.026684333642
257.929233242184,9.43565243224717,273.478969716457,47.6325013796936,362.667751760433,10.4923332054277,497.686247887307,-27.2369449572313,201.514560377047,11.8042831990069,343.87583979927,47.2572636738164,1511.56252334509,18.1090201640627,365.446996552551,15.1082730231247,615.564302441984,69.6976708695326,801.276677587436,103.289878005831,167.318942238748,37.3639777974554,10.8046604017058,6.16528894734468,69.4532149224798,48.716341882308,237.188584456502,-23.7868358629462,1380.81646737666,-189.440140132435
247.010611813335,11.8169339432373,269.122493589275,46.2970326993016,361.831551863562,5.75606613034891,485.39900578336,-26.7425338773038,197.188656057708,13.1194606218849,335.257556823574,45.1114072449757,1476.59884274996,29.6464868392476,358.27178862129,15.8960184441835,625.34419630004,56.3306295825464,792.776998882606,103.681083382309,165.683681153701,37.4575700037203,7.81082806595577,7.86002222108016,68.9010100116856,51.0147201941598,235.930182308997,-23.6906109062312,1385.57859152793,-186.788491979141
251.771290012086,10.1897627805187,268.660945593621,48.054495771667,354.710109568746,13.3729057112969,490.755110192427,-26.9309121200666,198.234383268071,13.1466412550576,340.033044707852,46.3875215495522,1479.44182200431,38.2601189939608,359.04199114744,17.8140332115394,637.698480527098,51.7519931808046,804.210715159092,103.300685872573,166.593058720148,37.8782731308933,13.4337726531449,4.67070134514246,63.830808644485,60.3068897795076,236.912548121653,-23.4423457091938,1385.22271602857,-188.401851422086
253.553692503051,11.2649940813107,272.060963682914,46.9043500928233,355.599075947849,13.5543264707691,486.000964342032,-25.4470787282794,195.886722572855,13.2981805771354,335.961038891365,45.6734787820369,1506.28960542601,6.98592028399901,358.52852330847,16.3815916398291,630.117074444599,54.8614170652531,790.609875681512,102.444950466704,165.784936460722,37.4030605785432,20.3786546875602,1.99770494219221,68.4313233847621,55.0394369140133,235.911942836305,-23.6310702698615,1373.18021278364,-187.006956821476
248.894405061965,10.7747165650665,268.639802995331,46.3720579476601,362.109806206492,7.33066225803937,486.327380021795,-26.4920288910487,196.944877682703,13.2189910179998,336.024788867503,44.5543359768633,1488.67303344072,19.3498672533873,355.376277351912,17.8339755782969,621.875845575944,60.9364558420074,788.798873137678,104.247127888724,164.606854035109,37.8114907411076,14.2405093095813,5.53311777700309,68.5995291781465,52.6230096485699,235.416821426197,-23.3729823592705,1399.65014952046,-201.555407173334
252.881408997315,10.2313041601715,268.986513611522,47.3783991349399,353.763936112804,12.7017747171944,491.591549533435,-27.1945729856117,198.603394657612,12.6759474877736,341.307585066224,45.8332626788294,1480.11210427039,25.935726253665,359.407924245808,17.3657265056719,625.901537715663,58.8318920946826,803.10737296422,104.605950608315,166.512228153749,37.2193455561092,13.0696899307453,6.50355344637138,67.1525422516838,52.9549513107309,236.795606943858,-23.5000247578302,1393.94357682806,-196.304228569201
247.620364065135,11.7343213611215,265.545765827001,47.9684184521575,356.829120066333,5.03550363475859,483.266795365786,-25.6260961391648,192.123634149365,14.5448684534213,331.680563881045,46.1759122714866,1467.83516111694,34.5975001348979,355.630792357931,17.7276240492486,639.178176594543,49.3951592691153,785.720852735383,104.961048826514,164.309028069921,37.7232537361746,12.4264298138218,5.1566660557688,62.921489311261,55.0681128887706,234.88213423165,-23.2474329634042,1385.50270493559,-197.38387783844
248.827165414722,11.3989095054831,265.27552136357,48.6730220322321,354.472260891416,7.0946088409225,484.971871687595,-26.4477427188948,193.912180300334,14.927228818584,335.681780034589,45.492334647962,1460.91532348254,27.4996684995162,356.274766886899,16.6676022516763,628.859855324035,57.7721536477221,786.252382037705,106.421778438688,164.315608132493,37.6760997743745,10.6293916253117,6.44188196988348,74.7060665919534,44.4753605761393,235.270855131407,-23.3665437851553,1374.16461789094,-189.66746735339
253.500913865073,10.9690557989337,271.601601073059,46.2933253374677,358.766946159281,8.98544771956215,494.574986511457,-26.7589547802017,195.008798530472,14.2244002686328,343.340842511024,45.0805121381486,1490.06993069029,23.8415399833131,357.746649910838,17.8482922227864,629.939690426396,56.8343112684351,803.238199753826,106.883613926569,166.604918784616,37.7244201749597,14.4388876545405,6.07673660268349,69.5106430267623,54.0915445677429,236.850206369618,-23.3305692631739,1382.21737723075,-194.33148630152
247.486118147677,11.2290050546306,265.181260780342,46.6817180525137,342.659561109155,17.0313615405404,483.339586821096,-25.2575048852275,192.665868271321,14.3451892723489,330.522962886404,46.858233360158,1456.84408167003,30.7330890905583,354.51289617197,17.1005894995361,623.966141300524,56.410946896961,784.011102711751,104.14924545498,164.244668135453,37.2553057261995,19.0986973300025,-0.524036115507505,76.5675906932222,47.292268115103,234.835959048704,-23.1911924850713,1380.65786777328,-192.081679980996
249.552107047425,11.7100907913971,264.11427076067,48.7329867179223,345.758967970292,11.7512546286602,487.134472126463,-25.494873876103,193.544410329281,14.151321484121,334.949454400598,46.2791743356556,1468.47651871613,25.8338804370487,354.237333668682,17.0850447355747,632.531482706292,53.0344895791992,788.372240121386,107.304294815105,164.001721063671,38.0613197240509,12.0239661626531,5.12715221816049,60.2325952543871,56.5749452046269,235.61678139823,-23.2398329576105,1381.09097102591,-198.372682491827
255.133234115729,11.5376137900468,269.57635341557,46.5347173718514,356.771964582364,11.9572011651322,497.16758657842,-27.3007603364682,194.374083368145,15.0615713895808,342.259693873267,46.6420465065935,1478.58299687806,27.3218090591539,355.646161737273,18.4279617274026,628.146011776198,62.1048061940587,792.657788956482,105.9853472855,164.653301074696,37.7261449326619,12.3178989761882,6.43752298899764,73.1821381266185,52.1698337197343,236.339952674257,-23.5392614906967,1358.85867711209,-194.581239893328
248.062951441909,10.8290408241386,264.57323240355,47.8242480279838,349.474570984652,7.98189183601685,487.032453332655,-26.4024679101642,191.755533827065,14.050567009034,329.194772286986,46.8675775152072,1448.01645135005,29.6700372999497,347.837209695028,20.1776985372919,621.704504607368,60.002225706441,781.523803147802,107.837286636967,162.961286195529,37.7845429440122,10.8286627802104,8.38130121764449,66.5963926100141,53.0051747117393,235.218259178403,-23.3013092097637,1360.96584989521,-187.23835865457
251.967581115577,10.9692027922307,268.697814226255,47.018304679691,344.809090972044,10.793538451352,492.277781753071,-25.2847424215707,192.528194312257,14.0365886120818,332.98324945275,48.0334599105101,1466.44518026966,24.4123848147707,352.863174056325,18.4027701744585,634.477474603032,51.2543095940772,791.851315612237,107.688484282062,163.82801351947,37.9689576926504,14.6582967178791,5.87973945433142,62.3196439040488,54.2875222127037,236.755326751409,-23.606778804998,1374.40952752545,-194.919908934723
252.626810804386,12.2991550186424,270.964895706416,45.457356255559,350.738376578684,9.69804069160705,492.529193325909,-26.6249107123087,193.090024603268,14.290864947714,331.1863550269,46.9782109511874,1465.84243634784,28.6594899368441,352.051573610322,18.0411346861412,607.707687898016,66.2925191448319,781.568607577287,109.499912045958,163.5401289663,37.6446335689886,16.6604380385935,1.78932811660639,67.8169680172862,51.2671477590874,236.639830221682,-23.8580943931634,1364.43051217798,-187.124368829824
251.269322145781,9.96912953335057,263.468465726293,48.9147605130309,342.75693119763,16.6224207678971,491.570832320434,-27.2847244972543,190.948176871507,14.8252010089107,330.666069441996,48.4150199639354,1450.16090822527,33.7379141989265,349.656096488484,19.208516790827,614.627265801507,62.3368272682619,784.466606594248,107.57964715608,163.247227908521,37.668057377698,14.4187533081083,6.22552916331138,68.0092914116229,50.282653088489,237.255657720698,-23.9474677116847,1361.06355356614,-179.854385785511
252.919031606146,11.3997956602792,270.864354559495,47.082896656872,348.64344206193,9.70291897572085,496.75238588203,-27.1375078732432,195.193097038044,13.3938771163499,336.577965356495,48.0503702141701,1453.91802124628,35.4903330380648,356.203289040681,16.8665737681055,628.463369941377,55.0474094525748,800.366926752727,108.937488507986,164.989474937124,37.6161204686116,7.78096117297599,5.82298604812521,73.8528779857636,47.8214583299701,238.894137806473,-24.0008745953224,1374.16716131523,-194.471080580911
250.582904029731,10.9027379943111,267.165524370724,46.669576340545,344.83600232767,14.3976207538034,491.939924601876,-28.3230932994908,190.446984632125,14.8663100138025,327.80002164452,47.7968882002995,1429.84909529077,49.3822537560516,350.875993158796,19.1342381703407,623.403004935162,62.988813420485,784.388327320831,109.941452894222,163.832004773273,37.7136544886715,18.0170378743552,3.63119251392754,72.1144003038332,48.1019358190042,238.300288146917,-24.0325262524221,1370.54732539983,-191.681851074229
251.88970744298,11.1011027637888,264.700157549944,50.5986065544806,354.140940095211,5.6290949288273,490.610708471606,-25.6019523682336,191.406860984887,15.0950665539998,332.175606418377,48.2360784539982,1462.82087987818,29.7057849361331,349.345552690393,19.4467787025213,618.456714500116,63.3377914417825,793.950937454255,109.527059996346,164.352250767504,38.0752151031232,15.3115485871924,2.71086054481024,78.8650270061687,40.9392184970509,239.337615494474,-24.0739489900654,1384.40870590008,-202.533922541125
258.804865452661,9.32973134452452,272.881097657637,47.4090747104907,350.426334434676,14.1030795868478,500.646517073689,-26.6049198991771,194.911496977832,15.2615743878348,339.816606149639,48.167889042087,1482.22695573915,24.0042959901948,356.301305061396,17.6890942299309,622.631093026913,65.2853648748216,809.398094689103,109.812657065359,167.008723713566,37.6734909355719,12.191142749122,6.0759889976754,61.5998458367682,55.7282242749158,241.971412071518,-24.6013593454728,1400.99334394894,-200.700896901881
250.282491439194,11.9074274467987,270.689334416633,46.6452272073462,359.213897653526,6.48678597210938,494.432054771784,-27.9056226901,193.563147299566,14.8612640070239,331.371673935487,48.4053668599559,1471.27388114138,27.0813627658891,352.722054613182,18.2497745408843,622.009125682619,63.2331313035272,789.827100321416,110.262970359483,164.692091807474,37.9557069846027,7.12756544437859,9.96229854396926,66.2248535364877,52.0721981411787,240.285080975703,-24.3487684841735,1380.94812416443,-188.334772435477
253.849501511871,9.95649230482368,270.05281471264,48.198773143328,361.926208777021,7.59083192542273,496.435118383206,-27.1979337940783,194.210200108163,14.2952354214414,335.397947390947,48.213587185684,1476.60011754808,30.3274323034089,354.602884789763,18.6472413720048,630.296800261484,62.4607448668249,803.892686334746,108.15048169749,166.328226647919,37.6111750971232,8.97317728210558,8.70697537342824,66.2176683964468,54.2842347103905,240.554773884255,-24.055730002615,1383.1072722405,-188.367468946842
259.798060982432,9.47732536754473,274.473497144425,47.0631571416387,360.483569153508,5.72271886421907,502.547877237293,-26.0421265547882,195.033038595787,16.0057030005873,343.271626221287,48.2323002972191,1481.32882716054,34.2541620885693,358.983774667267,17.8664030887994,634.095406564871,58.5310703386779,817.053355015423,110.515745301923,168.567498812341,38.0641236546518,10.9265234050564,9.46278799715706,67.6423076303637,52.6765001593621,243.055272306803,-24.7361905524585,1395.08360737402,-192.091776918335
252.490076777032,10.1584971720087,273.799723882946,46.5961571171638,360.195122123458,8.77121357850615,495.523231216191,-27.2145094921494,196.148216533722,14.0314854610948,333.371195906036,47.8365910242063,1476.43099548707,34.0320145518037,352.759084803,20.5481336565104,630.250208633305,63.8017290393053,803.244631529436,106.961026369103,166.919419844337,37.7380320541236,8.38066603043265,9.86383590232704,65.6983870158143,53.6200062991553,241.161610446401,-24.4176497186437,1410.43526101137,-208.356435894374
254.474236632701,9.97277852448795,274.463076675225,47.7183380673569,359.018169679763,12.886857262244,498.560840441358,-26.7481396433947,196.723999570285,13.636308823625,337.395125582975,48.6293586828614,1503.42707577646,21.3933722156325,357.956201225328,18.7082837006311,632.305391843732,64.0221280747897,812.250397205134,107.524551349999,167.750715856872,38.0567476312492,17.5159518036269,2.03309255132966,63.0506779015248,54.4235650810174,241.70047399872,-24.5728946270391,1416.55459542527,-202.404763229447
261.670720911764,8.07917714476021,277.843942323014,47.7290455047621,363.71193882841,9.71513895348472,507.524786542476,-28.2505666294493,199.682117803656,13.2649422730477,344.648248655616,49.1004284038541,1509.47240621651,29.7397348957734,362.199014944742,18.5463362440044,630.806840052215,69.051873317161,823.340446438795,108.162806481361,170.120989312911,37.5593848495527,14.1048654525263,4.88828752291905,71.1426412572281,54.1555070955183,241.755786258616,-24.3529283629279,1421.21737651216,-198.439904468276
255.273141503512,8.29963336232981,275.356949868367,47.2709021823631,359.882987192274,8.45984182101171,496.581237402535,-26.082269604195,197.294377164922,12.9810036678731,336.357977811053,49.7701869234649,1503.65579388085,30.0716471768213,357.478056361198,19.1572228408875,630.5070990744,70.1378106334037,811.696111014723,108.761219046013,168.740427666132,37.7799116840258,14.9996751573666,6.47632595943703,62.6948934164152,57.7402266719138,241.268179746927,-24.4001380412193,1428.79118742438,-210.321467778981
254.815141470115,10.2591061971711,277.463533061152,46.2569081319894,360.718712758868,13.5726949737555,500.319207032741,-26.7706897082182,199.0646950522,13.9133041188546,342.658219336579,47.3414865730811,1500.95179209782,39.0380072872866,360.570313016438,18.5862332914227,647.046099186765,58.3359961356407,821.986657463878,107.892219676498,170.119784116193,37.6476223113752,16.8716161436858,2.98295773037785,67.6900661455658,55.2613923755162,242.214556393734,-24.6352834770887,1435.30678430923,-201.938024052115
263.111744871025,8.10086603929104,280.651748019041,47.6281076959555,368.105792732009,9.45284249670805,506.149289528923,-26.3552682106248,202.215856369351,13.4579292323641,350.052760200783,48.2641515421887,1539.28971424181,22.0266950729991,368.409848646791,16.7323728069993,646.190405177749,54.6747708607489,820.879162097572,107.865521096029,171.109100542454,37.8579634807265,16.355886921763,4.65289359798822,83.3289762855803,50.2525029604442,242.061154678035,-24.8407956088745,1422.71080575808,-198.257959171086
253.595647876908,9.55804398465699,276.455112343427,47.2624202496598,364.052380289062,9.80055527323735,496.499153545932,-26.5222639803342,198.847581892695,13.2603513034853,340.553377855925,47.6604856440679,1528.47694291463,24.126431947626,361.82519349051,17.7496580479624,654.07629782619,54.29510833103,813.313292187445,108.143489615649,169.983229474856,37.7162176385283,23.0938361935109,0.0782143984515324,72.0174840286992,55.028394359376,241.175531284385,-24.6384253146315,1428.98801329125,-199.157684744253
254.715089344832,9.79036152093011,278.132990497571,46.8230736278876,366.40559522181,8.34974120450131,501.63966518564,-28.5298859675219,200.539790277164,14.5121188573797,344.204301182771,48.6432765649107,1544.59637031626,25.0977280440156,363.855692014667,17.9577139543119,652.436757179679,55.4192169824687,824.487624847166,106.533327221838,171.092759342737,37.5170243434964,13.2518280910667,4.24536471354359,61.5821148633197,57.838779687706,241.478103521268,-24.6664757248179,1415.43560280087,-193.510946287742
261.762371645226,9.25448436831208,282.403641551768,46.5170930150778,371.99512305664,8.78957187456993,504.893537362021,-28.9259668344729,199.853636157139,14.7868703285015,349.666738706724,47.7173959612631,1543.17606988804,29.3471324303073,366.733615855135,17.8722802840658,648.328324967277,62.3843414756743,820.329991351085,104.94904236032,171.467007306829,37.4669101949009,17.084845973546,3.14322266376154,71.9797743945599,52.9446836722084,241.272598219969,-24.4923480648579,1420.93924457649,-202.086101398169
253.113453649593,8.98835904493371,278.560593659877,46.0554929323721,372.279516680237,10.6871569041686,494.093351382743,-27.035999869298,199.838852661782,14.5711261210439,343.78340667519,45.9612278290865,1532.99769587205,27.0649345936046,363.294933044807,18.2547316566718,658.452837570812,61.7481151397801,814.657830937946,106.857331659308,170.43959121137,37.5174115573117,17.8298549987555,3.32479131945989,66.477380997619,58.4198088450724,239.424787455174,-23.9462972597815,1422.81263113206,-191.38750798561
255.070267627393,9.47668269137182,277.290443506233,46.9943085638335,374.21086146479,6.18301337268132,502.592428754886,-29.5120136637408,201.765819479228,14.527303439663,347.026143100606,48.7296913980388,1534.95799806088,31.5912309842634,365.18604302967,17.9652920075025,652.678191185881,61.141443350303,827.93797542139,102.576992397542,171.097654853879,37.8288196444533,13.5840432719929,4.09849480385597,74.9452533283659,51.3526728942191,241.169666987535,-24.5040528949318,1438.42472320816,-205.409015950635
257.197126300403,9.85428598606079,282.741735735196,43.4912415812482,376.081467789737,4.5635567784146,497.439392637703,-27.6660076725726,200.910268144868,14.2645072296253,344.02969156017,46.8126102622873,1537.38636184722,28.7644645829724,365.715144315795,17.7424651890664,655.014866297467,53.459422641539,816.296495244787,103.770599950968,170.212172491839,37.8000484015329,12.08289574726,4.62691989610365,65.0328717000276,56.7952957740708,239.869283482987,-24.1857226367052,1413.92507746839,-188.568708598946
252.923796655637,9.49951917398269,278.552747602492,46.7445261365449,374.841664353406,4.23645386176419,496.329866747791,-28.0153374038981,199.166146024759,15.0907811231686,344.230865740684,48.1483748013883,1547.00183355499,18.253635416701,365.070170755986,17.5838551851041,652.467536309857,57.9713523724291,811.647637098939,108.861146465271,170.395767886907,37.6498850564137,16.178895754251,6.05338607992037,69.7818567833666,50.8952161203078,239.975142524807,-24.3435684802094,1424.22874011806,-200.26964223864
258.032254910616,8.44539181494387,278.23273471804,47.5341878628293,375.869314948528,5.94558722862007,501.579528145952,-27.0110350852927,202.727716285735,13.1418751971795,351.341001300351,46.164088400387,1561.86291888259,10.0815282716159,370.249759956695,16.6122422123122,658.440101246307,58.6725471405571,827.393035736003,105.539081508861,171.773630916104,37.6447843425096,21.4477737597263,-0.0238165000278401,78.8659888673976,48.3751247914687,241.586463809162,-24.7457532347096,1451.77161089049,-216.649821748646
253.993388018272,9.29013124963533,276.114777107127,47.6102760151337,370.444330705736,7.88291551536934,493.212275271342,-27.6243444661459,198.870683460667,14.7808301664182,343.000117916079,46.3439723649155,1527.85372213139,25.0866963222491,365.471308854303,17.6433563517425,652.36836711987,58.6422066451659,810.871757936082,105.489709547933,169.624954320511,37.8983723834649,9.92200273818548,6.6096269111344,69.446568679951,55.7847573510855,239.687724159508,-24.0612811732543,1407.54025768466,-192.700232487862
254.390599497237,8.78281257897444,275.935298518386,47.6553686557603,363.166472491404,11.0147789157424,492.566451322545,-26.1819153623394,200.295927059363,14.2110652731398,345.061938294547,46.3823932111161,1539.85877522994,18.8557691846943,365.715305235425,17.1632003116238,643.405518383972,65.4144721739958,812.607286761509,106.579204568151,170.301733859399,37.5018112952285,11.1435360579322,7.60214786146612,70.1466027156461,50.3758095612669,239.603803871582,-24.2144389883012,1401.37221026407,-188.422939431973
257.299334756945,9.26009058526688,283.145746938918,45.2720361995983,376.593334737125,4.1588397970082,501.87960382343,-28.415762798366,203.997618590767,13.3471623992834,349.928531515235,47.6897558291859,1545.06581949855,19.4065892079475,369.245850993586,17.8647840028907,652.730871331563,55.5490215013395,831.488984089017,104.128649613345,171.384658053579,37.8537470763675,13.8685137974618,5.20002298014712,70.1678211560189,55.8229996879397,241.572400837322,-24.7228440415064,1422.79645764107,-193.494868306787
249.901715079405,10.6052676927544,274.797737373019,47.730007352396,363.066528487832,12.9199518549621,491.091778456825,-27.7350615000719,198.789045874423,14.3596996684142,342.467429008718,45.6151051800816,1524.28144564813,26.6501008472978,363.072615379345,17.2726980430225,659.799256157113,52.8116721898395,803.885735605678,107.250547118782,169.704916308069,37.3324188435097,17.3677092794794,1.04208764146852,69.5457268372537,56.3557046685302,239.292980045206,-24.4428659120504,1394.02402804496,-189.448559182725
251.743511460454,10.9196942416407,275.572492572739,46.920016313613,374.71753042225,2.54638515168043,493.347303344785,-25.8027078106989,200.494750551128,12.5876038882009,345.607234845442,44.9608939541446,1524.88612075947,27.5191889405741,366.212966639984,15.8700944063845,654.743961535218,58.9981237235779,809.239306146562,106.574121888966,169.555064136653,37.4193272139002,14.8672905165274,4.48173475356717,65.1873768858671,56.4086819673341,238.638911191998,-23.8552436911457,1431.6820278861,-218.055456441731
258.705479002297,9.20644625409368,278.585554555361,47.0033247808055,361.462353485688,12.0931346696555,502.524866156524,-28.570298625649,200.344198665582,14.2128709916488,351.557324527608,46.2487519527626,1535.78780746048,16.9726728588776,369.04335927462,16.3854526257981,648.274468728919,60.9346801874293,817.398161779837,107.781066399285,170.286168010229,37.8524597903209,20.2101993861536,0.769162237034324,71.8102702722759,52.2386755000297,239.847242190912,-24.324273597693,1414.76757742495,-204.185998128358
250.774449679481,10.4956991240994,271.250111086957,48.7222708969217,360.975522578111,7.32717794793339,488.364509445498,-25.6457745824784,199.462359952458,13.0217274784703,339.512232434509,46.8458925073884,1509.17102721071,27.8341902765455,362.660429316052,17.0955610015892,640.271712985441,59.7818495481437,799.210966786925,107.884311739161,167.987790459924,37.9056309862769,15.8697520471548,5.93530656616007,72.3364197933465,53.9087395904007,238.402443951077,-24.3725237122363,1392.58739073763,-205.143549331019
251.181589803911,10.8228432779845,273.780220825888,48.0485667570534,369.208552596404,5.22741981867563,492.915944837426,-26.7882946659088,198.685723011515,13.2686624187452,342.253464932597,47.9563481817776,1500.25710232746,37.139976006714,362.085653495227,17.4099114851831,643.430575023091,61.49614473071,809.349942497347,106.237925062274,168.039532957977,37.7298630990674,18.039283987257,1.21378849431281,62.3760799978806,61.8889288372335,239.335328531611,-24.325128341735,1387.6663342175,-192.701621403812
257.707520470202,9.06045422308986,272.689782601369,49.3243005075857,369.073988431793,2.92235902229099,494.718522084866,-26.7972667994089,199.215457455471,13.6889261333838,342.556564016376,47.7295236499611,1507.29709405359,27.2414365829232,362.815026888424,17.9421784257782,659.172941659771,52.1332192700577,797.111531995556,107.99979712362,167.222038378903,37.7694215020805,9.88301680136691,5.17606920742484,68.3701490278264,54.0439567878598,238.584942597201,-23.9599140664296,1392.3208587779,-186.472214907276
249.930520389285,11.8358949039449,271.353898149026,47.8366931354724,360.709522066599,13.3214474065969,488.760832301777,-25.9330776312799,196.283126841089,13.9398263429983,336.251181315533,48.8964120000852,1497.59358673882,23.4698910970912,360.356283015946,17.6749195801414,643.05902607383,57.2410107849496,795.442594184279,107.588752853866,167.349808452329,37.2835275595473,10.5267566144923,5.88625147098311,73.0708316093824,52.9464693780276,238.23375678049,-23.8738334409316,1365.42039392776,-182.599949844783
254.088768112631,10.2989890360163,272.09959216364,48.9417889980012,355.218479861901,11.7272375313565,494.326358493649,-26.9436876393934,198.071977580309,14.644694190816,343.956308445209,46.8955484043744,1509.079344112,11.9612394151404,361.472573249545,18.392277189418,636.911256032287,58.0686680783647,803.876751106885,110.694357763218,167.583085125213,37.6620828627065,15.8921394446965,2.11383097593974,65.8134873002971,50.2606234922108,239.153354756805,-23.9143012789357,1378.5520604474,-182.612286457702
250.584199064169,11.5546497426459,272.522911231661,47.0389156356781,358.189935561122,10.9589297595613,488.575955478798,-25.7197465776191,195.806268787574,14.4235210911422,337.813736994309,46.058448819191,1473.34459679028,37.2714296073139,360.024507589246,17.5614354148814,639.257894321399,59.6413228978535,790.931004547507,108.254310144337,166.203982052339,37.607342936798,11.7623931392252,7.30773792637314,65.7714108824317,58.4913603393497,238.844765663081,-24.2782042002088,1359.10973103794,-179.902725026331
250.395837363064,12.3678005527352,269.54822507539,48.6361249225634,363.249822967507,4.44928986272146,489.800604198252,-26.1722879150184,197.000885852835,14.0867516069445,337.327791846284,48.3643557602678,1501.06679042415,15.3252566743863,358.114417434503,18.3559738777812,639.095196080484,61.4691218550767,794.903388593303,108.910250784294,165.873274008749,37.9427119062065,17.2559850373675,2.29736165213717,66.8058266461202,55.0758695271804,238.195565417006,-23.5057749954953,1387.09900897528,-203.109485661328
255.750783361843,10.4690379631572,272.78527075142,48.1490860658412,360.295897307988,6.64218803591549,496.499650365745,-26.5319872125138,198.659084047718,14.2960277441713,343.668200649655,48.216741030438,1507.82864920176,19.1626559609782,362.319000851063,17.3321795843772,639.297953815621,57.9762292756112,812.991646697063,107.696728995137,167.498079982685,38.0303672908601,14.4183928287629,2.47918423107455,63.2087959592805,53.5413364526366,241.372233543203,-24.3954223300038,1372.82260727474,-186.156574409424
250.398326983166,11.1183147391831,271.088403137399,47.923088351856,359.843062251901,7.1717111014141,486.419113655564,-24.3894060699443,196.131385863448,14.4040708957162,333.934939278007,48.6611479242394,1485.08787546331,22.8687806021637,357.599487577312,17.9027564256692,641.950126069552,51.4851431925999,787.878658215961,110.274143360259,165.752492246901,37.5768014756743,14.1748363028049,4.84065764743152,60.3140959238536,61.3130784759847,238.651841696412,-23.5995461400753,1349.550310687,-177.179518535268
252.198398669155,10.504606313815,271.06658934393,46.886367733868,353.982854273157,9.21717048521108,491.483109510852,-26.7808965684117,195.615708806288,14.9674246705676,336.070554466731,48.4344542413817,1497.20298163139,20.4266417216347,356.873722261747,18.8756673608544,637.337664600508,55.4003918368579,791.210598031042,113.06804478833,165.886211308904,37.779263814775,10.1975284207396,6.29219099175771,62.3738692619016,58.3487402005731,240.157448698,-24.3986860961,1369.98456472233,-183.170768873223
256.814531009312,10.9162009694298,274.146207815781,47.5052322838364,361.871371605975,8.37426739811023,500.449221936212,-28.1171066781497,199.267997380043,14.5261276542812,343.521100964417,49.0709822568195,1500.60914885091,23.6868125863128,362.177195581215,18.4444985302166,646.370295949844,57.7168808667598,810.616438613503,109.675399725087,168.248286413619,37.6911629629003,17.1822014307103,7.49228887822664,68.8957866556256,53.8007418879368,242.249968949502,-24.968849516759,1387.21284764959,-199.772163237265
250.172221064802,12.2719498482608,270.111428230121,48.6543288803375,365.37986273659,5.3830091482667,489.805109434802,-25.7516335281052,194.057433909548,15.4552191789661,335.938612495912,47.0442253198688,1485.42038329099,23.2716450896392,358.109348535408,18.6746921414361,654.506490802864,49.3028921521687,789.60354853576,109.514025248275,166.18433358975,37.4363047692531,17.2254006685489,5.02423873332858,68.8209098648806,50.3677198448779,240.342163352034,-24.0477278192207,1380.20693953889,-191.446006983573
251.100324868423,11.3763059300597,273.188296515618,46.9779406134509,357.384093910155,4.26568815467456,491.486856319471,-24.8460682943201,195.973699494605,14.8628272955573,337.435344229727,49.280072051014,1496.02202926317,21.8933877788179,357.827670262669,19.1756201975622,630.867566925655,60.8648690608913,795.267863779041,111.376919963182,166.328434212799,38.2669553888789,7.12910260276383,8.74299893633824,67.5688936954451,52.4390230374444,241.274327788939,-24.7388546291395,1384.57324132878,-190.105650143577
257.901722694906,10.6695504120963,275.440431789883,47.9945764027087,365.087627975869,7.33963289322281,500.222336615219,-26.6222479787606,198.618508996772,15.2942670320726,345.851529013179,48.0240094941333,1489.15179494243,40.1346030209139,364.209158909614,16.6355887961798,626.704937147262,65.4441366164337,814.048341616211,109.376863554327,168.933362667561,37.782128283229,15.7896425647863,4.21613604485589,67.8345389818863,55.3945666947027,243.513071517386,-24.8575383899119,1391.42058824593,-189.903228282592
252.33176607681,10.9725034293903,274.462855194229,46.6095676976248,358.935688446024,7.88983247605436,491.870410938637,-25.6588511399324,196.339010371428,15.9493401477049,336.456438235848,49.4957382882152,1492.44387885042,27.7666371497667,358.066462688111,18.4686632190496,638.779811434033,59.9835743846919,794.763263017798,110.466461436293,167.133691711362,37.8249587000924,15.8180097525378,6.21533598875974,64.5826922585165,57.496985035119,241.961779827783,-24.6393295143877,1388.14183853438,-192.755896816959
255.175652756747,10.5410210505344,273.364077970512,47.7165802313279,361.012767076444,10.9475886186682,495.46908314617,-26.5543923172163,197.922151403123,14.6188020922042,339.639605134035,50.2031280703592,1497.17347323275,32.365946404147,360.382440763937,18.5684564400429,644.321081517294,56.7567757772253,805.089061990095,110.157144750283,167.824591866687,38.0842797899609,9.31687840474558,7.83985646648886,71.6413331846627,49.4061413924167,243.109284963842,-24.8912606551219,1407.00810954632,-195.941672746084
260.170287923451,10.0020298549876,276.823457443844,47.9747444413423,360.890583042463,13.9980284807863,503.130663224988,-28.2090451760612,201.050373295626,13.6807806786073,350.652808180786,46.4535498155903,1522.99971330075,25.7654748677892,365.924152548658,17.5904342728714,643.763522067111,62.2456015978475,822.822015893748,109.513125166032,170.146017589466,38.2971923331793,21.5319078525268,0.37897928857009,69.2229264571813,51.7991095452753,244.936727290093,-25.3661897885614,1412.4025568559,-202.219204596965
253.71441361815,10.9042312515598,274.20444287964,48.8425109144992,361.412217331589,10.3228905821439,493.041404910026,-25.0048389669048,197.554442054955,15.0306996638267,339.41659882187,48.6572517468309,1507.89623267609,29.2460342914827,361.836514539386,18.5564126727773,652.363242257911,57.1627810673201,803.350459836869,110.609280190767,168.706178085602,38.0448461177696,13.9240290247946,3.23891985427881,70.5755262489105,57.5848027437159,243.097728451144,-24.625553454119,1412.38988641854,-195.902197977878
256.118005681145,10.6743798802249,275.039058776745,49.3822658190661,369.608442365805,9.54378346957425,497.202268629431,-26.225847900216,200.87304782838,13.9612559984157,343.353646376683,49.3242044970221,1544.27192931405,17.400260102546,364.006972721683,18.7858966953062,646.492974562709,51.8958571209577,812.898775989712,110.215864880818,170.02623530072,38.1697781994854,18.2979486626428,3.75755067517643,72.7343186581478,51.1514999125336,244.050092374677,-24.7025724863948,1416.18764649959,-195.121065425373
262.69906411617,9.03311531565609,278.539525512446,48.6608370427844,368.836330786394,13.490962936471,507.23697798053,-27.2484915226128,202.528860797062,15.4137353696358,353.791034388355,46.4253448094137,1552.40378576722,19.823331595846,370.011613953465,17.8351049941357,662.526521153173,55.6458820153912,827.80944852314,108.24715042973,172.527799295952,37.8584224261866,9.44798575961632,8.78741258966782,74.1106512528639,51.9652549590653,245.378960815403,-25.1663124977741,1412.95895905045,-196.82033603557
255.315676635041,10.5407510594215,275.460426660369,48.9732494593479,374.677484002832,4.07562650611191,494.663487756888,-26.1643982787043,199.001271957314,15.02836906518,342.874205003455,47.1671241352813,1525.01765592258,24.6990047550377,361.481344743177,20.2840887396934,652.398348439145,57.7393176146745,805.960891524251,109.722987294782,169.678551168392,38.1659946978875,11.4100300304106,7.14488293429049,73.969960578175,53.7603624140079,243.170613097687,-25.0655718299962,1423.05984710892,-202.782340464245
255.981970858619,11.0775840040711,280.757860046975,46.1120663404331,381.93686699976,-0.315325169433344,498.72312295033,-26.9083943398719,201.167682324789,14.0497219674046,346.771547587754,47.9327908793,1528.52678183767,23.2843072920573,366.746278934786,18.3581261172316,643.500141692986,60.8479010297497,818.321375344677,109.231148897661,170.809292906052,38.1395220658279,12.3366566003949,5.73401438641713,72.4805273450864,50.3368190451697,244.528849591906,-25.1231581880487,1425.73976121844,-194.358903556221
262.978876492188,9.87121857351048,283.199212162974,46.3934993327587,370.759641306349,11.5926059302327,509.62697676666,-28.7291287361594,204.643574076636,13.6192496419349,355.14330022977,47.5122947084479,1569.04238862434,14.8500365612597,372.081077427961,16.8205147664018,655.421341001787,59.442624691794,824.701137853133,107.737955077524,172.258589797812,38.3466273155961,12.0610566031117,6.72209261743636,73.8597888372215,50.0978136164698,244.338940588655,-24.8780186543583,1420.09577808041,-194.95095717409
253.742477863673,10.9453942409332,277.875971300889,47.88717778744,372.482922284554,6.8233071704081,497.033862581618,-27.4246843491958,200.272844204677,15.0073186395101,344.074564564247,47.3902184027479,1530.86716371211,27.9329917168175,365.71785537558,17.5972511729005,666.398668347143,50.7199566557074,812.905212842967,107.347979175803,171.150898348023,37.9241966893842,12.069536897731,5.53044064700477,62.3815783947814,58.2227571935664,243.238851078167,-24.7749454809141,1443.49026724563,-206.974198287682
257.535241453385,10.1909803414354,278.695006630359,48.0423388785931,369.753963503571,10.8031514977489,502.175319690575,-26.9733428881954,202.88181301317,14.0239247243309,350.540056685015,46.3680883411334,1559.97746726269,13.8665655251597,368.071663283029,17.3393433901571,652.108250542109,60.0960052834099,824.555674487884,106.343873669289,171.759323765408,38.2227332867279,8.66946212890464,7.20571640159824,69.6746141890741,51.3311614947698,244.607675735979,-25.0620785147359,1445.22810851543,-206.568371884494
263.67444200111,10.1933829099585,285.543102997632,47.2187834090444,378.119129638718,6.27127846537643,507.556851473202,-28.2735130896476,203.949893498676,14.062029713977,352.590282567187,47.1618807694926,1554.55599198387,27.9746296941968,374.093204169882,15.8957323383313,665.145154056628,55.7375970865677,818.862892915361,106.274297009849,171.575829119035,38.235410141617,12.9820076200048,7.91785985243741,72.6669420221737,54.2300902791575,243.716111939667,-24.7884730184428,1437.85544220595,-202.00865325507
257.044388206683,9.54579487884237,279.802461396454,45.423495593509,373.067166895412,7.25109637970692,497.822985121821,-27.0184684606953,203.48997715606,13.3037547349322,348.019251602953,47.5784555338886,1558.21747935863,14.67289443831,369.680157399145,15.8042277212431,660.073714139938,52.4303522399772,815.003010689462,107.859857323479,171.320252306805,38.2286086567072,7.19266684265605,9.18526406161153,72.2310276942047,52.1129231551881,243.089578161883,-24.9978734891183,1424.66115339985,-195.368333746081
259.354005552054,9.57066594333225,282.439560209753,46.5805518473785,373.898078048232,10.5022353785314,503.710476234544,-29.5561717664074,203.983269245168,13.6210490110874,352.650009908523,46.5881936078772,1565.19268953563,25.0909307399397,370.913216716478,15.9843839778968,665.864058842187,53.3892501837262,828.02666195783,106.639116753916,172.728130501591,38.0587821600037,5.90341901495209,13.6225147549133,75.8579387612427,48.771806616524,244.289633900989,-24.9928753515599,1438.7825852492,-206.464971085551
256.69786184219,10.2792184375712,283.647359647545,46.2415926627045,376.977429497861,11.038057990047,495.009174075929,-25.7782696296106,202.999314743379,12.9177382948512,343.615767573319,47.8507470855694,1552.41750699953,20.1501692036353,370.495877326889,14.9315038595591,655.24695027752,59.3242993895761,811.238985171941,107.368616631979,171.245729757288,38.1552018266766,16.2687445613969,4.32456001809238,67.4804388109399,55.8790879803861,243.187503039023,-24.9560351990586,1425.16005593387,-194.68305583836
255.505174131202,10.3387470312393,281.572878940905,46.1282684315771,377.711095994869,4.15007975771862,498.657746218031,-27.6075647976392,202.542797222844,14.1368942069045,346.536145940905,47.2731876927601,1559.69683082722,19.2765629727856,369.984552164854,16.0184782906841,657.577205336262,60.7879651510932,814.818918358328,108.195922258926,171.953599303351,37.8534866493767,13.7443099926295,6.75754500928696,72.7750797759974,52.6181861356301,242.706415082848,-24.5407602324019,1434.26527191389,-204.165400711226
260.357563783729,9.86748316508088,284.915958700091,45.9294290349989,374.023038302683,9.83053362997859,504.167849144086,-27.3300382185838,204.09540481865,13.8321306744184,352.599633957414,47.5262993955254,1575.77989602589,14.0678112236089,370.154879248221,17.903472556121,663.983928289265,63.6156154242718,833.180196536265,106.213451013926,173.176429985014,38.1023563929039,16.083928712821,3.47629267237678,67.2601758704605,56.3430966473905,245.314000877857,-25.5099507068647,1422.44324090316,-194.27530056805
251.608407437743,11.6371208688834,279.923314205006,45.0617067456556,371.546802893223,9.08663206837504,491.522560437686,-26.4583470434905,201.750690898269,13.2441463988522,342.090095808545,46.4812977056335,1543.46213201834,17.281794971539,367.711823088732,15.8004981477132,649.814334201927,62.7982507270508,804.117068954707,108.32388428677,170.511931282189,37.8959227706382,16.6138094038928,2.26906285493349,74.6886117152254,52.0328208467751,242.19036826954,-24.7300443580374,1423.65934332998,-200.880120306711
254.047865200713,10.1337944114879,278.622161452147,46.6578982187432,376.804934483943,3.76050318378173,493.225230348794,-25.1221645146605,201.808514207046,13.6816438062825,344.116855460825,48.4685515130031,1530.83850011026,25.7166831725858,368.711920148321,15.8309259957262,658.15698452179,58.5011211073299,811.047880971924,109.206242259451,171.071191432711,37.6085102893621,22.9434311349103,-1.20916579987437,66.9838200741398,52.916486015556,241.82240105901,-24.5952548307103,1427.5448050803,-203.276489716872
258.955159188805,9.93067031451869,284.602762575966,45.3560219253486,374.613574348179,12.1406291471895,500.675369239145,-28.0840923313251,203.230025723255,14.0072266863426,350.919291137662,47.1971689376824,1548.32517515284,17.1488945492015,368.597219538709,18.1001298283066,657.560229394317,62.0412899286996,807.701344588212,106.031327829162,171.077770339353,37.6173913066378,21.3421006979576,-0.876154533140514,69.7075027301872,50.9758640421725,241.364259260297,-24.5441269534755,1412.43196962654,-191.699976382506
249.62738386529,11.1656427214005,277.684874798156,46.8009259815229,368.126924698895,7.43399839279085,487.225066095735,-24.0322121451578,197.724360008878,14.4394452772559,338.495674203779,48.2473626800459,1514.75897816883,32.4101414951631,365.070895694727,16.7437350766668,645.568469964145,60.0927761791242,795.980256654389,110.893717925661,168.724426113469,37.9694438230332,18.1448464518111,4.07676676518536,73.7512888894183,51.80323676663,240.465496086801,-24.6676007645558,1395.00090400134,-191.020951737551
251.891998414057,11.9462066613125,279.509248020589,45.5052225067594,371.427437915458,4.76065912056136,492.178934545596,-25.1759921843291,201.931659245316,12.9107311065317,341.778015816688,49.4490662606203,1529.45132659746,19.3023671571372,363.189267342464,18.6733460778572,660.394641539726,51.6169202809032,808.650848031745,109.975631520581,169.721249964541,38.1921351713114,11.6147224110507,5.82257631308735,68.5201539812279,53.4322225990668,241.74951296612,-25.030517993009,1395.76287212823,-193.747134690751
251.510082534039,11.1131998422895,278.058892696915,44.6564129288766,366.560845214967,4.57445256419285,488.505312832784,-25.7895577041571,198.712570545902,13.7365757450944,335.645155201525,49.1775957220135,1505.31206170662,23.703817178193,360.979841531554,17.8620129897883,647.887191739102,60.9207546083823,788.190998359442,112.286140625287,167.61584922105,38.2113939757259,13.4516252066066,1.90924321000762,72.4028292932242,52.3061303617463,239.943272540947,-24.5866492253941,1412.2713130515,-204.698497045705
250.343440410969,12.1259064702834,275.287755918154,47.0243395088735,361.220536498478,10.5448953159059,486.30665167808,-24.1797257449917,195.000650512865,14.9924773072876,336.554824961891,49.9279456546746,1505.7378723678,24.0826965384093,362.252614676965,16.8822166584856,654.094396943953,54.0511556277612,794.503677459763,111.153487299149,167.459064474001,38.1324583263695,17.6216317519438,3.11004433261679,59.6067973532034,57.596532526592,239.481197022283,-23.9682633729501,1387.7384322073,-194.331734290174
252.469627019214,12.5802696311,277.219315120686,46.5184967008473,357.162502844221,16.5582058929281,494.646582148396,-25.5978915605992,199.38597999512,13.4494089731491,342.502927783866,50.0879938150503,1508.10529756623,19.5009272448513,365.031378015587,17.4220160523473,651.526035440723,59.3792394891991,814.256784638783,108.369693841653,168.826015721937,38.0920989961373,14.1392486088209,4.25301907231407,55.6762429834982,64.4109671994572,241.386370729719,-24.4719887958381,1394.73295958319,-200.316521666875
248.504783518126,11.7861708974264,273.484716766266,46.3395805788502,358.749964952059,10.9721141873635,482.751436333974,-22.5543283186862,192.556900557266,15.7017394870208,332.990985362919,49.7587064239791,1497.32396929086,27.9364141012646,358.824946337796,18.7480427938491,651.315798781062,49.9789141035516,792.080466953165,110.732080169758,166.89620731045,37.6309266568176,10.1660194172132,6.51338625406207,75.4701329114694,53.6873571589724,239.425772320622,-24.3661666311848,1382.29536382333,-190.501987166673
248.384405666493,13.3498755227625,273.574855951339,47.6611769012836,362.121523778693,11.0183800846975,487.74396598589,-23.7834015673954,194.404729468554,15.666795707295,336.716664812256,49.5879662787576,1491.9159088226,19.2513262281996,361.409044651443,16.8844154598836,634.244263025662,63.0799112352175,800.974208168021,108.856412307864,166.823503551055,38.0404933319076,15.2274673787496,5.46851628880056,68.2923594814825,51.4886543583611,239.910075675826,-24.5078242819437,1401.78347640758,-199.353239503246
256.608023693812,12.1083896012583,281.951524638703,44.251323037391,363.897471407094,9.18632308191268,496.774896213241,-25.6988009091779,197.723835071019,15.5138527926203,342.683151014943,49.7673646910227,1501.54592716732,33.9691929404752,366.243659471657,17.1759386600101,639.247005207893,61.8838371531432,799.472508959983,109.405317160929,167.319221658633,37.9049328591857,17.1651390180446,4.75955427326051,69.1057039992087,53.3996548233769,239.816830777371,-24.1850706921958,1373.34736999984,-189.195844085876
248.778277894031,12.2048489183904,273.210977449283,46.222753137766,354.624851302149,13.4359424157656,488.996531185291,-26.3555792976098,192.935203433496,15.7723337490917,334.713939252968,49.1154651300224,1487.56022682961,19.5488624352697,359.349399706403,17.1348933410881,642.26481853784,59.5846511875829,788.95533471592,110.297270305652,165.598875370319,38.1138656667842,15.4399738294201,5.79245755908353,68.3604467789774,49.7996070890115,239.554962484427,-24.787487325623,1380.35707408395,-195.277498702771
250.263808309242,13.1510142314061,272.966295034974,47.1319656141362,363.002491875725,6.61644034446107,490.966994428626,-24.173088795032,195.633874280615,14.2373881659701,337.92068288,50.8676601148148,1495.74777214632,18.6993488758396,360.194830666747,17.7062909810119,652.21353370528,52.506735961023,801.998574139888,109.958919926478,166.204656818672,38.1222233171863,15.8321049752939,6.19357878745298,67.1227990769544,52.8499080326009,240.315045720164,-24.7244891438492,1391.68528352211,-196.528825820965
253.793373322868,11.8838898934175,275.366681636535,46.7432880834303,367.510723408883,4.49692577904077,487.775300214981,-24.3527292351096,193.749692405722,15.7679623133406,335.397953758074,49.0513222007778,1488.79573200164,21.0164547345745,359.743379197716,17.4552170299149,628.440636867608,67.8455553865437,789.245647581601,110.340887210522,165.551215348618,37.8993035241793,12.816421780348,5.2461411895595,75.224478806732,46.7259673487603,239.420380857725,-24.4297694790494,1387.13725115312,-194.757227479972
248.256780444591,12.3111921923405,273.145444125758,44.6842396680787,358.256496128563,7.01912968943704,486.79813107426,-24.0733575146924,193.462029279566,14.6945864722059,332.083151832502,51.1329946497203,1473.36475432465,27.8081808389257,357.296293505704,18.9318843709419,636.471831939526,59.4454199847446,793.792150099742,107.468046019153,164.754767309304,38.1644049510199,12.749268578147,5.24542587175572,64.1507712454912,54.6653559026414,239.789197107782,-24.4457318551373,1373.42891321041,-190.365215889613
250.174637695013,13.2111514377319,271.676503064439,48.3528563760137,361.125942788784,4.11053001548933,493.891125535795,-25.5394052831517,196.657008421803,14.4009112250338,338.675823958462,50.772088847856,1492.59610572382,25.413085152319,359.135332510226,19.0583221854951,633.1034030606,59.7099828956438,806.629725687965,108.59538140971,165.547159138841,38.3943245189612,13.5440454125304,6.34519616600082,63.978590748745,53.0974572513432,241.150319781495,-24.5310392296569,1375.95985473185,-189.125889148816
