250.544309822055,14.2094198337098,274.131566242552,47.0088563676807,381.812994857422,-1.15355994340061,501.536323675628,-27.938842717804,197.600498370689,12.8092310630672,349.264802622543,44.119006408862,1515.14507629506,7.60398790598837,364.931684071593,12.9571980062897,638.834852052168,53.7437371172287,800.645457843885,102.833917215813,166.928664952252,36.6531395847287,16.0347685738287,1.86062138828199,66.2555922155877,50.8447058643867,237.440471497669,-23.815274764875,1362.78089375447,-194.319024647277
242.401170782569,14.0843095765079,268.4624366965,46.6808883031533,363.496048162132,2.97888516823981,488.088698788044,-27.3289995515228,194.387569028096,13.0689403314152,339.002378244046,43.8678621441976,1502.07570481791,9.16817731098376,356.143844452581,15.9728389237239,629.728945982978,55.5700216901801,788.428510125361,105.36261152521,164.726086868594,37.3207316111857,11.9925965523614,2.91907051845639,64.4723092056424,55.4218287874258,235.502202399529,-23.1485414416704,1363.51998934034,-193.594447866801
246.685636827452,14.0833375078213,270.510713157015,45.9814655584493,364.666290583209,8.61651933354018,494.91341999245,-27.2980629664311,196.052262168304,13.4661451072764,342.350725327052,43.5198032726931,1500.7608025118,0.828747273792676,359.721184348638,15.6963544630858,632.421285707179,52.6403802126534,794.899039712711,104.919309609992,165.727866215824,36.9378118714833,15.9402922562432,2.02137250447116,73.7428956778127,47.8842811419391,237.323725654393,-23.5439451645627,1372.9924647733,-192.532707327087
251.56790707603,13.7760272131953,277.477840378167,44.1257238631031,368.397530178129,5.21747994244935,495.220220763338,-26.5553131774533,195.566479782526,13.019288940763,341.250603213989,44.7211562122671,1498.74947793524,15.5371058422096,359.275405617898,15.2565780214799,632.52289806103,53.761989477937,788.987018909657,103.329690536238,164.727684761801,37.1817689111182,10.9790142128892,8.63835298261464,70.8839577446565,54.1969193377664,236.045785495104,-23.3978442755798,1371.09880140894,-198.699113337997
244.384656882044,14.6196683931735,269.718890035609,45.7656616167135,363.105060779014,7.86369525510285,488.815653688041,-25.5577711745743,196.893223493364,12.5158357647956,340.254659261745,42.891324178658,1488.1061244647,15.7859831272844,358.213164039114,14.9697952894008,629.404869313873,53.5687749550347,786.169432928195,106.855540891653,164.814489911725,36.9820894857034,12.0275392604878,5.73387336424091,74.6533513280881,48.4573202797267,236.059696224215,-23.7539894926496,1372.63776209574,-203.883912050195
248.723689859179,14.5980467866701,271.494574870693,46.1105221727948,375.345960651287,-4.8677888976666,496.219876793636,-27.12559035534,197.66815124141,12.3346697680529,344.920393451209,43.6351560372108,1495.36781055404,17.2945138324115,362.781316253782,13.9844001724942,627.608621431542,51.4076211711358,801.449683952592,104.688503453429,165.964932832448,37.1738459910349,18.8241526493658,4.87186312624091,63.0424160404664,54.7676484551471,237.855312467106,-23.8900216336768,1367.81821034125,-195.695326979067
248.351037412837,14.2315924972763,270.753348659863,47.410012313673,354.34915446825,11.0208043329795,486.582033723949,-24.7901555935321,197.861717904671,11.6289682304856,338.041433352212,43.0785128076854,1486.87293666621,18.9128101370428,357.057395288437,15.0955777734007,633.872470162825,52.1632394848277,784.766760157761,106.310593782769,164.957251181605,36.9019579281919,17.7652854061447,2.7540093729492,69.376813454823,52.6777617771773,235.798321107386,-23.4557957972078,1336.51389366001,-178.929579555206
245.605673819142,14.1272022541294,271.40781320962,45.2235203330466,364.182013493506,2.21167182851834,486.34401486274,-24.5368775500971,195.354121098134,12.7177287548359,337.580634731409,44.9900893073418,1471.58834490621,21.620167883708,358.551373395747,13.8445200006017,633.063854364794,50.2269308215369,787.600893094121,103.763832889688,163.967938675455,37.420246247044,9.92239985413408,8.16113768774612,74.9272486191985,48.3574598762202,235.702920095311,-23.4731989208947,1351.73681799023,-187.441318971017
248.675836436333,14.9843846042908,271.887157665932,46.0778064379754,362.598838051548,10.3917541896193,495.242765517233,-26.7852832156097,196.620049317841,12.912108339679,346.095623029047,43.5938778944681,1497.92233912441,9.31627545502206,360.706234753207,13.825010544515,634.889537498632,49.4400118120071,802.321399197782,104.283855573502,165.928276842558,36.6565719667785,16.577952992881,3.53884111099454,78.0441872822589,48.6779053632579,237.747428590149,-24.1821176572852,1369.32898942386,-200.908769427852
244.076944778891,14.7623737144648,267.497765626331,48.0949803804139,356.822502135153,11.022607208807,483.060439284285,-23.6700776031537,194.637143018756,12.369165629538,338.18562429503,42.6528397645514,1460.96262414959,32.1974471542456,355.429636054865,15.2164058352797,636.137825446551,45.9994487671556,780.42569712265,105.884975194739,163.009174588856,37.6462557550076,15.2187702682627,3.20938664434792,66.7316934485651,49.3099122186346,234.798133831688,-23.2695219382528,1343.07019022146,-195.512594041193
243.962256541095,15.1547602391363,267.3156635115,46.842380141748,358.251013523805,7.11335687478797,484.282245198934,-23.3079843256088,192.67948924183,13.401586389575,337.563073980141,43.4968952974827,1465.57263412063,22.451486168495,354.436155813613,15.39791739094,615.200974835424,54.6699025097863,784.477328694764,105.376907294545,162.80165923968,37.5324845689608,11.3435667078624,6.92907776036432,59.8654388934179,53.515261884872,234.796801388993,-23.5118972396648,1336.90325157639,-184.435370115123
248.640014928316,14.9028597054525,270.317172274297,45.2398925885187,364.381450612967,7.69354668771975,492.916741292802,-26.4201278158652,196.375930778948,13.2531024548092,343.036579568518,45.8402171299388,1474.93711571321,21.3666198039418,360.538044686227,13.5732370097741,631.0887468472,51.9277145662864,798.703003970158,104.62998015296,165.245190511252,36.8675856774113,14.3180921119913,4.50418248443699,73.6500633556178,51.5248565359466,237.251214308291,-23.8971112191748,1362.16735704998,-196.669883801787
242.097506703659,15.3702597957474,265.162260988249,47.1246904660025,353.132368750678,9.82351918276701,481.325533346746,-23.7108926432093,191.256090870033,13.2431237676455,333.432438846059,44.438797629182,1454.01573535737,24.3923268667157,352.783241283846,16.064871307021,616.589390408451,56.1872413596041,775.100328957359,105.867189341404,162.238103679474,37.0491373282639,19.2066063785725,3.20690802857995,74.5081759781953,48.0582507160694,234.157650668464,-23.3335636667008,1327.1057062255,-175.139502838728
243.371044785409,15.2848793432733,265.849364266104,46.3661846726267,351.124306714923,2.99573533940573,482.219747920843,-24.4947176735217,193.643899158275,12.826782223684,335.78450626372,45.064900061412,1459.09495145235,21.167640657471,351.863550012251,16.46209262969,625.678889549071,50.8152099939055,779.43424963851,107.146960640353,162.513376479934,37.219772747752,17.7262285166324,-0.684894300232244,61.1963023742259,56.1786750820807,234.415805266508,-23.4487195865256,1330.45578073471,-186.158000119831
249.090375582472,15.0610379170581,268.256376441233,45.9855560732511,345.524279602014,11.9892856891169,492.139153366254,-25.2520333889831,193.681626815284,14.1982276439063,341.491380512358,45.8801756652094,1458.34599910202,24.6209291911652,358.405778006445,14.6679817064277,612.782443420416,66.5005835279059,792.176351825191,107.739874716014,163.863601850075,37.4191595354692,12.0977104289141,5.32958507358587,69.4912031774817,49.2907686184253,235.709735621502,-23.439240885676,1334.81771384399,-188.772081132964
241.238475510067,15.0716689220019,264.400034414755,47.2879958802065,349.308339446736,10.5037168404477,478.48278030716,-22.7988377714457,189.800320515742,13.612142595554,332.846696026814,44.7799035462155,1455.78790368738,10.6197857258083,348.761170774189,16.2881614360773,624.416304043317,52.9206334530977,772.412500191263,107.28710649959,160.794432810272,37.4161673664118,16.6323907108013,2.99253203212955,69.3311794559859,50.675093720609,232.596148053502,-22.4105956224984,1338.27820933703,-191.171774608177
243.164927589448,15.2225635821817,266.099579871501,45.5711771580676,343.542818831409,12.7682355317559,484.122653975095,-24.9285995645634,191.663265447807,13.1480313793226,335.205498018021,45.3743409580561,1438.19951058552,20.0375826545218,350.395683595086,16.4549159327923,613.309431354102,62.8684774914576,775.931856678146,109.980818739519,161.424092699758,37.5573034896288,11.5590503595589,5.33386114926323,64.4036097923918,53.3740254925029,233.731244222093,-23.1839666630776,1309.16188827982,-177.620874024694
250.420913110686,15.0117505276159,268.177507386893,47.4681906137931,357.283148644965,5.00635370518848,491.508825312291,-24.9653140291639,191.071343097387,14.4457026642936,336.842313166245,47.1164278607904,1457.54890354136,20.2269843841559,354.074295800505,16.7320293645339,625.210575720954,48.9006425692768,774.253663897053,109.030321319256,161.942029752857,37.0050831329885,12.4776011081891,6.169889769806,69.8633921699815,47.7240210121165,233.248310329829,-22.9267751761871,1314.96383198828,-177.493354010755
242.916729649114,15.0721380923882,262.428253145961,46.6201767977219,341.948694885959,10.2748897162636,478.995225076095,-21.3053662420632,188.635626601613,14.3951288853055,330.088544724161,46.7385298677642,1407.26306703298,36.4031146346822,349.439902992864,16.658016454997,611.79265254638,60.8721273295992,769.989807762205,108.068076852477,160.026611280436,37.4646725787826,18.2375071786597,-0.494171909656348,60.8717931001948,53.6715355017924,232.480691007476,-22.6997019082133,1309.49196354213,-181.003614269554
245.166654983201,15.6891468193147,264.963821217271,46.0448265066092,348.523863721986,6.9243746603719,485.984759438266,-22.8800579864364,192.319203899921,12.9378846106358,334.826430325102,46.0624044345252,1435.76471432851,37.0542581794769,348.654247206601,17.074234282709,619.703694805118,52.9270497557938,780.982012068905,107.295500051769,160.973596706562,37.4272339144077,17.1459902020706,5.43932261527625,65.9793293956057,52.022737194184,234.429485482225,-23.2624168006434,1312.03841378941,-174.904254937925
244.300759494612,15.3615491004962,261.830620572474,47.8476434705604,354.951463240824,6.38706017171286,481.866337023324,-23.7162435531585,189.727009902756,13.8063680641984,328.562909045477,46.1991420239565,1415.46022486912,30.567724442917,348.771181281249,15.760408118338,608.113762486746,59.8594801827958,763.035962975986,110.773157077441,159.661258766758,37.6095718720167,15.7748935198939,3.5427257824339,61.7146884820353,57.2650399532438,232.789179821186,-23.1032900852453,1296.75799796525,-167.492120249918
243.017843119698,16.3871201589853,261.254602593697,47.771041879684,340.96464110706,12.652819816503,482.212865312653,-22.0157646950348,189.297655133297,12.9795267690692,328.824559168758,46.6398885678027,1413.01454296653,28.737213790689,344.102094492959,18.7765071514642,605.228700937285,56.5346660840312,766.557453238375,110.798190069478,159.255195606838,37.5038040185976,15.7993482608782,4.3528898526731,62.3248860121724,56.8188507315435,232.286767792767,-22.3632484635424,1305.84147984267,-177.785403279106
246.682146723316,15.9223948097338,263.930914296828,47.0855893770795,345.331413566041,6.70042665351978,489.81362291277,-24.7488041155069,191.235729153291,13.9214339888469,334.402244495839,47.8817155276788,1432.77291362617,28.7862357544029,349.716838292447,16.4087224401735,600.705772966568,64.168653893269,781.980287848108,111.743923296033,161.588342449432,37.1021776253902,15.5525834449993,4.61813506857337,63.8760186599787,52.9456296589861,234.91428853299,-23.2364401089898,1321.14447237445,-184.332125169123
242.980677750633,15.6588469030697,261.848526686028,47.2699292321299,342.186990705657,13.1666023491412,479.526362606559,-22.4664401519401,185.779815768943,15.0485636745549,326.515411684801,46.8348558680958,1393.35828862594,43.0670605305236,345.619800649628,16.7887876091622,599.768302698629,61.3490390717472,766.366483694957,109.482132904646,159.105456967883,37.2928494751495,19.1142890042698,4.81540197130981,64.743362386939,54.6943631427086,232.796876287396,-22.6206912725529,1303.98936564618,-169.499903105075
245.354687644173,16.4310872636395,264.186300636496,45.4480071871915,338.844341358492,13.5426205886196,485.370575165356,-24.4901462983819,188.043195290624,13.929408588212,330.608423035267,46.5592473380736,1412.53705051585,31.6964902054964,345.806285402264,18.2999954495745,597.745757280801,62.1386011447201,773.778815106014,110.695292915779,159.973105595708,37.3711230916819,11.9560938431734,7.31729910493857,70.7891388094434,51.3295701977303,233.439517791301,-22.7413908980036,1318.47151990773,-177.560741412687
250.649938517289,15.6128294432832,266.723862915908,48.1270073009089,353.370320576252,6.91324286554535,493.518551154034,-23.7916433413483,188.755181594424,15.2425191993454,335.33318445572,46.7062445976539,1439.62598268447,29.5737747998481,349.992783003909,15.9500333819923,608.498252073036,62.1580612926304,773.833944750757,111.40026421031,160.412415358715,37.602667586979,16.0696329261179,0.934778722455578,72.1542601942412,47.3940209453322,233.727214495848,-22.7574954203895,1326.99378468596,-184.598342634966
244.469025668254,16.4432509589653,262.699507451977,47.0770970215279,350.097483455456,5.01866950304258,484.558037824033,-23.6165924498769,187.433367450862,14.3152505171915,324.784032220774,48.6624613313524,1423.19438027155,26.8620115911016,347.346081431984,16.5832522049404,611.347137443145,53.8675950640604,767.94959218053,111.729383880274,159.523303503376,37.5939176969775,18.2593305416557,2.22440215241484,63.7176516864782,50.4043088007699,233.213743634737,-22.5287530998213,1324.02818945929,-180.373819410925
247.830741012738,15.6096113640028,265.970672244974,47.0226732126428,346.467118922928,13.8724335473863,488.366806002939,-23.7680345117481,189.933607396549,14.1999769878257,331.54916923517,46.6266255719632,1436.53926469484,26.2232798824986,346.473367771599,18.9722120201741,616.462284298712,51.5139590410558,779.228885071721,111.762222786904,160.511214450856,37.8023346763784,11.4092823670772,4.9954679180284,72.6711033443691,51.597671007541,234.72511641366,-23.0642822794585,1342.97456611938,-188.823165599214
248.905452880162,15.950194665326,267.155121534264,47.9886195183049,350.344661068449,9.17467677486274,483.370531150222,-21.6857591313293,189.113463029396,14.7129089834357,329.067531017969,46.5968097552397,1422.99409164344,40.6340466544186,348.163823868356,17.0916548005056,614.542053983442,55.1832616734802,769.978308087285,110.851216726763,160.820050437676,37.2974967262669,15.4735070115215,3.6394426236936,61.6533037421719,53.5597586104746,234.325686087388,-23.0913547728806,1323.96225792725,-177.330223543977
248.250870035412,14.6263015496004,265.899778192248,47.9438026299917,355.704359284315,5.51630093456417,482.280546500367,-22.2577925074947,188.87304528413,14.772630645909,326.422086786583,48.3583482536649,1435.93863375707,33.6522213869315,348.715454056674,16.877080991097,611.839117802687,63.0777830153896,770.474446367232,112.617997961507,160.177416916186,37.856153056251,15.4853816120194,5.99756796111632,65.8659357211183,50.7098507476153,234.147999444932,-23.0768757571771,1350.17391471977,-202.720814748302
250.277134385946,15.2892622940922,267.134643437871,49.3259112908199,347.617592438732,10.1807910548163,487.677700998692,-21.9769412531003,191.653509253639,14.6300725848095,333.191233560416,47.1176970101674,1448.45862382684,36.6413544553106,350.219831828877,18.1557986772826,612.270803432443,65.4015826963439,784.574276529688,111.924774216896,162.467830266446,37.5792195631283,5.38007210419074,9.57126592127041,63.3384916845589,54.585140755566,236.407621609202,-23.5984338530687,1346.33658873393,-186.179850343338
245.306813350293,16.5920590190902,267.107702495763,48.5375329343819,357.93396044735,7.03692306357778,480.744799429916,-21.5711427129125,189.422832242711,14.9315594645297,325.572396743551,48.7000701443094,1430.79734602054,37.6006400284093,348.666393737239,18.0988740025519,622.796344118183,55.4906023588152,769.265431798639,111.600667253279,161.460193934468,37.4071031364636,16.5674960172889,3.52214487688659,65.0809981961558,53.0834892750803,233.836229521411,-22.8885443538853,1337.53082184218,-177.891924427451
246.95880856985,15.7465386405584,267.479052571328,47.2426773356715,355.023425249241,10.7551087626553,482.704744978363,-22.9706820082075,190.055475767782,14.4500496646424,329.839383804726,47.7394311824713,1459.20210918079,20.2930979585837,349.320639720276,18.3043872802283,612.541770899564,59.8324643627437,774.685338840484,112.918951635042,161.932110298947,37.5547188659675,14.4303089943495,2.68278505007763,66.6205720501787,55.8434069452171,234.190138861193,-22.6222974946172,1353.47384083166,-189.464917459662
251.437859783824,15.4357990057376,272.479364761673,46.8040304042394,365.756986448282,6.32787689300201,490.406468901945,-23.3577834722719,192.781668512517,14.7366898248073,336.914188644635,47.4654439394649,1472.76075477024,31.0184651104961,355.516167013206,17.7667874573835,633.702019510234,56.5048857590186,792.124697773191,111.072679747736,164.60429465916,36.9421045763816,16.1493675394631,1.42011122879115,60.5720191032347,55.6080458880937,236.392207532133,-23.3301521555464,1365.26427231437,-183.665208293515
247.121427046237,14.9554240721743,273.392268145371,44.8956120866053,357.976013089491,9.33269972644031,478.554316459137,-20.6170575306993,188.359903359554,16.7554538723222,327.857389851824,49.5253176360689,1457.21059786474,30.0468808043089,352.549883384231,17.1695450504146,624.966279851324,58.2437037896465,771.297635990571,111.783237290954,162.403685590877,37.547186129481,12.6732596957081,3.69183871545032,65.2196896914968,56.1718861824799,235.37080643622,-23.7858411499017,1342.45659694923,-177.678338290744
247.775623825509,15.5378606804114,269.592815312069,47.3249861157591,364.537985803499,7.51362405452738,482.534168253229,-22.9783266234323,191.924002592315,14.9772069124891,335.484115458333,45.8396561043382,1467.16530503361,23.8261451329524,351.768664520596,19.1457893814653,617.390581066867,69.5631784515312,780.425925677091,112.912373517201,163.410871836481,37.6429711766974,14.493107540067,6.87571971822384,74.4834019689136,47.1626781228234,234.218549837751,-22.9348834249811,1359.15994368497,-185.237411491503
252.887077058847,15.1656707998253,275.260404111896,47.3220538966238,363.274086901529,13.6713588375872,492.196120021195,-24.406311456078,194.31767214471,14.7758488076331,340.929224517853,47.2065729582683,1483.0488673094,32.4189286869159,357.565433888862,16.9056371257744,631.500228551065,60.2316999296706,797.268748293765,111.428420474307,166.349249246671,37.0068519805234,17.4803524612527,2.28934567667847,74.5115079634125,44.4740103641134,237.283168012277,-23.7515359915569,1365.36794082738,-190.155897909868
247.136509679416,14.6042721877184,269.468175057954,46.9258145894552,358.371240749067,9.84910460498172,477.875898992581,-20.8978750038266,192.169980357476,14.5189022789836,331.453240622271,47.2621991597023,1462.07506408857,36.4465167211433,353.785948544654,18.1312553359162,640.334418667158,55.8356529871029,775.951709458596,111.643465291381,164.047117709826,36.9905819184955,18.025606623416,4.01530525967772,60.4913839969417,60.240440496071,233.681486840459,-22.5063527717028,1360.20366189302,-179.266805535963
247.777431141656,14.5240964054415,273.535049484827,45.4755846843683,370.005608132519,3.7844636222494,484.010504914771,-22.9786892375401,194.343807342866,13.9254998858668,334.417011771503,47.5116603475648,1478.58297074248,30.7382381681268,356.242447557887,16.9638418692573,645.96048317741,51.0495978948612,784.925837867664,110.151843091358,164.718013316625,37.0390658855065,10.2045380644484,7.00494310847419,66.7841241596076,51.3769545054874,235.502714717182,-23.3843074067843,1361.79108534233,-186.760074094706
252.767703792294,15.4911423176551,275.743523293364,47.4278560034288,372.018356653896,5.13308639800729,490.46549334491,-23.3895699341786,197.153936048546,13.8605884902723,343.249370040659,47.0836403615887,1502.54761280608,22.9967521665854,360.635464902568,16.7132585502539,635.320177354432,56.8899002677143,797.277877137962,110.321882957268,166.339790748534,37.4121334893911,15.4836046284467,2.22886611879081,72.490682901736,51.5894367307774,236.45360698796,-23.6263635788706,1390.52829019322,-195.86383482106
246.433577158422,14.8927973766314,272.451275534365,45.7944962000323,367.044529065827,3.01932999509429,481.560509721651,-24.2171500438125,194.713662504166,13.1729293226296,336.714653945984,45.6115177377978,1483.21207300909,31.498656842636,356.631145685245,16.2963842375603,628.172487536415,65.3412750099438,781.585680858801,109.144665995459,164.780232404163,37.3250750308138,17.6681202560117,2.72193443097353,72.3680108121977,51.6068068606851,234.828732965435,-22.9190734595849,1371.14424153974,-190.015815131716
248.771313442232,14.6692923905538,273.279730585519,45.9700020113729,369.97192670424,7.2601832488259,483.539271850662,-23.096209775901,195.715066180514,12.1490332471167,340.253287177854,45.4934267663948,1497.48258263681,21.0742863396176,360.510918480508,16.1688512552124,639.4058213398,58.9481011501799,787.541327728636,109.46315180787,165.386590849073,37.3820626244086,13.130709151547,6.76206209332163,73.4367934167679,48.3086845713786,236.359919028513,-23.5065644206694,1370.13862698888,-181.520703818857
256.146474252202,12.9335827868633,277.226628543332,44.9216497212333,360.00434037442,12.3186599585141,489.721244227843,-24.384880449179,196.819822604073,14.1203345079261,343.85031304892,46.3081229573196,1497.55947078487,37.0825831305324,362.708597735606,15.6516942438605,639.152531173594,62.3667224068215,791.078462333247,107.324607912784,165.614560869699,37.3218998775286,17.3588181333099,1.76691204802725,69.6047944873001,53.0202327819873,235.921831086456,-23.2866560104127,1363.58951323782,-180.513555483587
246.59584255221,15.0228228480518,272.360752743156,45.3006707095459,362.600462697842,10.0970147167379,481.496904590179,-22.3813879011872,194.793199704038,13.6669487016643,334.627218601022,47.6106426672799,1492.40706651422,21.7692059166719,360.34146750444,15.0135829531185,639.237211342932,58.608107876906,780.628249694243,108.587178982378,165.433239829232,37.1533702615503,14.2588266113109,6.07064015359691,67.4991809683483,51.9796375834248,235.554941027603,-23.2506149253945,1363.19033558695,-185.58312622262
250.549095182126,13.4613959476167,273.557919049388,45.9029833232004,360.950768765961,13.1965605003417,486.656365622144,-23.4345706442735,197.48217044682,11.9266701241101,340.308207594544,46.9433664293853,1511.6568825017,21.1887759713801,361.116521535414,16.319069333923,644.780924585781,58.4636670895463,791.686301524339,109.782970460187,166.095159714709,36.8643134351164,13.5421085218915,5.30214324127583,68.8275444292878,52.2178708150138,237.35123055872,-23.7122687765521,1381.23310602535,-187.936849062762
254.727729090367,13.8215963098658,276.797083500153,45.5171861239719,372.217546236736,3.76699332845629,483.457168456513,-23.0189960619506,192.647541092352,15.176724281173,336.043866825275,46.0114541591146,1500.11582077275,20.3398493080148,359.408794646383,16.3088095434304,638.655912222742,56.6210229758719,780.924725079388,108.152459059375,166.279714097903,36.6185466563402,16.0404397233618,4.63308446077609,78.4662224864811,49.7852133620527,236.229692104976,-23.6937222616358,1376.93879882386,-195.518510470153
248.009154442424,13.2264160875422,269.003473779083,48.160629823533,362.035943785728,8.9467707733718,481.065170978196,-22.9523911625113,193.20267570217,14.2706828446474,338.29017178345,44.9324638107891,1488.83982424366,30.0661483134744,356.389063304172,17.4858005333647,652.590621033418,45.7904367981586,778.486317214364,110.382157424458,164.885487755539,37.0484613603114,6.69725931627223,8.18620401503741,70.9619222860922,53.1287557053735,235.450177432963,-23.2445343608835,1363.46286369696,-185.963918036527
251.565642352317,13.233060151006,271.990037396396,47.1101048226842,373.905911465588,0.879337426571401,485.559447333005,-22.9229242763443,195.663836382163,13.4402170289778,340.452697531509,45.9235869453063,1498.6333624111,21.3280619084232,359.64093744848,16.5933061223584,647.606043243766,55.9019662558566,792.449028515644,107.759296121479,166.104695902329,37.1331453643779,18.026775011935,4.89640765064971,70.2940021699539,52.4521154944476,238.000502251195,-23.778751875446,1368.75144036026,-188.068406894382
249.30737376595,13.2033903258913,273.33392557663,44.9731782441195,372.645212088084,7.3244287445629,479.499017316526,-22.5287129245807,191.470084998585,15.1196377940538,333.371050980124,45.2610289669217,1472.01874893456,38.6391672605127,357.234908292585,16.9431464303375,635.794666556393,56.3611137552255,777.694789688783,108.806871875166,164.707627515646,37.0757436004898,11.1134889065323,7.74158629824523,69.832287082446,52.4384524997902,236.022331424347,-23.2199066593717,1369.47334053846,-195.649855013582
247.441281829372,14.1487728492603,272.428806365787,44.4847347952931,359.313519139173,6.81330022011869,480.22441097464,-23.0290010897634,190.166665260209,15.7759973277949,333.551018769232,45.2861483322949,1469.68830857488,32.258206184031,357.093174070113,15.6430079393527,632.499972207405,59.9992089110046,775.659005733516,109.861237678811,164.695062658069,36.945415197391,13.9163968587902,7.15467803885872,64.1357883330431,50.5180105202738,236.303279458119,-23.3838172042333,1368.91890618324,-197.19760395762
251.887686036801,13.3834700353467,275.901963788731,44.5827702940073,366.774382898113,4.47041965074199,486.184873105074,-22.8686069921081,194.718829379603,14.0366388297196,339.914852418305,46.0945143841353,1483.98347245124,32.5496733085174,357.847624573912,18.0007737508885,628.555178928752,61.5219033744924,793.756372263499,107.743708623377,166.380041457866,36.839103188628,13.0378002006718,3.12223889722631,63.1489443388363,59.4965812970178,238.451717257691,-23.8903006385552,1378.00503831451,-190.406560294839
246.412599563784,13.7736655880105,271.576101402418,45.4946573638923,356.277574686168,13.1441158736262,477.774613055568,-22.0800542948442,192.72950816787,14.3263926758335,332.839193994193,44.9006557545281,1460.32214029646,34.8598112463971,355.145093148723,16.0857068165934,646.418751525716,49.1321680423588,772.702158503847,109.595134169507,164.191471933937,37.0109098442406,8.88620246108414,8.91291316110943,69.3088028513651,52.6231992990927,236.703505878311,-23.5898932555781,1356.57790511537,-189.997062223683
246.038515963183,14.9677309013841,268.023320306384,46.4056850019574,360.615670483503,12.6555763105326,479.241977074753,-21.0298496484008,193.203260939675,14.012884155393,333.842160421901,46.785722725528,1473.53507384178,26.9574973358651,355.702959832772,17.239632325989,635.504942763371,50.3270044044628,780.653351189184,109.758070198399,164.409068622096,36.8423306557561,21.5264193444177,-0.915962156395171,77.4006039051932,48.225735919037,236.890021025164,-23.3795724109507,1353.1577460509,-190.143140105121
253.266160394812,13.8530508618147,275.233597597342,44.7249021449981,356.29784918823,11.785593424419,488.285172878238,-23.7031731960637,194.691077181206,13.8364517001269,340.741200101792,46.530147769735,1484.93737896048,23.0209143247886,359.871780237149,16.1935161963761,632.45145005678,56.048364218654,784.288693069301,109.234547698152,165.47581082883,36.9439593191345,6.44935589525802,11.152584869811,66.9794914063169,56.9792010416626,237.466662634276,-23.6719776105334,1345.24596577827,-178.354283867883
246.928055360509,13.9097491633135,267.875197374984,45.6871646535268,359.533254882361,7.67315367287106,476.599380420312,-22.6070572419518,192.072283744026,13.5584318496432,328.426523367051,46.4210257247498,1464.4490405822,26.5311422532244,351.261014312233,17.0775461455427,619.377443473358,61.1946986626802,772.614448925802,108.783023051733,163.373617673207,37.0318655361003,11.4127386518898,7.35570067252184,66.7325843483236,54.7186902972924,236.656123347633,-23.7945298034928,1368.63992881267,-200.360106944249
246.85997105555,15.2172657826696,267.855575030692,46.999501408138,362.076972336073,9.09058277235482,482.811417804513,-22.9802305613033,191.213637625559,14.504401118346,333.037466043154,46.4878181316022,1477.99473099157,16.2737908247137,353.801834553819,17.6441059606195,630.509448497386,57.2724587927687,781.312976558443,108.551764169239,164.134316022266,37.0238064629587,17.5065382671561,2.53241999844777,68.8196210298364,54.5300648389095,238.238452099777,-24.0444245507616,1353.82112148698,-185.426670808719
250.264586269588,15.1385943324789,274.917878201334,45.5870130900181,366.179298472907,4.9933892469847,480.445641918726,-21.3993602659368,191.274886235158,13.9593265636573,330.927077126822,47.613195504807,1458.29674982031,37.2897420473644,355.895972989918,16.156201990222,633.011833697864,55.0894882968704,771.105981008683,109.505273777486,163.155172692098,37.1357256475894,13.3683973385583,8.67408679390407,70.2071021523674,50.9826792254778,237.527820372968,-24.1334439032276,1366.26372127499,-192.412895303088
244.799759821308,15.369557550373,270.640241328209,44.9728252267782,352.475736136112,9.76253636110125,475.270334389412,-20.5368447671682,189.644671770843,14.5903388890176,328.771922690709,46.8196076882999,1450.32339686412,27.4543509296879,351.589373869791,17.4584809839678,631.418915142538,51.2464071294339,765.251826821934,111.687896700205,162.36705384811,37.0793879792479,13.4587309578659,4.38521392688328,69.5260052946362,47.2905030283969,237.19674444406,-24.0931206998595,1345.57938611138,-180.490784800382
249.0432244889,14.4658345382562,269.390623537744,45.8921417482688,349.867897394497,13.4061536161594,479.70313872017,-21.3374325753538,191.360051670104,14.7455681492482,333.810776435997,47.1876920094251,1462.52879268784,26.6103550484879,352.573630993455,18.4506662566443,625.179106867099,57.42903753149,776.682392434695,111.987018327145,163.308027545598,37.2514429542806,15.0348779878753,2.2658801698071,70.1048144124986,50.4106606204919,237.865325638036,-23.7641347569934,1344.07643975491,-178.049522563499
246.202149737038,14.8933128599743,266.226166112183,47.6138562635348,360.005285268827,10.9103858437351,474.080931752675,-20.7009997033581,190.65693487476,13.7967730320914,326.356073294504,47.2877153480613,1459.35869032696,30.9803801527173,350.351732152603,17.6122583580111,622.650476760741,60.5175696264803,760.527864394119,113.232686174388,161.833412608852,37.3390035343718,13.54345558155,7.5740077923249,67.2762632740194,50.837398767957,236.894847479854,-23.6530127438208,1351.5196838927,-187.336875064188
245.715735238199,15.569625999011,264.9515062685,47.571116241043,358.876053467242,3.63315974204014,473.946775834579,-20.0921656989805,189.496167879858,14.5559019033837,327.664966755593,46.8452656296974,1452.73935912824,33.1220312414139,348.309817246869,18.7686560759439,611.577348200624,63.2701523651976,766.372856606128,113.650175160532,161.395204059091,37.4666276087714,16.6375799186095,3.02026278284199,68.1004824796131,53.7650794326278,237.763057186823,-24.0090615378,1364.39108846732,-191.130816694315
250.064050415826,14.6549561812826,268.478607192818,47.7775781385046,361.116258777195,10.1824029153771,483.023281006529,-23.0718132868828,191.554186035103,15.1479540000172,333.196527110629,48.4444951885164,1466.55362980231,25.9737729402615,353.494297556994,17.3279216674242,617.465653317877,60.5364986815583,777.908557244854,113.079576211119,163.542282318295,37.220375841836,15.1556352148867,5.13737497195738,72.9573097066705,48.5859515965437,238.493089320335,-23.7619136044448,1360.26848910675,-182.509622445316
245.885859172194,13.9794790246725,269.255239239368,45.4326160389643,350.66021964729,18.1751994942676,472.288479383853,-19.8491823897946,189.834709942771,14.5823198441569,322.201947732025,48.5899481310566,1445.50139166189,30.2220877737865,351.112867820752,16.997771483585,618.999831624769,58.9460436999684,756.728274425626,114.819217214301,160.799883359865,37.4630439963111,18.0730248073277,3.09607542990224,63.7054705353577,55.0119715757479,236.976373576219,-23.7647416003798,1347.67232063638,-176.239301410498
245.298378831284,15.1931615667725,267.310041381795,46.635548686338,349.475475384656,13.2834245366745,475.737712955355,-21.7193383522532,188.738563081164,14.8732448579388,324.903771611109,48.7599217836036,1439.7048573207,43.5753473728192,349.597583662679,18.0229886100604,616.904486417493,65.2163659953328,764.662223545434,112.683022191556,161.193689614841,37.6680539510271,9.7191740458014,8.05597826332177,62.98610303141,54.4116415691125,237.143880353993,-23.537814522253,1357.09547647462,-188.273365179735
249.969636507065,15.0565750931692,269.693511718645,46.981110518845,359.516049401969,4.75558773813532,479.711846213789,-20.7119138321061,191.398292358967,14.7170764701596,333.303681755998,48.1493035724283,1471.17342605249,30.3320665373622,356.795357722603,16.9863645760173,610.544747353046,69.9757016019288,776.111251462601,114.233389356598,162.969227340933,37.441691952847,22.5078520480708,-0.907637265297845,70.6778246880596,51.1080595199508,239.027527724646,-24.1267804455818,1355.58386579541,-188.259392559637
244.210632474202,15.4490423299136,266.584038851209,47.3965947091186,364.110802677101,1.63693334550061,472.168581392607,-20.5696074649333,188.531858845068,14.8827440724839,319.610000263553,50.7415971919848,1469.19888985737,26.1187527312567,348.335070523254,18.2441749856614,616.707359318301,65.1593438578674,757.49480637534,112.788223079244,160.276266010309,37.6223522123678,16.3384147282325,2.79754543923529,72.5653484711936,53.7200636038618,237.738680975394,-24.158742833867,1355.71155736725,-184.803193229227
245.546738111862,15.3949751413108,269.753972731309,45.5021939895688,351.123207675152,12.7140434382215,475.375898001242,-20.9428772105599,189.14177442524,15.7886623699743,326.595598842987,49.5144723526882,1481.96791346127,20.9553602439784,351.322738454001,17.7241034272691,621.53577334858,64.2508488474795,762.646092395969,116.434237937939,161.172270001995,37.7668519557713,22.8784102380069,1.52916698970931,67.6926971806378,51.335467943799,237.544407415161,-23.7249306835608,1380.01820881143,-195.045989477727
250.863224240743,14.1145257602698,268.654278704789,48.3787578338625,360.090279905194,6.73409970795629,482.450176430659,-20.3458950858007,190.805989070246,16.0405576969172,333.07675728722,49.5357139279248,1465.26736736563,39.9165150089494,355.688649206702,17.6998302221613,625.784240377403,56.4251322496759,770.792582684621,114.253693057446,162.670137656056,37.5226735531942,14.7480498090871,6.27783755885511,70.0985387520762,55.9158935502564,238.540055272158,-24.0016347825271,1374.05096569572,-195.428281787521
244.731105756235,15.6183061182,266.646177611642,46.8966965499786,361.553227201183,7.03183501678823,471.279265568337,-19.239105534115,189.893209407991,15.2549204546227,324.021228571702,49.2095134604899,1486.83747921538,20.4613990107978,348.516013153483,19.4153207195166,628.292922149504,56.6710053538382,761.804256844064,112.548012372084,160.927334072129,37.6068408152842,8.14399249902076,8.32741908127153,61.7455329122607,56.2263466979177,236.6588419749,-23.4133422656215,1370.72285160792,-186.550157831115
245.538740666347,16.3135958233971,268.601666672439,47.6601833319374,353.395839607643,12.1150501824156,477.884306547033,-21.3520215928301,191.160712591351,14.4110401803014,328.87197768111,49.0641530957261,1476.39261270252,34.3773777637149,352.189753162873,18.470977655698,626.855974462516,60.7136142926277,769.447225376105,114.508104391019,161.689660852886,37.8167547929927,13.2914470653942,4.86863732207393,67.5697900422748,52.8760000473072,237.941081838867,-23.7313708128872,1363.43635659353,-178.748183781729
251.416291551325,15.0572238101625,272.279635321822,46.4340865839031,370.908479806461,4.07633120038401,478.08974678845,-21.7579644517224,189.671696052074,15.3881630477062,326.241483828407,49.3176404547338,1489.4830806836,22.1116228889579,354.10300486232,16.9710809052916,621.163086128833,60.7211631229939,761.008670736229,115.6271358349,161.994470108437,37.4497064792665,16.7712807317094,2.7807171400465,74.0893497469216,52.6708385134665,237.817920264417,-23.4868430992588,1372.79459452419,-193.368114993598
245.583491080829,15.5337438612923,268.260670962898,48.7414500707656,363.948037955876,8.52145684696821,477.277722366493,-22.5343685073503,189.051903686137,14.9754710369017,324.262086615852,49.7501601910112,1464.88450629298,43.2201123339142,352.01847189821,17.1908311718942,624.822650994581,60.5112499638649,761.477519757575,116.110532017679,161.269815065073,37.819084243892,11.0947690604377,8.70793482415749,61.0854477282499,57.6779250023612,236.885877712519,-23.0755507172867,1382.50536443896,-201.882021692644
250.443597908296,14.7968349169792,273.468671819953,45.8386831857726,363.793052642804,7.98240218214939,482.055823039358,-21.9565912467488,191.726671895834,15.1611339172876,330.752407125552,49.4259436246999,1488.89748025454,28.5903785956685,356.105535256085,17.5169402789252,632.99401466529,63.3940887786435,778.312878383517,113.527924224998,163.043246603868,37.7210524427681,18.7113328295052,5.48596846009835,65.313984162577,52.4201427274471,239.516805341808,-23.9936285555839,1383.5613116167,-185.639640713063
246.8180258739,15.4179549256062,269.726204387248,46.8573120048978,369.65884010875,8.26642876064214,475.063147810426,-20.0214373468989,189.762606407874,15.1946323525873,327.671864026562,47.6678779688169,1476.53668833576,32.6631311149947,353.284459701818,17.5917403162639,626.476550077902,64.3628399483088,763.880779598939,112.304155694197,162.208276537603,37.4389307414103,12.268134729022,6.74276580189661,67.7756143831674,50.732430035851,237.910067824555,-23.7746259002944,1378.05912990495,-200.325714896463
245.243836032109,14.3813281589374,269.134364175769,45.8102025261297,359.858452529003,10.8259391816344,489.540836858928,-20.5833145347715,188.055743670112,15.8489042948715,324.102339681752,48.9427370213731,1476.72333250484,29.7456402033531,352.119764960348,18.8016983195989,626.117421636784,65.8825426316024,767.356460027895,113.181603990078,161.508589114151,37.8118681317995,12.0858483850141,4.31732830924149,74.4634174804911,47.5030774732362,236.472936246863,-23.1463090916016,1378.9521786603,-195.268889697359
252.94506847179,12.775795382779,269.15757264151,48.3362659204777,353.951015831828,11.8658898267869,511.197794321381,-21.8067463118733,192.390609063324,13.167367671141,332.020531356548,47.2229868055851,1494.82077917686,23.5695020049412,355.776872799589,17.3763824575294,641.444498698133,58.5552974937495,784.867894657112,114.5911801027,164.087544253066,37.2335335728791,14.5454510224281,5.79362885553393,71.5317304904429,54.909243529449,239.646961565447,-24.3401348850568,1387.91810005327,-194.489300717178
251.332922577948,13.3513954603015,268.62005390014,46.0837769173987,361.015711861117,9.76217870219938,512.613572173425,-23.2001724806543,188.819477287146,14.6404397371484,321.838314691497,48.6550204727577,1482.13198794673,23.7752912838169,353.943110572094,16.7836652177009,634.907808323582,61.2207613378666,769.790459013557,111.781370677443,162.042766572583,37.4340678384689,16.6370830122861,2.81590727647633,71.0497005011572,53.0295843427751,236.99685534611,-23.4925802731504,1358.16579735597,-183.525192224012
252.220977443654,13.0675166690981,268.093027962539,46.6553013434237,368.092791045618,6.16598843400308,513.27747444954,-22.1591321788447,189.184564874418,14.1714606809301,327.441239337382,47.2971210790912,1486.92496365323,19.1892244999494,351.871852065248,18.5433957223237,632.186415670571,61.318538649851,777.300359682091,113.598183161545,162.576538258351,37.4346542560877,6.76652228938534,7.41116134072854,61.9089631695294,56.9074959236643,236.551151367143,-23.6932497884918,1365.62020353788,-187.560046605545
256.135578924449,13.0744803926427,270.855553556214,46.530897851106,360.019062060593,16.5521004867461,524.326161044212,-22.5605466375003,190.887428360315,15.1131220074468,334.657502429406,47.0896440196928,1503.74362033051,17.8087220176983,355.894522127324,18.4000172474019,642.238399209443,56.7651567385509,792.808279549539,112.226173400936,163.803887060464,37.7634099790429,17.3541743167907,2.80424368014923,69.7450466274431,51.2227650050655,239.239457435197,-24.0693772914014,1374.70173889881,-191.710955788519
251.287750849801,12.1744018410478,269.38246029949,45.10008593904,364.275767069314,9.02466938213474,514.811775078827,-21.9411762986722,187.667829164942,14.6368702443643,324.515393287842,47.3942843417139,1476.1508705513,34.2784101965789,352.119622126764,18.117356979337,641.722095345523,56.3439851561622,775.074109917352,111.18545985145,162.0680176193,37.171901926393,21.7648067347933,1.16666563208516,65.292700053728,55.0159145845875,237.003388352646,-23.7306246225827,1348.74199520963,-184.269205750958
255.392314859181,13.0540048640142,273.681784840556,45.120061101279,370.34322112159,3.18640127945025,522.542073969049,-22.5503134792318,190.706317379785,13.7208545459841,330.836762870719,47.7807807362471,1494.20741856821,31.3260961436838,356.761159619001,17.8317202099045,654.829537049247,59.6984194396287,789.202905132471,112.526478525277,164.710204870196,37.8391485444201,13.9600783091497,6.02211644331146,67.6881153055757,54.156885403918,235.740472074172,-23.2829250588904,1311.19430064422,-169.904502428094
267.818531192494,12.345727059304,278.195561389296,46.3322147972529,378.810121217089,4.63596343787742,533.289189013251,-23.2615823343453,195.283542805657,14.831027409325,339.354545353795,48.3567070827387,1538.97949826606,20.1834937822231,362.640005333287,16.9236294704659,665.756612164178,63.6853833621012,812.729356932205,110.700991758647,167.151521557447,37.9639376197356,15.777488719549,3.66732314537312,62.9191528530728,57.4705821476322,237.962116983985,-23.8090613853327,1309.55461541374,-166.009019166078
262.124465898646,13.4375826979034,272.223467090661,48.1715849168779,376.344825279037,0.0648820744231107,523.020064300019,-22.4181526100775,191.423411094413,15.2984968579332,331.388736648251,48.3910773839684,1508.40168742951,27.821052570722,356.920393633873,17.272090044036,657.44348848484,64.0434235290093,796.276721679527,110.848745863409,164.753680862725,38.1611774838919,16.1176124324502,2.40250732846162,69.5171852945815,52.3671418639427,236.871235412087,-23.7378355145495,1333.68382623726,-170.983096025485
262.775657097921,11.6027130269494,274.865963593488,46.8996604908262,369.108594669756,6.96985899905714,523.583196384995,-23.1998791395247,194.025464668661,14.5130862684254,337.998057871706,47.2880414014306,1539.522959733,17.0116985608039,359.05165624181,17.008453987297,660.4678188498,55.2054613111087,802.62541460074,112.621233827648,165.396953860407,37.8376970066134,12.1594780921082,7.14129634665346,64.0020376620656,55.75795454344,237.744359343642,-23.4103307547721,1344.87357984045,-180.176638516437
267.806513003752,11.0235554095987,275.746674410441,48.2073726729505,386.097583258259,0.715386752587756,526.62705253615,-24.3464745693626,193.159801383765,15.4401057864376,337.970136076555,47.6591583395982,1517.28087983786,17.4486316699655,360.845793228218,16.7879660409114,664.512816611651,51.9763531767604,797.482696869732,113.224014073268,165.42560771015,37.8268536491175,19.3584182635713,1.77472013555113,59.6761978117642,59.2220924140997,237.867462740754,-23.3362815536872,1340.75728742665,-179.759227543124
257.563571105709,13.1113238598116,272.059463032933,47.2114092438516,372.88290873226,4.49852160015166,519.69552171712,-22.8956405580156,191.856747591513,15.3789106884457,339.595849781042,46.1738571731355,1501.92640977365,27.5997296817238,359.00661003943,17.0743039332258,648.108883652096,56.6837603478381,800.025062898154,112.51642324408,165.434957765574,37.778924345908,12.1343660461356,6.22363484178907,70.1334087219734,50.6263925086239,238.365194342587,-23.5853249783786,1353.78026797964,-184.280082252149
263.974926306253,11.4479517382964,275.603678419222,47.2506152410088,373.123095744746,4.92446189831878,528.422410226503,-25.3177302565147,195.202711364498,13.5018658173527,342.907714481029,47.4777894959552,1526.75942564915,23.6030416718498,363.454592254919,17.3292606120277,662.378777028262,49.1927256673744,816.235163694431,111.526347878603,167.23686291579,37.8331269698144,11.4901783157495,5.02847398131533,67.7284950695317,51.1788256752649,239.924265839055,-24.0254534632044,1367.7795926685,-190.255917806793
260.992049178021,13.7417719019769,276.024404626986,46.2081978566581,378.07235104141,2.4328454271501,516.423354837991,-23.091908223287,193.74389579341,14.4821931857448,337.217953574294,47.3464900491122,1510.37820936449,28.3443350885323,359.406415427058,17.7766435827262,649.499880096826,58.0468778782458,805.209521446501,109.923402922794,165.959139387317,37.519522843495,9.16641916613315,5.68861961868574,64.604114800918,53.2019703237103,238.968889670613,-23.6466985865967,1350.14225066086,-181.095891476076
260.984984143206,12.759695589545,276.708042733748,46.5303542769073,374.977089494856,6.12977927174445,514.96532920966,-21.2846542630204,196.867830400301,12.8545035141834,338.964282886769,49.0519867082347,1514.50030768587,25.3813014698836,360.194402631612,17.5650229937113,655.486277324712,53.8344971192901,806.683203497212,111.211879043974,166.800839366757,37.5333885247526,10.0456713378209,4.33093059595875,77.3778657183689,47.3523098392375,240.127840370608,-23.9977100516969,1355.6855246012,-176.522262148933
264.067353842237,12.080276797608,279.448159715596,45.6534807267311,376.688942964937,7.48518590158384,525.985948159629,-25.4220235045526,197.098612219755,14.8944418960224,349.815984131011,47.1674698587554,1533.54121005915,23.3436522123447,366.330318290645,16.8809706453727,665.73007039793,51.0383557884947,819.038584834629,111.095879854177,168.662581638736,37.7437847492835,14.1958116371722,3.57377357470354,75.325249383203,48.1018252461785,241.789127913894,-24.7795927628395,1373.14681050673,-186.17860800693
254.940540283885,12.7212341893058,275.914569548565,45.8158745948736,374.811817253524,7.38283900511132,509.820487311813,-22.1614160490679,194.458057960115,14.9006215515441,339.650905930008,48.3522535144228,1511.74966042133,22.1065075926566,361.997790461132,16.7611407792982,654.301084616385,53.5033299503681,806.861172473535,110.69271398886,167.389501167136,37.7311556393428,15.3537049108371,1.93512692432922,68.3570061740856,52.2710645012124,240.894796389189,-24.5916383427278,1375.84426670548,-184.049483315977
257.403533600053,12.610756477177,277.798053082216,47.0135208188916,375.641715967104,3.17034641503296,511.361675475367,-23.9447173805097,199.244305383485,13.128225235123,342.54444875833,49.3686328498256,1540.67933822207,15.5495694193293,365.271141653993,15.54249300817,657.317061913084,55.661704049117,814.71602630241,111.787789888147,168.491166939452,37.8143833082633,17.6547068473566,1.52347152686975,66.9122096001359,53.9421856043542,241.471771317374,-24.1560265020917,1383.38787328761,-184.118048439662
256.17501859864,13.4313923671736,279.081126448465,47.1052264764989,380.088960237544,6.64253861246288,503.797241687292,-22.6282934720513,196.366295407262,14.2942593521824,341.401604199414,46.7672112325682,1527.16127004071,14.3072055938727,361.717442390124,17.1277202998805,654.726408288523,58.0009287270059,800.58286639653,110.933581635241,167.232407462298,37.7775959398102,10.2651534285665,6.45754043075367,66.4056048139218,52.8996322698078,240.294027533068,-24.0095713360113,1371.06477220834,-192.341147907623
249.586496860866,13.3783277869606,277.882551408179,46.4545455022549,373.48478581033,5.85318958207836,500.803779224549,-23.7095345507493,195.853968193632,14.8248569892309,340.625979665767,48.4811352488071,1542.93004973274,11.5070329606004,363.528158100492,16.4972778773677,649.193282778964,54.4631506786035,804.377065644269,110.649617936951,168.03719626538,37.3958136264124,21.9956114398259,-0.119985500337067,60.1409193154926,55.6400895757796,240.330909738478,-24.0809972069471,1370.51477764576,-184.359484988574
250.966755774554,13.4876238474941,280.001120047247,46.3714593136322,373.615882100064,5.10335363232336,506.047933382463,-24.7071625034346,199.160527440707,13.1701186741502,348.470870968326,46.9889377863278,1537.28138784678,23.6595111221285,368.960191705103,14.9510643029025,639.07730364421,67.1702086328921,821.615377344272,109.266832862909,169.558076555051,37.6093050485735,11.5477957233768,5.73103292348016,66.4598329496903,53.788930761527,242.628992784324,-24.9022239605247,1386.94571798037,-189.618491239415
244.629345763489,12.5795548006832,277.962698385295,45.742572741828,373.900638094412,8.56142069863077,491.608700154464,-23.0156964018537,194.189254908647,13.8567301979696,338.277956267734,46.5595216505148,1522.77237386545,18.7514259061722,360.94284647869,16.8263205795087,651.542328188611,53.9868649589245,799.836558150421,109.804693921635,167.809214443299,37.1094035606061,13.2713836549914,5.62746702881673,71.3095095046131,51.7326387363911,239.25644649947,-24.1786059905335,1376.4423037601,-194.416882645521
244.722069155366,13.8277544228866,276.401533211234,47.5624809112024,389.978636997615,-0.952622297991431,490.648619455859,-22.2782898258275,195.902152578932,14.0255401545495,342.594224587366,47.2861017580431,1521.08117959189,21.4185888625029,364.764410293718,14.4532624390337,659.437281285047,51.4527296391967,806.642966307196,110.152754248438,167.429760886328,37.9462441186027,11.9356697992798,5.87298455458154,69.113939417954,51.7557228530198,240.188077921972,-24.2560775892507,1377.11557896908,-191.626220548168
250.545555053285,11.9897534255456,280.558426842601,46.871796591904,376.643471436982,5.06495768896279,497.98154294249,-24.3106170371581,198.383975708128,13.2840955879558,350.065791149251,47.3749986590818,1546.44635780178,15.3038519655624,366.963393321833,16.5014243919747,658.414396006859,51.3295111845796,814.155043473261,109.029326765294,168.579949986682,38.1934034964456,11.8016870793085,8.19050404573733,67.6100352653855,50.9528914047042,240.163361330812,-24.1660946279629,1362.57910290944,-187.347852077065
