238.748431665164,11.5481805273732,268.984163812088,39.9490630868916,352.184609509738,0.861924208223302,486.247225990631,-25.6187658180074,186.075881502662,9.84696129717329,332.882064277988,39.6739441305506,1442.07720067394,-13.2744996437935,346.624516123392,11.1287039707214,617.656683278929,38.4660235139949,757.971031788809,100.060029529208,156.01529123496,34.1886136577638,18.3731090498508,0.789852085858093,75.2187645753007,47.0354330448342,240.891276678885,-25.3317020484288,1363.65105187071,-200.171619413196
229.472700043346,12.8296739635442,263.608092155661,40.2429042535692,340.496945296519,6.47601850193016,472.651052804382,-23.8612656776403,182.731653670681,10.4905488116982,320.187065795618,41.1457548121344,1400.3775752704,8.98932752360084,338.993549454331,12.0733675808411,604.496672787975,40.7511342366666,746.514559667953,101.287793055917,154.536193317132,34.1770813109659,15.35826445567,5.96023853702054,62.8477594507463,55.4147759178619,239.847005755273,-25.7879017741221,1353.44551775726,-202.083506641125
230.309563003307,13.2693525611118,265.099448966194,39.4105707064745,355.554677450758,-4.02475978631669,473.721114160879,-22.7449959906149,181.909145484278,11.7247794429267,326.436231174167,39.062964374295,1407.89891560879,-6.66146917306838,338.824261837585,12.9286260944235,611.958049718112,38.2640134609257,752.774093375308,101.892984427889,154.620411581792,34.5946698227068,18.7517032083157,0.398658235442269,65.0195969745971,54.2774730008289,240.155736410536,-25.1983887275147,1367.04007433527,-209.383090676181
236.489222929133,12.1073911878827,268.789183126165,39.9059183859842,342.01477152445,8.99193348984128,480.386612720727,-24.0030394553423,184.095345672334,10.7105259234922,329.806018966565,40.847108740776,1413.89232925717,9.53670399566383,343.042421502097,12.3554725688191,614.210825191503,39.4930781574153,751.398556366229,100.962724259449,155.06165342523,34.1044023058412,15.104595514832,3.74827549874979,70.5708027409346,49.2003504091704,240.219623283501,-25.3710672417353,1369.59446239127,-210.548423166526
227.582825715579,13.5513325210952,264.120658860968,37.6252457744397,346.438242038954,0.421890857833508,468.401499032196,-21.8202936690118,182.586987038312,10.0073089083657,318.853401822743,40.3774103681835,1385.76616429046,12.6230268385462,335.68710268322,12.9180971296961,606.410770734236,42.8858244600891,741.572594562193,101.875340030432,153.537255013633,34.0240507560559,13.7811929909251,6.26225492083891,74.2120099136277,48.0681037064953,238.669076440499,-24.9864314897269,1358.64156245281,-201.634383632518
230.621261688846,12.0749748030818,261.339027230122,40.3057102983475,341.570208358452,4.33166257812599,471.762295752204,-22.9643170188286,182.328832661954,10.3833408891407,323.582963548424,41.2577397126045,1394.73839945075,4.6601591514974,338.956190929668,12.7958806751948,597.406554446417,47.5256802148319,748.483008081309,103.256923652411,154.150847357343,34.0322724818445,14.9327693251436,2.58155862374683,69.0252967318485,51.8469207366465,239.354204956576,-24.8250904647091,1377.81644175819,-206.926425621665
235.658720318793,12.9582826947745,267.009764328326,39.0928544196134,348.195148882284,0.73404667363117,480.157595793227,-24.3573775802251,183.502167161376,11.2613768533622,329.014052321618,41.1752447892941,1407.6630416143,3.25281702491628,344.175891470502,11.7694023356319,608.404894330018,44.2088534614894,750.006512113934,101.514432556592,155.292314428814,33.7395795006627,8.37918865961761,9.44137304021594,69.1307483092009,47.7222092491765,240.039965896153,-25.5100418422374,1353.09289542632,-203.408882752742
228.828020133658,13.0242596964449,262.186600726168,39.449757217437,344.74594343706,-1.61186181059581,470.771761134397,-23.6347719029139,180.727074174104,10.7554310739548,319.605307468277,40.9275423653762,1394.67905715172,3.04783593078548,335.911506177712,12.4696422721767,611.355709824524,38.1150577430749,744.097216361889,100.758327395176,152.919414360974,34.6364546480466,15.9850974179631,5.0525804412683,72.213727782573,48.5135735250771,239.017111250142,-25.5490281861105,1358.42694490467,-201.622373383437
231.557835477804,12.6583953938458,265.084318724519,37.8492842195227,345.31868450447,-1.98395871703517,475.650314236408,-24.8890776200994,180.402234595893,11.7658586250834,323.226840079299,41.2665048823921,1401.83276335354,0.14691922057674,339.518311163082,12.0193553366987,604.715633887477,44.2235495955152,747.850829344093,104.753185873722,154.112993709412,34.4626719455302,15.6645092134251,4.62297544126019,74.3565847125949,49.0293162263467,240.884626067283,-26.0636450636468,1371.45316865866,-219.607100512752
234.450557586424,13.4963313545344,265.103486822953,39.5741527793265,346.686254124116,0.564597176297416,474.989476797823,-24.6111602046119,182.816252281256,9.48139594198907,322.906475325757,39.7389970159523,1397.67681955498,9.62952871732333,338.295813488498,11.933038721089,619.292421086956,25.7995195432609,738.417171181316,103.183958260513,153.452077303957,34.1835444692324,13.3979699513768,7.52521557748235,69.3744751386488,53.1960818675717,238.073250375082,-24.4801763604002,1349.66496993154,-199.58568653822
230.392423812802,13.5171575863486,261.111432731241,39.7528708672053,340.751224173892,1.87734636841695,468.921858692149,-22.1191189093692,179.514110816386,11.689686164716,320.779595305634,40.825918692662,1393.14000986528,-1.50719057232863,333.719501050066,14.9229934129859,601.561311889635,45.1118440495876,741.672420287595,102.409985191285,152.877437637493,34.3630705006749,17.9718490198316,5.51796716261095,70.6791901990143,50.6700461164301,239.218630775463,-25.3425275621247,1356.35747957123,-204.164008803856
233.107175055664,13.166415135277,264.431579251325,39.4797940536522,345.467789655229,5.07708455459554,476.299978922851,-23.64794360381,183.025306156372,9.30904496852702,323.320631684964,43.0559000978539,1410.06860583764,1.25768747858931,342.868057432446,11.3165252475095,598.981203404036,48.4130302900636,754.680406416538,101.549369977117,154.936468706489,34.3534452104728,14.9990944792878,5.02765409463051,60.1347330604505,53.1665910979755,240.722021719374,-25.4521954528824,1371.87489791913,-210.049542086956
231.064029531774,12.7681574365548,262.307211960286,39.1051121424157,344.495889084156,-2.01731306551949,467.738530679834,-21.4189741399929,181.16573348299,10.5881286085329,318.185873054911,41.0267538845744,1399.30212834181,3.9854912302703,337.482890671636,13.3894242933926,601.350603369815,40.9597305677948,734.183046910808,103.972361675131,152.679804300136,34.596048486645,13.2189549969023,5.11446563821825,68.8239531371991,50.300614375164,239.083710853013,-25.2631075948926,1354.52548361438,-205.956453448062
231.609630015795,11.8499527320749,259.884821384527,40.235006906707,345.662816442568,2.65127940442039,470.684755372833,-23.7855699826551,180.560297443097,10.0789860243278,317.689446785564,41.8467486031037,1392.37414797243,5.99917738251527,337.001995878116,11.6123034785178,592.47994870208,50.2990313772408,739.18856152462,103.162586509054,152.620456337932,34.6125035889032,13.2944841956375,6.74570539562026,72.4411976740363,47.0581618782851,239.562063553604,-25.4619637340461,1360.77213889148,-206.246176887959
232.957367021618,12.5256698434964,263.580817029846,39.4051193302147,342.207346921425,4.49623920726404,477.264106433382,-24.2399370051167,182.543112203701,10.1590598756602,323.664509624359,41.4003024325574,1404.05470854593,10.4745478715891,339.025007341133,12.5287336167134,605.954701884232,40.9252471634619,753.69951725956,102.474610894986,154.666372321947,34.3511376902674,16.4158097607605,5.98455101016744,76.6929651101151,46.8786937984939,241.094416510262,-25.4952738683043,1383.91652323637,-213.194995180522
228.126136329294,13.4216339251801,259.817352207254,40.2064947519354,335.315238122475,7.73187389058088,468.415420108499,-23.2996901693113,179.076862396085,11.1640914357836,313.33122122137,42.6398019058908,1391.73100334422,5.81083570049088,334.041745199894,13.4816733244299,608.602147698455,38.7180309114145,730.414299320878,103.185571998569,152.958870046099,34.172428577175,15.4159294942143,5.05189532762339,69.9539710859627,47.9269427664847,238.580206718007,-25.158647795197,1353.35987742114,-199.186112500371
227.751110421115,14.2970043466358,260.910402311462,39.5781229782053,339.449282346438,4.86569835326389,470.005375687506,-23.2773241910131,178.171076484602,11.7904137031391,316.940953300299,41.2549709315344,1384.93123610953,10.850941743007,333.783745282216,13.5916420626384,593.404968875474,50.2110281831421,737.768210934212,103.824964985577,152.359516018119,34.7795649906097,17.0930091286632,3.36408630523199,71.0100198520187,51.1230978774204,240.163195389784,-25.50304588045,1367.35675362739,-207.767643820895
233.024520449574,13.4943615436745,268.594042626255,36.2202165903849,345.865649592669,1.96611701624018,477.818617714312,-22.9712229360922,181.638945131849,11.6177966339181,322.718091498395,41.7256741899207,1427.64230620071,-7.53424904570671,338.944597782006,13.7024010071247,613.094563171542,43.9797189751802,752.959951243604,103.468154865991,154.568408702437,34.8376685367045,14.8515799253621,2.95235925100941,69.8150372276763,52.1833304019858,241.443733025392,-25.8575867417089,1362.17602668548,-201.316914180947
228.07192258032,13.1910512789726,260.813806008709,40.7127950323698,339.131182014722,2.64328071823884,468.233498800027,-22.7729854808595,175.947264197825,12.1502111489507,312.008677981762,43.5905703235681,1378.08520958592,17.0276651270397,332.229981657146,13.8406847968681,600.448146393177,47.5185493741949,733.851597709196,104.169953051793,152.852816997712,34.3813931385908,14.9031932919646,4.73390552646444,66.16649618996,56.5108419683991,240.560433645956,-25.3239169725095,1369.33186215554,-208.643840685222
229.578515574443,13.723332297632,261.251832961932,39.7364609988458,346.843948058667,-1.8965987075833,473.242398272434,-22.8131154881315,177.625980453696,12.0974399153978,316.64169819118,43.2919479846189,1414.54042782696,-7.45010568208352,335.731026227015,12.9842187511214,610.965750289941,33.4397639424952,741.700379446333,104.733725706327,153.953509983839,34.310439119613,14.6029831710057,4.3466880014873,66.5152730678575,51.2041427738563,241.890403350353,-25.5959747226771,1359.84570720174,-197.979239965982
233.837296450248,13.0669162786682,265.207805549984,38.7322227345082,346.609128600173,0.787046431956131,482.125064010801,-25.0151649167551,180.745960177255,10.6886015954816,321.97067935149,42.5951007372846,1409.90474334887,2.34754320801143,339.090238371031,12.8800714108039,607.057750729307,44.2985016750131,740.597354303922,104.390226198944,154.155789133111,34.3979926179175,11.9057932201387,3.6074372554356,73.2440677593975,47.53251794126,241.45717098276,-25.6018335140797,1386.34026519148,-220.351276174621
230.195024225475,12.264671330852,262.057633567051,38.7756862386242,351.502437483265,-2.57522824865746,471.930686769491,-22.8997407058598,179.873878250906,10.1789273969728,317.058505101299,42.0737644908319,1402.52982946072,4.78415072675917,336.593684707807,12.2569205508201,596.83049021249,47.4164153477806,737.26149703022,105.257778791967,153.215425725717,34.6510598048912,14.2402544989649,2.9468912567318,73.9914955604516,47.3556852560105,242.440488329578,-26.0338920083056,1350.11919838937,-200.409978390001
231.239556033243,13.6872853797562,263.085958014251,39.3704354897303,343.354215935401,0.603324948796475,475.745008785411,-23.4513800317431,178.483764991422,12.1677020868831,320.188775863225,42.9378146853936,1407.22627617568,4.57382043312303,334.858783992883,15.3453424102245,599.611883292033,50.4160785502512,748.884719649313,105.596113062287,154.481166542315,34.6333551099666,15.7959612914856,0.168245080460846,78.0252266483545,42.8186193783531,243.424303399949,-25.9942515426274,1367.99709954472,-201.012955773485
230.715508753502,13.8006739283266,262.160851623172,40.8715085021338,339.742733597363,1.45839552091615,475.222450824467,-24.4913365535338,179.114836192634,11.3069336786879,317.611781433177,42.1627918132184,1406.50524154965,9.57291387931262,338.155561090391,11.5305653261622,595.186582725721,52.7315447346981,739.134983860612,105.049262759368,153.783876367589,34.7014707031894,18.7158586123377,1.93335987688324,71.8272244127118,47.8460150138008,241.953609687807,-25.7171197605979,1389.5753910543,-212.577961417201
230.632342201305,12.8539444698036,262.462041790661,38.1672866815456,352.176235983696,-4.23903996267692,473.821054765344,-23.5533812849492,178.1426619906,12.2306661540781,315.970831881194,42.8018183595894,1395.60466915581,10.2381337360232,336.877100864839,11.588928611153,608.762677827714,38.6735431206853,741.918011915956,104.405748422625,154.346623982754,34.5421819049346,16.3148903336666,2.68045349731766,73.5677460469213,47.1935820947029,241.935190519799,-25.4938987506152,1379.39398723606,-213.149749665473
232.434126674669,12.8847734612374,263.894710723487,40.1803644445907,346.361102825236,3.96058844699722,479.361262727082,-24.3007903231224,178.903412125823,12.5094944892901,323.95928564534,41.5441593171294,1413.93130163173,3.53809277008022,338.501473151551,13.1705258025854,614.703145441906,41.3977947079881,756.897234984864,102.933334856947,155.881901535429,34.4027381002684,17.3314300102434,4.80047320125693,74.9857103301596,50.2493505019919,244.055993934386,-26.2263636946914,1382.91023903836,-204.918447127689
229.913631550697,12.3444975845471,260.421540271984,40.7139025732966,344.8403672619,2.16814659406852,472.167297742941,-24.1173313170284,180.322424462197,9.80171443588789,314.207200445123,43.9750997076113,1400.32854101287,2.20680061417829,333.674661744355,14.2440742307743,610.285283553372,45.2307179766878,736.278222517701,104.852391918341,154.162072857181,34.6300319244971,13.1997768933094,3.58407985862254,62.2359683078847,54.4481174597585,241.456226142226,-25.4544601513429,1387.15384051121,-210.804542199321
230.332991835344,13.3126706131715,261.233918519163,41.477257256982,352.128982114575,-3.04805998270399,474.757311605892,-24.3897246401215,177.074326665012,13.0692016170557,316.300574797686,43.5392065483436,1420.51846244658,-10.0912884921459,337.096125792499,12.9303800560567,606.443854811583,44.4729233369332,746.809381026126,104.220410514592,154.43263278806,34.8217354306516,13.8579292061739,6.34361638433981,76.3243823098453,51.0071629493702,242.48600505479,-25.8580268664612,1385.01831321986,-211.197810624567
233.143995366354,12.8523391217758,266.306061885059,38.7296600733212,344.786610266565,6.43355624556794,483.203336626931,-25.2982316236165,181.499301352271,11.1136556109959,325.080397449394,42.7005350652121,1416.09271989729,5.76836259887558,339.662110777353,13.5244981948159,608.741142825826,43.2617494560716,755.932599262675,105.795532122729,155.957584940542,35.1593998126947,17.8967725210295,3.44180243921449,72.7096609769168,48.8689584389669,243.0733711262,-25.6907775943266,1375.96620844647,-198.794820804955
227.855697175507,12.5639475021144,261.554160244048,39.7691178219138,355.917950368413,-2.76086780005746,469.212521168234,-23.1846786383526,177.145459375603,12.0631526206536,316.875402389222,42.4075725851423,1391.23975817622,20.430338418523,334.566325694163,14.2170100024708,614.68510245236,41.3569465280818,744.256374347583,103.294809496705,155.382974135785,34.3991538024739,16.9764019155854,3.84724390382461,63.5305997881659,53.8622872212345,241.438149848508,-25.1748910424165,1373.52558768953,-203.463261369853
228.099760724645,13.7334946355912,260.92993957359,41.4790595034083,343.152646393992,5.09271822722501,474.960069217022,-23.4343506384263,179.523232571307,10.5293585799163,318.368805453811,43.2171199123041,1417.03052294064,-7.83026958567194,339.326781573488,13.1422169080023,609.323225303667,44.8189420764709,751.759397837393,103.682802499122,155.494840915195,35.0046744263419,15.4716933871795,3.32228187461942,64.6395101458144,55.7023094486311,241.933853641642,-25.521260202267,1408.42959821092,-221.20802881393
233.511262404508,13.1391809353973,268.667506119552,39.9779486515337,354.47791088554,1.39901018679766,478.630880854372,-23.7360395894905,179.946595614653,12.6941607131096,325.214328863176,40.6511160293622,1426.26882020737,4.63517191791579,341.087443055395,12.782470834257,612.33163841449,48.821328002601,748.114695830202,103.928500452634,155.614883900497,35.0495754662268,21.4447696665837,-3.64200560280185,69.3110055073708,51.9991879013027,242.153549728253,-25.8685814623768,1384.80415667933,-205.665052719401
228.593535298681,12.3329055857542,261.8167161348,40.4717619065025,349.645233285199,2.88376248165466,468.604379491683,-22.8077677852647,177.095989919028,13.1302629937515,319.487126732778,42.3672170130804,1416.53436457385,1.06774524868145,339.752703172772,13.0119127201473,608.454333214434,47.2827918352826,746.529863519332,104.15847633199,155.774145047801,34.6613775110662,22.6385897831928,-1.58799510917284,74.6788258932595,46.3727062035094,241.497729738407,-25.6566917207523,1375.7176942535,-202.259019190395
230.027965017823,12.5052233443661,264.714529434238,40.7815677046491,347.12265353508,6.14997939658548,475.339639091995,-23.3889879556401,181.463040573627,10.8485782503303,324.512544723116,42.1830009217533,1409.12616298856,12.2178404234707,340.959298202877,13.2311971748681,620.098773587128,38.8622463477898,758.429952194894,103.531299897486,156.990196307746,34.6693899814831,16.1682021072021,3.40881783129557,70.288845438553,55.6531428338098,243.294408445559,-25.8048921447728,1374.6788957036,-200.509414361891
230.44245712275,12.0506319747779,263.898399129332,42.0976743581842,347.085692822526,5.24692108177182,470.993276063484,-23.5912355466065,182.476930348047,9.60513066231392,316.739914958965,44.6548403778476,1423.2904167707,-0.784845523907384,340.225019100592,12.7151901666625,627.136247428655,42.8304911721736,745.647332980548,103.860826987228,156.106724030875,34.5776378975085,17.702408967026,3.03510031550463,63.5509631289984,54.5950503919068,241.073592388633,-25.2237063206877,1386.95237923682,-217.002755970941
226.439874304179,13.1589313977743,264.277249599846,41.2282742168436,343.470330387416,8.23117738267643,469.552648942264,-22.7433216798381,180.824817149401,11.1448777057862,318.937783241673,42.7897304387121,1402.79469087829,2.16687692920227,339.516628445077,13.2518731809089,613.261916398371,50.2163609196247,748.659428399348,104.146247026643,155.694197397434,34.8385405102343,8.62830641696707,9.31707417768814,74.7615962106661,50.6121415293705,241.358084058077,-25.5988919877315,1375.85796530559,-200.710582519076
230.950924629927,11.757989127743,265.680216795563,40.8238493483981,347.742203853895,4.2211982618819,478.5308251071,-25.0841035030963,181.236156920434,12.6287617638974,327.27632633673,42.4221560436759,1432.55016915303,-1.07211457763608,344.205073517047,13.4525307400972,614.116109120839,47.123385518982,763.357148172632,103.392606352159,157.20213472609,34.8774556128912,21.6246868671936,-1.27016674403543,70.8036463357793,50.5790095603689,242.221269605695,-25.4786750998184,1380.39475851766,-201.590630237383
227.881454028987,11.6563127231717,264.132210059667,41.2313722952175,352.920504944522,-2.52651539784613,468.801605433152,-24.2463657085311,180.895200989949,10.7205378966763,319.085478388023,41.7295754986609,1424.8804333869,4.58999246643287,341.560306089949,12.3999630870614,621.517409595212,43.21824410156,742.645612167424,103.26004658877,155.725309399268,34.7858326001883,16.111944765769,5.46451080072573,64.7103491069899,57.7555285461792,241.245848675471,-26.1265234941629,1395.17573263439,-218.837877697641
224.499224316755,13.8825659748062,263.492260536165,40.1776569964454,348.403641175244,2.56571393861431,471.199184325114,-24.4736909728005,179.01588989114,11.736029733034,321.118832776507,42.0093166749614,1412.49159875315,6.0110718094258,339.718083190987,13.1596251118954,622.032160692499,39.094170995718,749.272693287545,103.156666672839,155.74392583995,35.0713316284162,15.3416947749046,3.91344246296528,74.8806629100804,47.082989782756,240.950604151796,-25.2516012097601,1382.32412228085,-208.211767868821
229.26708071838,12.4750455869341,269.650586006313,38.8262993635267,358.981878916282,-0.109407587292891,476.940594142348,-23.6506262212684,182.037109811122,11.9030560976503,326.103621185946,42.46605458648,1436.31928036503,0.560489804059977,345.879562202041,12.0075922879525,602.762815249923,51.0764974047278,764.206940501907,102.708406754258,157.958137402887,34.5161364645178,22.0528825328168,1.1755987724507,73.5322125992846,51.3879234204355,243.029645276381,-25.7495344042824,1392.61279993636,-205.852139368828
221.931238715852,14.8035771437749,267.64239944581,37.9945155083895,345.704197956631,6.62654124009975,464.35314239468,-21.2758674988785,180.043423686159,11.6554802571779,317.184060975862,43.2254754307766,1417.85420616731,-0.465862915943077,340.860775861386,12.1937354105759,622.451519131655,46.1658129554534,744.241634027562,102.45962848573,155.402517458971,35.0736329806139,11.8165465506057,3.79009763524859,71.3602240121081,49.8252370996364,240.946145274368,-25.4939080818821,1383.34690636958,-211.758137848329
225.71148802787,13.4952414898496,267.744068258818,39.1082933769927,351.019402975994,1.98633922136282,470.084374788461,-24.193824934095,180.894715568176,11.9426427962189,321.941342771216,42.9094565944876,1415.226927188,1.42825401375462,340.704956592012,13.3141157303193,618.914554514784,44.496780394705,750.565574841463,104.456032883039,156.160544357097,35.0358386277963,21.1922859661023,-2.02026244955666,61.4103371688763,56.0311836212122,241.793043276132,-25.7077570784993,1374.33403916878,-208.179243663204
230.452309110204,11.8776561023409,266.416956695255,41.8135085403435,366.09372105042,-5.02108000322477,478.489915197273,-24.8971583985198,183.359144677557,11.5442705083799,326.194213573057,43.2889204989082,1445.77041449968,-3.31267721643115,345.7167033203,12.6496521088214,621.683690993749,43.3770128498952,750.033886444067,103.397401756772,156.605987459008,34.9808869336243,18.1008027390194,-0.125919471879407,72.3326702280402,51.6152183258704,241.608544429417,-25.679800914108,1378.39091337533,-205.516334312206
224.462959060137,12.5943591735372,262.838224288435,41.3439132266347,345.331060985604,2.85039688472492,468.686863703338,-22.8600105148504,180.830432239382,11.1716363953585,318.932381099653,44.0043656166195,1429.16521291745,-0.808193297006693,341.962016357641,12.4482918875132,609.126115706593,48.4990395341809,748.940333240961,102.859956004451,155.675960202416,35.1543596366438,17.1910328642992,5.05491178572374,64.42350212924,54.6153797044054,240.711045984724,-25.4054358526947,1386.18723272699,-205.759268365587
225.556941188342,13.4825658349928,268.950939541967,38.3556470370471,356.932685377743,-5.58056371957838,473.242673786462,-23.4153860916373,182.029265696806,11.9952035389834,322.682670287602,43.8102650837749,1432.09331533328,-0.805068957409868,343.587863599869,13.7130671564335,628.327017137683,42.6416660759408,756.484715919279,104.687306028581,157.049900063477,34.8600188836334,18.2742217377349,0.195229059383375,67.8819445205321,54.4370334403115,242.995272758731,-26.0087601073426,1390.95234093861,-213.432560533805
224.141054082958,13.4800290260158,265.657978987028,39.9920978947241,360.919054615787,-3.5825888146973,468.889564929685,-23.3269809432211,180.016918347455,12.008206251486,319.670500909406,43.4903222753639,1428.52083168961,1.34295716952353,341.487965216106,14.0721707907434,617.32037137269,47.9323621992963,744.270144021867,103.048188640072,156.051639107737,34.7905109197888,17.98904973005,2.38424756044709,68.7976873509529,52.1673659971005,241.053387751146,-25.5881205953832,1395.8971943184,-212.180114624818
223.269709643462,13.4539674165006,267.808708004366,39.7718810096393,361.323739572453,-3.31345663600764,470.173393558627,-23.6095954514754,180.834427816317,11.8171319877154,320.512003515012,43.536427932221,1419.72084742839,8.25996003392491,342.559549422759,14.0975343535274,623.020625882711,48.2280043035477,750.274866630933,104.008322343515,156.371851098352,34.7837686020638,10.2397777523631,4.63769778151005,74.5270687820155,50.371845480147,241.659801961494,-25.4891401155723,1381.6266768412,-196.773058449435
227.642989407547,13.2616976670303,267.326744281737,41.513701879083,360.036859546666,1.24242245352758,475.625427730868,-22.0532326101752,186.078088885311,9.87447325131273,327.922303802144,42.7089495939994,1443.76128999015,-2.54079407784784,347.78232093184,12.3720143741564,632.166091491923,34.437497728897,765.864039171004,102.227446700116,158.007604810749,34.6947201614542,18.5017904108474,0.39095992441302,67.9299182494255,55.5491162365593,242.140254968507,-25.5610966245486,1377.44380329074,-198.512066773588
219.550898717065,15.3233684306061,263.342481921712,39.9921756129193,347.519277980776,7.78420957401986,465.329352852973,-22.9437837811738,182.708920746348,10.1850329766686,317.059732028368,43.9289226397212,1410.42092841391,9.2441124681156,340.818081506833,13.1502557705514,616.932116269802,44.4625439357109,743.59821353832,103.795440811355,155.734838770097,34.7726750975899,14.610330101432,4.76444130616516,62.5899994931701,53.2074541014334,239.87962290611,-25.2824074540846,1384.67627502076,-206.723368682376
220.970407019101,14.5546686620073,265.650089266972,40.0641952290368,352.151022635058,-0.385556296239532,466.000078453292,-21.3645422560151,182.412109117163,11.4396731333695,322.97090451917,42.6650856876843,1430.57648247125,-5.19652742039865,342.622522702293,13.252245291681,602.624566521787,51.3336513140501,749.544589648307,104.564841986326,155.671046945687,35.0903601605441,16.6458844916816,3.36632057976996,69.5862376571983,52.1879003678108,240.777825967203,-25.5248368768443,1394.78181048832,-213.420888315097
225.113496508401,14.2221303910846,269.616106494441,40.6779340034638,362.027721072175,-4.16305108997254,465.834633782532,-20.8146157258965,183.431559992795,9.87417983408032,321.051121570503,43.5632151942064,1450.86723313208,-13.0883374949143,344.245135717,12.6848646779725,604.744498252675,50.7508947374375,740.946012279294,104.691927759607,154.977666223275,35.0408338002356,10.1418709797285,7.32900352895627,69.4664161940197,53.5800190415407,239.247155972947,-25.1464844888794,1371.59916464102,-205.065835849035
218.426021145046,14.9947533369478,263.088933800892,40.1449659592448,364.955498253965,-8.68777073600256,460.013932057728,-21.1435133495629,182.116897206426,9.68230689822333,317.027364379003,44.1533301004953,1416.46747208037,-3.82107117527627,341.542682612086,12.2602989856948,625.62842835799,36.9700068440827,740.168780523048,104.133600233483,154.104836240556,35.0336544677445,17.8379232461565,2.70155474761565,72.121505935668,51.2627744678787,238.127614093042,-24.767284821886,1362.68796596213,-201.648939280225
220.75347003249,14.9077732416653,264.438460533615,40.6078784145054,345.910113139103,4.10603917782722,463.472188139579,-21.1795951637244,181.590513621897,11.2433229391531,322.420226843334,43.4226030217209,1418.41882218638,-0.530540358907789,342.124249262096,13.2652049055212,614.102707087291,45.509597730677,748.826979447244,104.355588638033,155.055839502314,34.8303212973378,15.1189237012239,4.16073266039876,73.2345069440686,51.7701725461425,240.43527721462,-25.5232735786075,1369.17531017265,-197.668182621537
217.202617828823,15.1059289316361,261.572929337721,41.8533195158711,345.257103886258,-1.27511064408061,458.076228912283,-21.9397882734438,180.49081190181,11.1889135716219,316.016922105571,43.2690554034036,1402.73191724492,6.82773009331441,338.957360642756,13.7357251237275,623.049118354642,38.9648208135094,732.133534526636,105.523228550262,152.724775065921,35.3377708275886,10.8747261971956,8.4956699942596,70.7674104425453,47.9740578928545,237.346285721358,-24.7880593322799,1350.88553943872,-201.392285680813
215.617665198235,16.1076206269883,263.820890061837,39.9172371461023,344.051949661117,2.59589914176767,457.373063644359,-21.9529381661801,179.673760514008,12.1280295757993,315.593679167062,44.2331599383973,1397.33178852838,5.70720204238367,338.66772556809,13.7305623272703,607.586625081643,44.5137400874327,736.332148374598,107.792381862743,152.605725682691,35.20352985162,17.3640904462989,1.81476710072674,72.0327153810665,52.4475443957044,238.031123039701,-25.1034496193694,1365.73578755575,-210.085561765947
218.675388957374,15.9038447926156,266.936753612624,38.5954695264226,347.939847296258,0.181859865450656,462.752718997329,-21.2795436704398,182.474994356135,10.8646359653353,322.652258274275,44.3833302852256,1411.78751459627,10.9916614596531,343.612622342193,13.6918225943784,615.896732966154,44.1851062997384,743.988350682963,106.130791783253,154.078991982274,35.114569362231,16.3235494868994,4.12698065854009,67.6265081330657,49.9964174289204,237.861353902504,-24.8980099604226,1376.90490467986,-210.945064416958
213.217378319795,16.3773137260294,261.190840379471,40.4078023243146,348.514775719691,4.06851728033288,455.968246620458,-21.5496189144316,179.31535151854,10.9750085610985,314.996753918839,44.9861283468704,1399.94278187525,-1.45696531132788,338.24513096235,13.6462367159366,600.294193215782,54.7423588378223,733.865917816324,104.681898487498,152.284785912859,34.8154858682066,19.1384366335328,3.75974078915109,75.6828337492055,46.6774743671581,236.945082672116,-24.9783210636373,1360.43159302768,-202.137152958808
215.426116880456,16.8689245855817,263.191876027661,39.9700422413251,351.334984693303,-0.745286995125141,456.537455861312,-20.4433724286854,179.915060192588,11.2260598084358,319.299955439099,44.0408162452478,1400.50917873582,11.7426254416758,340.435202299193,12.8615103176934,606.746968994306,44.5172509873518,738.480736539808,107.029346537896,152.58239235637,34.9806715102451,13.6900998432574,3.95086291614674,61.9606217740943,52.5148750895757,238.082154717796,-25.0131497060516,1358.78689587171,-202.892575459569
217.110273142691,15.2933510905165,260.16781111082,41.2903635775073,342.090310988433,6.35603925072938,454.595848435231,-21.5593876871801,179.105650263034,11.9674539649869,313.629489506983,44.4475106304305,1404.49421419265,-1.30405611619778,337.503833866295,13.5382516706239,611.00599487985,42.5771562564789,724.936054552567,106.762065404209,150.980825731163,35.2313448249059,9.72080527868476,5.34777172670548,63.8398986506915,57.175831474146,236.079115915536,-24.7391731363808,1351.10898856583,-203.877038367081
212.693723411477,16.2516827836671,257.688005926101,42.3135063962936,343.606769080451,-0.0568575584782092,450.554073205285,-19.7835772448173,178.522849217309,11.4818470985114,313.903341590712,45.351291229807,1387.84617309324,13.390309310638,336.587402500557,14.0070229297203,606.269965580918,38.529664214148,725.296358125589,106.766367139554,150.722069384077,35.1739873792952,7.88037338754598,6.66093836113098,64.3762984902296,53.5306140607098,235.908844426478,-24.1556619606007,1346.77769772443,-202.427003534022
215.95472578506,16.7314929005207,261.447704620121,40.7808462622778,341.586384272805,5.92108040733372,456.688429385561,-20.5052723245549,181.739270502031,11.1356213060262,317.009141288266,46.108050837194,1407.60843064685,1.56174047693462,340.286317458361,13.3692635472524,603.530500835158,47.3056290408765,739.798316602181,106.879257991641,151.878855113815,35.0302291674813,15.3687213687708,2.35006082700528,67.0032210824494,55.651686127464,237.677522683047,-24.5043151035299,1355.67589175264,-206.181795563215
209.49415368138,17.9608711720886,260.08158520681,39.0337376099763,343.61693325901,2.1468899485808,447.994742213006,-20.0308862666373,177.632014701257,11.9220847342853,310.375697165572,45.4157597848099,1404.6364363675,-2.44489205379899,335.72760557854,13.4833528254277,604.081820359344,47.8192886012811,717.274648053915,108.219093335868,149.354053076558,35.2461327375335,13.0205627288674,4.40811305369975,67.4192065482843,54.5015307055229,235.675647788362,-24.3652854485535,1347.41075689152,-206.73582106322
211.19979059093,16.5110702430645,257.02672162058,41.3005258546282,344.240035153635,0.19279356265595,449.428293176481,-20.1946093157414,179.834009290732,10.0901258741129,312.068011497665,44.768873962504,1382.96332512217,5.31585461513245,335.164418557031,13.6177944848669,606.588869953177,40.4911516807377,722.209956131939,108.014254652702,149.263882935778,35.3519359998855,20.6118667723728,4.07673385306742,72.0736506647118,45.4713543674486,235.932710342028,-24.7021000132508,1335.11753705111,-203.691461786083
215.710086018841,17.0654809683452,262.152884393377,40.7525405252199,347.506397365151,-0.394399865651139,454.810996074392,-19.226861321426,181.925123162759,10.7914704062847,318.10807908997,45.1413549796853,1406.41887232123,2.35303971949795,340.789351392091,13.4159470947506,608.14230400138,42.0570605094678,727.089248964167,109.547611706432,150.350742615835,35.5491061883995,9.17121203288568,4.82533414026793,66.5996744296091,50.9415903181116,235.897282209266,-24.4472998190075,1328.41241406231,-194.761573712976
208.031838404184,17.8575709614272,254.631843095572,41.654096966325,343.60066627391,1.48193393437784,445.944075831662,-19.8193973610614,177.639142758236,11.8526562525495,310.409060049551,45.2378855918689,1373.81004169391,6.30538853345689,334.65453339057,13.1166994214243,603.931977955926,41.7703854073846,716.503344765545,108.06911318878,148.082917884925,35.7091520524854,9.66326069015987,5.58280091037993,58.2228553405442,58.1494845698128,235.023970252685,-24.4158018167684,1337.33159196312,-196.423571239523
210.727789506403,17.2248923463203,256.153651834521,41.4976570369987,340.122907258361,3.51930172816673,448.066969632334,-16.6807920207724,177.881749634637,12.5762533552228,313.67911458177,44.5142076800352,1390.10727490493,1.76623345313654,335.614857188256,13.3195442377261,602.943789096479,46.0379476523592,723.0747808247,110.315499152484,149.095692121608,35.4667061747313,12.5888469997463,4.22958418621066,62.4110710314269,51.7937757659347,236.694056353223,-24.7719806263989,1354.88900728128,-207.591788754122
213.712162103495,18.1253642224449,260.512570606058,42.1169949202314,346.036052637381,-3.82741206141722,451.968244240669,-19.5196504052451,178.49283494329,12.7448528210143,311.805652267103,45.7442060650911,1395.77115379784,1.54754293730706,337.360906168748,13.3528429569029,605.776373290487,41.1123472770172,713.567283649931,111.119092210059,148.131385445035,35.9736213727615,11.7904555815951,6.48873174485408,63.8408039158539,53.3839113375594,235.68813202183,-24.5738750321411,1331.77829835978,-200.87834250626
210.021972762137,17.0857438936548,257.448931557056,41.2269147148876,340.437803503741,0.789096148668192,447.116483690191,-18.4918991835446,178.862691070461,11.3006847574588,311.806421073153,44.7300314918811,1380.23200114438,1.77978786585636,333.85742823686,14.3041589609968,598.629035268021,46.9832043783604,713.000114010508,110.691277783804,148.557726017003,35.464796148354,7.77650885082403,9.44441157859794,69.8972893029373,45.0980328645027,235.738478697847,-24.4239893813305,1333.28641072975,-197.116076116971
212.258620111163,17.3944053184491,260.945317303533,40.4585799489537,340.483939798154,3.5135656459411,453.538689696871,-19.2067392317247,180.505440830741,11.5469889949876,316.100706502608,45.3897554785217,1379.82293690496,12.1336158137621,336.572159346422,14.4092702490746,599.169580470868,45.6076886953123,727.361025189791,110.368978200099,149.534476160192,35.9201317248536,15.1768916645682,2.94778196696156,72.9476300889974,49.6227707784234,238.194048482723,-24.8112512628681,1344.60025704197,-195.806684654029
207.354629434971,18.6278680236266,257.370518225898,41.1193574910574,336.94687134633,5.05886686409887,444.365301950419,-17.2089097496947,177.144560287482,12.0605815160787,308.344531520973,45.505105891179,1366.87981292465,14.4243410685498,333.106030018808,14.4741989610959,589.311073242615,51.0801132831416,709.710509781877,110.926944116,147.974432274825,35.7912311013096,12.7641513503905,4.32266569657007,63.8610276448989,51.4690109145993,236.302834984996,-24.3521946143126,1321.28427148828,-178.952848309714
207.954661808704,18.2747164598097,259.906028473058,40.0061130003882,348.61150462595,-4.76851970083038,448.765827134456,-18.2062909708467,178.505140107791,11.6246156503993,313.256642399217,42.9366282787405,1371.74199957147,15.2571209276527,335.503102041278,13.2364176927481,591.058276745864,50.9617529168236,718.870450182565,110.985119230291,148.507550987887,35.9046794949547,17.3803249192261,3.21811606286952,67.1816041120079,49.9440924644717,237.628974210578,-24.6838632963934,1329.35988914193,-193.194726651126
214.200055455582,17.1751428341155,262.410154042042,40.7595723225035,341.111414184297,5.57743540193783,457.079321539682,-19.7697406088534,179.898427664566,11.9230317504282,320.128169721468,44.9856222692802,1381.93120636749,14.8750624936349,337.896333603518,14.2790582230912,603.584935310458,43.3657976830202,728.322662758835,110.015292694876,150.499360824773,35.7200052331046,11.1179653003574,6.30394020125236,74.067962329519,48.2774395910918,238.880634156987,-25.0330495657009,1338.04000551916,-194.411886077976
206.359361692366,17.9397063187295,256.586086517234,41.2968402448256,339.211096307401,2.23671545061433,447.051291989438,-18.7029703131968,178.228843445726,11.6065905969015,310.108008790459,44.2103939300309,1374.70884606463,11.587378283534,332.675536132463,13.4165668304264,588.998139747801,54.4389786853477,715.051071315297,109.161846927749,148.717854262827,35.6076885546459,16.3040305387474,3.62251058884195,70.2269093617348,48.1500866592808,237.462362313735,-24.7210116917425,1341.84781512954,-197.001855653802
208.91417052551,17.6518956246322,257.542583572829,41.4354403363184,333.223032820187,9.46231243788325,448.144713284567,-18.0698328251883,177.440385295931,12.0806400953006,311.562912542233,45.855390905425,1376.68616626805,12.6775341958614,336.381578200614,13.528998926554,597.560424038694,43.7805559559898,722.225747725871,110.971147819454,149.072959710008,35.970341134901,13.0956131062796,2.86413227804581,75.7102822069884,46.098494885574,238.579423911812,-24.7357585148041,1350.72690831774,-205.312884599572
208.94927993826,18.4011256612033,258.729637930703,40.3416673124135,337.77702994066,2.48876228230798,448.905549268904,-19.2422298737117,179.179534907874,10.511174022887,308.9888936902,44.4211413581742,1381.63325687013,0.479717511566932,335.24781420313,14.0544253013366,589.186032596517,50.4592852184959,710.42846873964,111.436942729521,148.80130275556,35.8288107160822,15.0917839396651,-0.377726961652099,72.3065266338297,47.1029896426139,237.029363221592,-24.1523957061667,1316.88252978037,-182.939661096639
206.799313922319,17.9158046381171,255.703562378444,40.8744615669659,337.416425458371,1.84802521251175,446.481297090385,-17.5482203420451,176.688597262023,11.9331081792011,309.242967645945,45.4238424874797,1354.19871373608,16.4757756487352,333.881902393329,12.9907689781773,599.437422627716,44.3737671933563,711.540178558147,111.849318161176,149.27883661247,35.4329669442942,12.3776650618504,3.22175389342435,68.7659574589768,52.5451419082051,237.437662761469,-24.4146606028347,1342.66822269524,-211.499667859159
208.77508568604,18.4667111841501,257.658743326249,43.2101296579679,331.999170105716,8.30428436201581,451.941099495908,-18.69948015241,178.578098531592,11.7389725635715,313.465359265327,45.0469145299527,1394.22867423631,0.302026763734659,336.77298200812,13.1060661733264,595.965227373065,46.7664928461282,724.518343227315,112.681573233658,150.474602615576,35.976526732822,13.5007638360717,5.5448938577839,72.1520911405922,51.5524585041586,240.250023760797,-25.3970625959227,1350.83132418301,-193.498061646819
203.031467840937,19.6504166582967,256.831830639127,40.8572935496822,334.452867080175,5.25291837789556,442.086295117864,-17.0427161781763,176.231998596711,12.443459449999,307.532933106451,44.855818819437,1350.5247680994,25.2596352431097,331.204951582714,14.542241551471,589.951677609346,48.737559226193,711.156992954728,111.161784869404,149.277443519963,35.4430454688382,19.6307124927392,2.57810514271336,63.5004280666983,48.2592397118236,237.318242987694,-24.3980795637558,1338.04097571419,-191.119282679177
204.568909553129,19.6388926187335,255.859918566982,42.3317790089165,340.111687113245,3.50098655114352,447.424703201604,-17.7408321472765,175.944651314485,12.4365115223402,310.061106237787,45.8640297161692,1362.05345660542,11.3064906822067,333.483482743138,14.4911784872226,601.722787860165,44.0691202433652,715.834599136767,112.664958963884,149.847062140338,35.678310414988,15.3638592990826,6.42842216347426,70.367321959362,51.4826102392485,238.216488313205,-24.3961591890414,1330.34313513411,-188.987266482392
210.134050828549,18.7257843530849,258.018505215598,42.9875517711529,348.68219435604,-2.80715036175496,449.354231237647,-17.5842397250041,178.246967522249,11.8517163553821,309.295365397338,46.0692658802473,1378.92679100023,10.8173578183624,335.193096368467,14.7269662663322,592.837786998123,50.132030690005,711.37233542316,112.3034469046,149.595309195889,35.874915431243,16.4978280751458,5.080926731908,76.7920500083891,46.9006551930906,237.662858572335,-24.5262616210381,1347.0841936571,-204.385957153889
202.52177884631,19.7746082073923,254.284300699831,43.0034608896254,335.531515672782,3.81098037407996,441.967284244073,-16.6311692636371,175.673106414625,12.5145247188798,304.694109093348,46.6076148431887,1368.42468303251,10.1254124894524,333.969105305993,13.9166735107064,592.577855892346,44.4577544789733,709.673125882777,113.481943681336,148.897844082758,36.1554099207977,9.75759793946569,6.16023422928218,65.8090580383928,52.8215062240715,236.821072406506,-24.4525691853885,1341.62018021718,-194.305516893728
205.956857166001,18.8385715044219,257.597644883903,41.571864318347,344.644568847873,-0.302940214470663,448.125624700662,-17.7221506789537,177.373706339536,12.1543699774612,310.669292488506,46.7655029267187,1380.71309340385,14.0431538918955,336.307626864443,14.3495587840526,587.816999504418,46.3843651391322,719.955717642002,113.483306893145,150.395127653904,35.8998999743394,17.7274359539212,5.70269475671769,66.6216367758573,50.54784184511,238.057573678839,-24.4062475326575,1356.32564766378,-201.870051528581
201.624823408943,20.1086271505213,256.618356929061,41.9002273181926,349.308347649769,-1.06286726955077,440.746256393252,-15.7335454070941,177.290333466463,11.3875229823256,304.147623848082,45.4669728271653,1353.13262193503,21.5427876152826,331.65383117755,15.6707561665159,596.09280906318,44.5782362233435,702.924243794412,113.283366140739,148.319745402157,36.0525245829663,10.8972321283549,7.30484832574003,61.8027508737941,56.2984367815533,235.577970413744,-24.1053829176056,1346.30296004847,-201.442719812523
202.144063702475,20.6669655836816,254.83167011141,42.3054128279824,337.437596374041,3.38595140829244,440.850389706233,-16.590682628811,178.031189628569,10.9478827632774,304.182732864377,47.768957934175,1368.15329479191,12.1611238140475,332.753121628652,15.0290505627781,581.532952461778,55.3491214946318,708.590648268861,114.074593135503,148.727920236617,35.9170723930459,14.0984331790201,4.80727851070644,61.6363837932102,51.4353389967375,236.164316795418,-24.1232824646881,1341.75844451158,-197.328005007422
205.625947923123,20.9772615538024,261.541296332918,40.7235042824443,346.794051296482,3.57594869075098,447.039228630535,-17.1436531076629,179.008378486952,11.8190873971141,312.681420357936,46.2804129108478,1385.55595509625,17.2242291267174,337.712019060935,14.5973443456943,588.95979563639,53.0529181156296,722.150733911903,112.374429732795,149.979324204705,36.0796281793668,15.1493978727727,4.82122470822569,72.1386918530607,50.820759143767,236.834983054746,-24.3878552946862,1352.8008153643,-200.753193790348
200.910757689467,19.8104353065249,253.232010911366,42.555733391462,330.617592242959,9.10008270938438,433.774062417309,-13.5904077288393,178.306843131605,10.8076362527551,302.964349389765,47.8699859447996,1367.1414076381,12.678988500791,332.620135788153,14.290938253921,595.526780397041,48.9247632492155,706.336734660958,115.153574443374,147.884859302274,36.3458124342218,16.4330572228508,3.09749356723718,69.5651613754133,49.5686406219608,235.523684313261,-24.2453556526166,1361.65922160818,-204.499123141777
202.776810562073,20.1963975864759,255.074823357919,41.2633375849573,344.567469424489,3.40105265450767,441.224933702635,-15.9447422543733,176.591036744143,12.4994322984682,305.476615037874,47.6315267597405,1376.30315660486,11.4337378736347,335.032854818465,13.8354434992758,594.301204159447,50.3470982718397,712.791810886624,115.488392117203,149.584065050392,35.8748041786601,10.05020476543,6.69025805890436,70.4566869669833,52.8231759190571,236.1992941409,-24.2064968360569,1356.10318525631,-195.891276007114
202.707700576145,20.5033158989767,254.594507560118,42.5444821532744,340.307918575754,2.57064721512773,438.088575611966,-15.1943551195573,177.049655690036,12.1886628519429,303.749626108028,46.6988967444465,1367.74759648801,18.1223673992646,332.381924763665,15.3129429908145,592.227589757125,43.1106419997892,705.443938761378,113.136998572065,148.196925360492,36.1977000658775,10.433889516166,6.50010538125606,79.0670487566471,48.3362108606484,234.08206216294,-23.7821720957828,1344.2378175013,-199.208593015911
202.094553171838,19.9589324321985,257.220010927461,41.1773058087633,344.995022466428,1.95617193240032,440.228161331095,-16.5932553502486,175.720820324153,12.7286098202422,304.82721403774,47.5078721419278,1356.96656220802,24.3431875237888,334.394810934801,14.0683149997024,606.131257927854,41.1152037183375,704.195857441931,116.627698903637,147.838122521669,36.2374211215376,12.2129193477479,5.89588513952981,66.4946439081392,49.8414453085391,234.707223840145,-23.9773818868999,1349.08117960077,-203.579219548454
205.166706319904,20.0304614512405,254.26241507481,43.9302243096634,333.243705808841,7.21545901342135,445.127476741961,-15.6445234298449,176.573431656325,14.3053043464293,312.912681883867,46.8756024903953,1387.11428463588,10.1803630655443,338.503283653242,14.5125059757218,596.407775843908,51.9904232883173,722.15186330369,114.870488342051,150.052641324491,36.0994578671584,21.5237557750451,1.29645519408585,69.3545907639503,53.2392451483391,236.102007883221,-24.1441670840306,1373.3946791275,-209.963690149805
199.93639944803,19.8309739281667,252.185020112587,43.096841680226,342.759710421852,-0.829695954103444,431.266790021052,-13.5172990802593,175.952586732548,12.4317464264858,301.354336893246,47.8478031978046,1381.67024131547,12.6071250553733,330.054386145084,15.9576185541585,594.315342154246,47.9533450698924,702.250159513395,113.846082826302,147.486054393361,36.2356604980129,18.2305126037016,3.36784516072683,72.8878381144357,47.978868263942,233.376724922281,-23.692862229876,1344.55699031484,-186.745094862036
200.544026247232,20.8889311673545,252.060321118925,42.3560137173673,336.98950201275,3.34749464000504,438.660672295936,-16.4934396167412,175.827497301975,12.5481895842817,305.893941597955,48.0195762373388,1368.68033184955,18.3280581138104,335.074109077393,14.9876633406286,598.460786405726,44.8996611313976,713.097030631171,112.341799737872,147.558308623788,36.6414027798986,11.3669136686178,8.10843663813712,72.8961637542624,50.7694166460651,235.024109493849,-24.2861783898026,1353.3520685426,-196.367009484655
205.759033187548,20.5019421157319,258.206971412859,40.9786687513929,340.008563761585,7.07257605270416,439.844180276883,-15.4569649173232,176.753812953414,12.2542657501822,309.121398397064,46.0454513697676,1381.05730428971,16.8826066556248,336.882277279704,14.8272176030175,607.025574029624,39.5653724208914,707.70998546114,111.746401374811,147.238085448519,36.8841129682038,20.1170331791667,3.31758377393609,69.5297416773052,51.286106920198,233.95106491222,-23.9429050332452,1346.99338879721,-205.15789258796
200.637061110522,20.0841254150801,251.195404071234,42.6392913272634,338.946083846832,3.0553108555728,430.211128994413,-13.6948609033822,174.279933992848,13.0825725922355,304.237972522593,48.2164716355231,1368.60209845019,18.6674732570444,331.19523276894,16.7913308150494,595.952513117563,54.0849903462434,706.331041580362,111.881893117513,146.955251639253,36.5426863299226,16.1034908300067,2.86537856413202,61.0840698322324,56.7421007283703,233.588924785448,-23.1808898333603,1346.68921405629,-201.840938438317
202.340391356285,20.4618423107532,257.025874986205,39.8204492170163,344.290478640258,4.65582923392548,437.175887529593,-14.9329995047842,179.612613617252,10.8373874132885,310.882706622703,47.5823294755264,1373.90329398806,11.4540254487839,336.672692405979,14.3044948996773,589.599379073364,56.3516860022304,716.628464802164,113.361116198014,148.156836993122,36.556536933828,11.9607034852491,7.51777577239209,64.8068723319817,53.7851406966574,236.682844462871,-24.3261949055341,1362.80905901355,-202.520240088693
198.933897799476,21.2860343981734,251.285700446455,42.7191641064295,343.775362683577,0.470660575785289,432.947304218732,-13.901076510401,176.305078247044,11.8394349682594,302.515979453027,47.9951346353627,1383.36829436219,12.3422008131993,332.958266555145,15.8147847770629,610.243449413734,39.9229150624289,705.098947094162,112.68884973746,146.698244424922,36.2110437509299,20.5424593400585,0.546048489880566,74.4703179136324,48.9177063271857,234.024794368116,-23.6420951616254,1346.19563361007,-199.076715999859
200.376113914647,20.3113637959804,253.752166805227,42.2855407613084,337.624312489151,3.70198502147953,431.083238300347,-12.76879428896,174.733843228516,13.0873975259648,305.388145268887,47.5172951912022,1370.71300379657,18.1580290856421,333.553020653148,16.0008266947917,599.043243393813,47.3607703314637,713.493324026247,109.21686906938,146.827531147471,36.6154886952008,22.9377413087917,-2.37820277088738,66.9140884862191,52.0046338395546,235.083671816082,-23.7078980111672,1351.69572918383,-208.972243774093
205.82933302045,19.8729161833748,257.549523852973,41.8296195448564,350.41595491088,-1.67477978147448,441.704914622564,-15.5820203886936,177.301104041521,13.6038822751462,313.389321768061,48.5609832601756,1396.4718961279,12.401114701623,336.346119692025,15.6386607465991,605.636700707599,41.6091016650936,716.255642128859,111.23723706571,148.296720330015,36.6570596962745,12.942743775762,6.27422347501829,65.6272880861431,53.5386430526781,235.189862621763,-23.8962138623476,1344.40848903682,-197.328605684404
