230.692597894968,20.4755489322957,264.136373724738,44.4080307886027,355.709683369315,3.8921214513734,475.393121795061,-10.423530888867,183.441806395765,13.5146905554684,316.40967499175,47.66413145525,1451.01691551919,13.9009969747589,345.0878687665,15.4721255912906,609.736299943941,56.0074957272264,731.7929284682,119.094379828565,156.832341004733,37.4915566397987,8.44225150214045,9.33854433533339,70.9271940488056,50.0289858843612,236.082853753533,-23.5242082910407,1309.3624522481,-179.451594177134
236.296699988743,18.9524904705856,264.551232226894,45.1922554133978,356.212875344823,2.10964509612984,488.354748865776,-13.7691110594628,183.806234173301,14.2104216792759,319.864675885046,48.6582341830484,1458.77972444468,10.6073961253875,347.757921543854,15.8639032065782,609.414106901186,63.0044026200343,742.247197622156,121.150146361378,157.781105891936,37.5469567709733,14.8547458128101,6.12681176521197,67.3802090896638,55.6199997622089,238.045061532442,-23.8868953482453,1332.07822173757,-191.181064161465
232.99014058335,19.5538484385964,266.598662664811,43.5905509332952,359.55744125627,1.10940042161452,480.837475556762,-12.4230280537037,181.203605097227,14.7816832890467,313.997671686881,47.5470066708475,1428.11984439293,27.5559972657839,346.106840211842,14.0645625300081,621.259171970013,43.0060731564772,725.82951735201,119.861335478067,155.166972713718,38.077656948829,6.86799424844814,9.20038238879936,62.0220591130883,54.1259449520694,236.684630790827,-23.7801752046804,1315.60377567938,-181.715320468777
235.004096262224,19.367879097028,262.814120500023,43.7982882701751,353.202983145347,2.45297014574622,486.867546844518,-11.6746350826746,183.494931931107,14.2049541137064,315.07108395265,48.4382710969542,1442.15049431558,16.2004243267151,347.348056612894,13.2950624658773,617.442157454545,55.7149484574143,734.780629010317,119.38121392336,156.323357413302,37.4699462253463,16.3225084391142,4.75153933932452,71.7309992993089,49.3622847656518,237.736253371677,-24.2632247175608,1336.92960818751,-184.957306062726
242.312434429497,18.9600555913635,265.288126280513,45.694826579967,357.960371251323,5.44772957836379,494.552969245634,-12.9790369223461,184.808638227324,14.4688233649934,324.452074544545,47.8140426698268,1475.01799661034,11.338075953149,349.659992530597,14.233702845531,618.477586392836,53.7801971532984,748.065898025763,119.166958775757,158.438089790434,37.3771129124703,13.8072983287831,4.12358029516531,64.8597668779015,55.8429850464434,238.841178761435,-24.2627273610385,1345.66301790692,-194.288467598948
233.992003193648,19.6110999785657,261.666287093827,45.6960027757426,354.565165901169,5.06179229311352,485.211567998245,-13.870055258336,182.562327030406,13.8822911680194,316.537859549199,45.7707277806604,1432.75938878275,24.0979810651381,345.512606249276,14.0685570448686,620.616714307379,52.9357901241448,735.843790204871,117.891839411937,156.228223607181,37.3524890836007,11.6482145196621,8.45287674197709,70.1891527341445,51.229828750645,237.367982720791,-23.5947532903873,1336.49303733554,-183.596525906197
233.626288569155,20.6578070287162,263.974897176008,45.7553724527435,356.371829921809,5.55103592556552,487.006269237332,-11.1056390272723,182.780216469933,14.8170440098496,318.708412081241,48.5732300385304,1459.18368761015,14.6735215298064,345.521817714832,16.0388083529978,623.579264259528,49.9059373729576,741.579732244586,118.567216727209,157.111710545635,37.8052763591508,14.0470349451845,6.8373273160405,71.0517609487267,50.6430989749935,238.904637783373,-24.1248634923319,1338.52775739441,-188.704375444025
243.340997811739,18.8001367844729,269.687275429399,44.806994537691,357.455310867378,2.02973384886361,487.352058076104,-10.8171149353286,186.126185295467,13.3398471709711,322.983310612546,46.1294241166114,1462.54481207686,17.703417897313,348.366714757898,14.6953782177216,624.259085478844,59.2329364560384,733.854429055152,118.519850822064,157.05909293979,37.6851018673565,12.9162208914457,4.50109853566442,71.781208103798,50.4048612117314,237.900265534034,-23.6996998711694,1346.42884084843,-195.216619133382
236.538969434352,19.0332642940845,264.309903663125,44.7982649490481,355.983272931957,7.6599023793103,482.689063154,-11.7987463890097,185.469775193911,12.6859633090526,316.751671592514,48.9365591117962,1453.08148517967,18.3748951992421,347.597325241836,14.2446023817926,624.309040417014,51.1905679777338,734.696923049772,118.603535314204,156.901850786998,37.4253186338017,13.7600853956707,6.68082269628346,70.5435971808345,52.2797086678157,237.857600462629,-23.4804322079019,1357.54809353269,-195.190561478722
239.707997474435,18.8418907674444,267.548749587114,43.7559372918264,357.824749787007,2.87971699910742,489.172017230796,-14.1332992031795,186.808729640851,13.3185993380354,322.300533228754,47.9844437195443,1468.71328362098,9.9893701954681,348.556662026281,15.4832627474092,638.524781079303,41.1456010859884,752.063211772278,116.050862807135,159.252885345296,36.9602517687459,22.2166444287245,-1.55406542353821,68.0633169997267,53.0938015505836,240.174153986007,-24.5105322155789,1358.32522576794,-192.390482991906
235.770568347407,17.8771235869352,265.160771998263,43.9811245160623,356.947154594644,5.86557932804552,477.627241743286,-13.2171448249883,186.334115372963,12.838863125065,317.396077476412,48.0262553069796,1451.82217507564,19.473368572665,348.326626152318,14.1639824858008,620.745742199194,56.1596724247545,731.892570415065,118.753456898893,157.141920542595,37.3824996391748,10.2635300945914,5.85099384388105,69.7013804940921,52.536531502567,237.940057744774,-23.4945441937766,1341.14160155893,-185.163647281191
232.559970485475,20.204400498934,267.197567464761,42.9542924621348,357.95822311488,6.54757007124019,476.849541145522,-11.6026401468819,185.998981340621,13.1828879997,317.279697021607,49.0342906694062,1470.75340970819,4.13880601441113,347.613596237498,14.5670436772162,625.830366794773,55.1378746168683,738.314552898736,118.246608741023,158.089659795205,37.0896184195365,12.7452544371014,4.937392402882,71.6461786490274,49.1450939053373,238.429178509561,-23.679640135815,1347.40887183074,-182.721258475825
237.266497605408,19.9196971357427,271.356629973041,42.5177606891625,370.947950842902,2.93590714982688,486.141923388265,-14.221189294175,189.922663730336,12.2502242885646,328.018319540779,48.3106557324755,1498.28877089588,-2.03717589218903,351.769631889313,14.935698282947,638.222493109403,46.3320520675407,758.032972116268,116.551295949316,159.886632321148,37.1000231631532,9.58841253896492,9.1906374856262,74.365647546889,48.1266230150227,241.29398038868,-24.7148325268453,1377.17956677861,-201.293972986845
229.958177610937,19.6715038199931,267.016723668687,42.663365841067,367.370050701024,0.239234644111374,470.571436095207,-11.5368357351897,186.802430586642,13.3062731206077,315.94370519872,49.7680287708686,1456.5691064789,8.18162790346686,346.576923178726,14.9802632618247,633.440432348394,51.1491337569847,731.954495835121,118.310411550743,157.731473003282,37.1222839597484,10.2881787754383,6.89291713306442,73.6046002144548,47.0104653382455,238.419341568936,-24.0097066393804,1355.81405122172,-190.088219442845
231.949359786109,18.7147314975148,264.861261450124,45.447557871795,368.354312542833,2.15523025421435,472.073494685854,-12.4547364766073,186.177126194248,12.8999574029718,320.300233801584,48.6970529212623,1476.8815790461,4.69683149641686,348.913912826009,14.6223027040904,633.326148987614,43.2124217505098,741.029711896977,117.585881254282,158.364769134324,37.0693798156804,15.4585107591286,2.80346982876861,60.7123073381546,56.4648672375867,239.592025193863,-24.4363884576568,1360.31651184943,-199.175491765525
238.012055309783,17.8443224354335,269.070321555201,44.1430969385984,366.308378599624,2.9945767495325,480.885182980193,-14.4030389863606,189.524698390071,13.1340233520402,331.073887499026,47.170355377622,1482.90837863524,13.2942914040145,355.537293561888,12.380163484623,621.245686124713,53.9097658447158,755.564955921681,116.440171366,160.814094641446,37.0922590121564,16.3470331537609,4.26382903662023,68.3508229643279,53.2946509708037,241.066583226214,-24.8351218875975,1357.89323804545,-187.847219860545
228.166233285019,18.804544066374,264.17111310994,44.8413133519002,352.051401341051,8.91184435049459,464.699464485721,-12.5889721142176,186.040509268359,13.5773656307401,318.194083720165,47.5376511841073,1467.33185347948,6.59724906004148,346.107483016846,14.2399958274461,617.251436318415,58.2292460487398,732.695363714999,119.437148564477,157.540978175343,37.1841840287908,21.114563974596,-2.34146097390998,69.1955451995801,50.3353899820303,239.464921016096,-24.2363189427727,1343.88148275327,-188.183061113339
229.7772134851,19.4045636570597,263.842770665764,44.7009393369385,360.014257008025,0.554648551280356,467.897628350808,-13.2119724426216,187.218501636472,12.6552718665423,321.668846440915,48.0766308732384,1453.94113536847,15.6843352945499,350.596949095539,13.5437169273365,626.554262792481,54.8725323849653,746.913345055832,115.804898554122,158.582205815227,37.1549268839321,10.493687272451,5.93741835762621,66.2675414945863,53.5288621158559,239.495461561929,-24.3812680423861,1350.40399119261,-194.4561602792
234.93982707432,18.9385123477251,270.388492970459,44.1382437431993,359.937986799204,3.15283029424018,470.680649392375,-12.8947066927263,188.495936898871,12.6353737528756,324.329906456425,49.2352192943168,1487.03387813157,-1.5015379828358,352.90875031453,12.7588933646983,626.075190554429,53.4500352977811,736.413874989854,118.597912820594,158.891901498957,37.2337599616053,8.94058286192613,6.53792682068454,70.4858750751908,52.955947599081,239.111133654634,-24.1615154642854,1348.20451770835,-191.409450344829
225.77738216962,19.3892951478364,263.087794515595,46.0176326155676,360.638549267298,7.63070766426327,462.444499195141,-13.4186017632598,184.852622251626,14.1821899389945,320.697078467261,47.9051220972874,1458.87367108499,4.45142320538538,348.123109416326,14.1442346402381,632.575662540149,49.6700562544734,735.359846331109,117.677147479456,157.999370333176,37.0083514917231,15.564515204264,1.9716404195265,75.3847874299894,49.2986732159646,237.806188715815,-23.7002644128129,1349.43827812393,-183.862787046761
228.663983410233,20.0360451829192,266.013096627365,45.310856777951,371.496479369187,-3.14628369903433,468.388236921511,-14.5974518890233,186.281063651776,14.5023156433413,324.564278882139,48.486553079874,1465.34782428648,13.6129537313576,350.586894597059,14.3986298820012,631.178034225477,52.1011467364079,748.961323652206,117.865740382895,159.634972490771,37.0699077514486,13.9233074078614,4.85289720582253,64.2368726281854,49.8980828397758,240.964190855777,-24.9100728001007,1356.744410268,-188.846038588958
230.611954707567,17.7681703429608,265.110527556696,45.425408412761,370.590414107459,-2.75678982200134,461.300903580307,-13.5735288545861,185.162794677779,14.1507739002237,320.226158085125,47.9629483571933,1468.12418819057,3.18645757417741,349.041678502652,13.4691749047576,623.906261575741,52.9077029247921,738.316210540133,116.166099846755,158.851491988556,36.930673887488,15.1927506852193,2.44750840060502,69.8297508998255,50.3995355894025,239.057827697978,-24.4924718596646,1366.91037856042,-194.878292609488
226.159730954966,20.1551874451431,264.778924016267,44.8254037802605,356.623294046538,4.21102966726642,463.246728828497,-14.153569887695,184.585007791999,13.9367059228833,321.748695213431,48.960944055318,1462.09789105288,12.9350868524186,348.668221312927,15.0024290577873,622.283703687294,50.0119925920225,741.327378296988,116.322579916619,158.701612732733,37.1056467870414,21.810445447976,1.76493315486011,71.6667052297915,50.4689436022626,239.014534576327,-24.055848820746,1367.74595272932,-195.550057678248
232.548777070082,17.8132445957583,268.426167454683,44.3257797873482,370.078420281773,-5.27626765083151,470.632977678735,-15.2251407579745,190.09350886732,13.5234873002985,328.886591696724,48.6720205747227,1476.33180919264,9.88158379336683,353.706430365915,13.1044213051822,641.792925678546,43.589702059481,753.977669111369,118.803809989739,160.96705413177,36.8820085353624,13.576102515305,5.94089870994585,69.7171022913218,53.0605583290052,241.764751559385,-24.922338128269,1360.47454005584,-192.292599267456
225.099811781477,18.8981559756789,268.088503458459,43.5064781994197,356.098162511593,2.0667091552347,458.69059475309,-13.2252615227306,185.786199908377,13.5153943720167,320.266622556874,48.8774049060041,1448.84170845023,19.2050251531264,347.388916569087,15.1209476855412,622.745414440793,54.181584886268,734.867582479005,117.708818158536,158.192798660997,37.4405556687661,12.3264251852951,7.62730126005677,67.7211484297218,51.8042423449101,238.257671573216,-24.288012916862,1363.21317862062,-197.227171444466
224.498017954848,19.1664482755839,266.093625098856,45.0883858386232,355.209081839952,4.3542867429445,464.404981686138,-15.4831706283812,185.948609932941,14.7730789489592,323.800014898823,48.4622147459487,1463.62681165191,5.27106706910911,348.556473284925,14.8321127644778,625.179993822062,51.5472573215685,745.091523926155,116.726979787308,158.881712991983,37.199228256404,16.7215057651913,3.04714552575617,68.4473310671263,49.2980136309323,238.798897876948,-24.3220309832307,1352.7103569646,-190.852557569489
228.398494906787,19.4148885937686,271.245944023131,43.8880165321874,363.283089961398,5.56683290895741,470.297991670126,-14.4332916076961,190.50850926172,13.1916066282046,333.371640377713,48.2150222481197,1478.85126940825,14.3961794648872,354.839449433805,13.8723727035401,636.109123167294,43.5085915267057,754.422851433304,114.917239090316,159.871605363956,37.509140259017,14.1010979773895,4.35023584447916,71.8703494234991,49.2250110949007,239.24904119989,-24.3914350796858,1362.5119860754,-200.426558331103
221.852681782837,19.1538301763217,266.983853861511,43.325418142838,356.352663624918,3.58791911967129,460.464562666794,-14.9286795648984,187.507608610145,12.8565372323123,319.87020550645,49.2886163597326,1464.7639808596,3.27252924949711,348.998733637124,14.4477017495688,621.250170416877,50.7601683366757,738.004640607968,115.280213195944,158.01944791548,37.2003311875545,21.3408021440953,1.06235796494086,64.9182997316,53.9824284483365,237.849312219919,-24.0447990456039,1343.81577058799,-193.768572397546
223.459376571212,19.5465345152678,268.162137664416,43.0890254503138,353.460221617846,8.51598510320884,461.427554207387,-13.3304621612598,186.430044987434,14.2171670047408,325.868102356585,48.4900909192846,1470.83691605547,10.4238644254276,350.822892335919,14.4089974191496,629.635006064721,47.7867734902711,746.207834631502,115.549439306006,159.03952963301,37.016794352009,17.441721154588,2.93111552040339,70.0652311671436,51.8311509671246,238.579724614996,-24.3028754476324,1352.56090750839,-196.573262456253
227.288899801642,18.8323984571506,269.800780732592,44.2014037116534,367.781367124499,-0.82964783575378,464.792477035501,-16.0235625027608,186.264829871039,14.4391229993121,327.426148142127,45.8871068115206,1462.99505046831,5.3872055687952,351.660075397506,13.7556957739821,622.369271358937,49.9460680216461,732.638938203526,118.23307646427,158.110342847419,37.3279431543835,14.1168862494853,4.48734210358466,76.8261435032758,43.1082658017456,237.854549262791,-24.4173548506118,1367.88835324713,-207.609202702907
220.217255043634,20.3848290657689,264.535353633773,45.7389773123218,361.77102479974,-0.210770661404456,460.412885837574,-14.8402487598236,186.035667895568,12.7960465280829,322.900336435682,48.2951811326677,1452.06558962195,11.2968326607009,349.8267377611,14.1159761556975,621.332127221707,52.200387546958,733.789381520961,118.708301934023,157.111238245296,37.1215789793154,13.1501364248692,4.17153929183222,74.2328170230887,48.7013622100062,237.40514732144,-24.2220231309414,1338.51114995618,-178.597384543315
223.085290983852,19.9371921906941,267.839767403573,44.7135206212063,354.395333098478,7.08581422307868,465.065602916062,-14.7378427728286,189.000082004622,13.2358645291133,328.111603144605,48.2157596632479,1466.85610501023,4.97572343731878,353.921461598358,12.6775175104729,641.775140363098,42.2351091676869,749.719168036298,115.681013744463,158.714004707907,37.0424667421837,13.0150455913818,4.64062341882925,73.3700394145629,50.3620935460332,239.000939225372,-24.3951445692944,1350.67162142798,-188.576131805774
219.068680635222,19.5089294013237,263.90789572632,45.0733705926869,354.364464698082,4.17540938195345,456.326253784351,-13.4233384100419,186.909378616569,12.7528685949943,322.001736061057,47.7407116635392,1435.39016403768,20.2341135143492,350.923900004103,12.3167445726165,619.838135657512,51.1159887750071,728.57864227261,117.799830333651,156.482329075447,37.1818285351924,13.0019880543755,6.71381022046599,67.5286136192359,54.3811821543727,236.659058199015,-24.0969794897375,1340.39449924804,-191.723203855429
219.36508400372,19.9786057063145,265.059377954195,43.6708687227682,348.859260267388,6.96790489413071,457.355886909129,-12.685523251728,186.656166171417,13.2910616016604,322.193260199286,48.2864910086064,1458.20253252364,9.13425493225158,348.577441338276,14.2917086425102,626.859081235854,51.6883719369509,735.107448983574,115.849398761179,156.512814768643,37.1742944280375,16.7452381768409,5.22659805724996,63.5813309450281,52.3626922140408,237.259285138705,-23.842325174299,1338.5191872595,-187.878276775027
225.934687979364,18.816143783993,267.572801166119,44.5917842451427,356.051504247654,0.632073475510429,468.674021220133,-15.7739706797451,190.526512715861,12.8362752812775,331.207387337877,46.8399938277789,1479.33466182993,5.72136922163198,353.557259550066,13.1611012410803,623.133153306054,51.7240954131144,746.24616606349,114.971732660161,158.039881688806,37.4270157496917,15.0773722439816,2.28073790801051,68.5002634343905,50.1298786030196,237.485576825989,-24.1264992634078,1334.7250997558,-177.425748235219
217.071395070151,19.6521750404418,262.926195004445,45.1251173156369,354.838674816624,2.68699342677818,454.399261177792,-13.5374709866393,188.710788229032,11.6446569131944,320.099239149263,46.8264817485458,1440.53842820452,10.5482994332718,349.730940413345,12.515747258614,620.536854686372,55.013444740356,723.954219557487,116.986795641554,155.588457537632,37.0136895597003,15.5391336330421,2.67135183857609,66.794426021326,51.6117889821864,235.669672716933,-23.864260494287,1348.4385621253,-201.466863258015
216.525785947757,21.5514579795791,266.307194952901,43.1813394850464,353.739817212904,4.54649559474574,458.79972328921,-15.6329965345683,185.808372138354,13.6626840505454,323.923512472229,47.0771434542237,1438.62315908738,9.73084964146645,348.383152291409,13.2635192475717,621.525137936666,50.6124387932988,729.973367887359,117.612797136486,156.108692699014,37.1348333424788,12.5717686642813,4.08367622690682,68.9541581681637,47.9160710559265,236.15202540191,-23.8816965884501,1340.9462590172,-199.463966886175
223.040800891814,20.8061464218565,267.027140992906,44.1348583567453,358.22980760464,0.012456611725724,457.644943073134,-12.6913843015716,185.856565666727,13.1938777737859,324.781077608525,46.4424684909507,1435.9151787092,20.2603634831431,349.64895529411,13.7249469948585,617.762154462647,55.867309882884,724.719393812674,114.86718132847,155.54354280477,37.2303549929229,16.3954813119883,3.53606232837879,67.6911478514237,51.8762259342257,235.345042814713,-23.5979881295563,1346.76992248739,-202.642163157246
214.739973269354,20.6905299851536,262.233718938607,42.8533145480205,353.35354775273,3.12624459360559,453.898277156992,-15.1779673565101,184.437285229736,12.7787312556805,320.613926771976,47.4989902343437,1418.76195898616,14.8260014035165,346.730564861249,12.7748527608799,619.46247614808,51.6685883013372,717.746886200371,116.81941356883,153.860573820577,37.592973991803,13.9232592561831,2.99875221411521,66.5984101381068,52.851120481762,234.851764528871,-23.67091882279,1325.96421307296,-186.843459905841
217.713488021984,21.2644330955387,260.464784279977,45.8917393356899,344.790734079953,4.35694866671112,457.706996472791,-14.8235984436371,186.120587918266,11.9386215370993,327.618325357772,45.2968407447517,1434.14571160627,16.007246578357,347.683597446583,14.766412317034,615.764723569636,52.9417420413208,732.006569247587,116.354347081025,154.863385153163,37.5566958266503,19.0237114103483,3.47975136102385,67.9924863451081,53.2195815386316,236.559363696887,-23.8267767954164,1318.37810691915,-179.815640923598
219.321386242468,20.6764756808356,266.545435539396,43.0760254394435,351.441654163193,4.29907020766326,455.038907952503,-13.3090687841266,185.834415401676,13.2713660901877,321.178273049766,46.8969518235979,1426.7478175408,21.1526360021259,344.201427581859,15.716866540286,626.676995643521,45.4191642095957,717.210237490676,117.454668090446,154.201621423364,37.3190052543703,15.5493396766484,5.35865563912474,60.1618409040816,53.7611049286595,234.888423231779,-23.5397572920078,1329.40374656666,-190.591836537346
215.819069272269,21.6260637898238,262.352958195073,44.6269287302065,354.086246445996,1.27010529419493,453.761826674122,-14.3939918071342,185.656818612958,12.1325112594679,319.933204897042,47.1540009682309,1409.84390988912,21.1467798698086,345.536458842224,14.5159985066088,614.221200928099,54.9721398719273,713.585243069461,119.653588139866,154.067439048038,37.068961533382,14.1023191294494,3.09240322909767,65.6900877457939,53.0439984622632,234.566840684914,-22.9840744422634,1324.38183377272,-188.090473098358
219.733565726688,21.2135229068097,261.425560268282,46.3528051341269,347.166270148567,4.530552381564,459.757027432776,-13.751848618164,186.007864802269,13.2576728370641,327.219385693364,45.9041383428923,1432.71499537003,13.0252315222856,348.303573936162,14.7645513783639,611.69261792309,55.0608901024012,733.216705052859,117.338980841904,155.379301672032,37.2677655585962,17.4712444908835,2.07680234360537,75.0050359087691,43.5808821553843,238.139134966522,-24.3476891676431,1345.22711705508,-197.738572510954
215.912668536123,21.9149066252108,263.94458518566,43.6110286580906,345.444074478697,9.0427241784781,451.98470256808,-13.4500687997675,184.164604195265,14.6736224362655,318.513282733492,46.9665741598899,1424.91895996419,5.87203303152671,344.28485438983,15.2876675494026,627.138922242213,36.2594550925761,716.852395400957,116.777589277421,154.004164413356,37.4253839689941,17.9101605748555,4.19402826700174,70.4817582041777,52.3705075376184,235.714117472432,-23.6323788245138,1334.57770846183,-195.302456412579
214.407885059689,23.6360813437584,261.583465400842,44.7063687345833,354.998722938306,3.5174274038806,456.757544972913,-14.7630433842873,185.865922101561,12.2631510011939,321.001423575216,46.7448215218608,1426.81986797195,7.00208782739356,346.356498179476,13.9362986020433,609.077985889039,51.3231626582234,722.237946686165,117.475849891663,154.365994217938,37.1766620292065,24.4868030655451,-1.62533599001853,59.1708275167695,51.4882331393384,236.61104421529,-23.7108367381354,1322.75267633369,-185.287696949677
222.139816401736,21.5514791224506,266.881374585943,44.5970210466771,354.606544382318,2.34310637150227,465.5443093372,-16.3602635991297,188.351945437832,12.950812092884,329.231909333857,46.7253092054114,1429.33565539412,15.5948919066839,348.382139161148,14.920609903035,611.589164810889,56.6197155553125,740.633382230129,115.271382019885,156.11234183856,37.5404305619617,15.5107712696238,3.23052039015476,72.450492398579,50.8599361382158,238.731901832095,-24.3607109505094,1327.32313343424,-188.450364464364
215.679471651045,22.3313597784524,260.402838917761,45.0651798199858,347.5060989064,4.58011928100536,453.893860187899,-14.2888390610344,184.551616218294,13.468510915991,321.741798925966,44.7947884704873,1417.12188686196,12.7677603256192,343.6628583662,15.3116681169902,619.171444874633,45.6780525090369,720.59576993422,115.49964499105,154.757849495535,37.0291015833269,13.5269077727618,6.56111882368975,65.2871027757183,50.4152502990952,236.445631305364,-23.4987473074007,1318.60949329857,-183.12232194131
217.164998888113,22.3069416076938,262.317948110373,45.3189333524878,345.969194794359,7.82178500578201,459.023809101008,-14.9728571238644,185.658086875755,13.3243027918192,321.157252964187,47.3023208285602,1421.24372773588,18.5590099467679,345.542399846599,14.9920532472349,610.331011954722,50.770745294169,724.068613570413,118.03629908816,154.560134123676,37.2579262156832,10.0695277531654,9.57392742842794,71.8585833827059,46.7699547142966,237.196002552359,-23.7773814233904,1317.70878816723,-189.745368995644
224.657815848006,21.835453727778,266.098533866164,44.7959164094192,345.890171374388,6.367380183318,465.920612277144,-15.0018904125016,186.873988053791,13.7610211524468,330.075532265592,46.7313648182491,1434.05880708589,19.1166901329104,349.89426247487,13.9220248638113,628.359839846372,46.0082045295017,737.438808177979,117.283632999371,157.439636013637,36.8557629773632,13.8121472711189,3.89264992000136,67.7769007937666,51.3953610290529,238.815524085579,-24.1443981884059,1314.4186262631,-181.914941164792
215.192412267777,23.9036665320726,259.716388898723,45.2881388205158,338.248720065819,7.42169467660034,455.248896525104,-13.950430941649,184.807913207773,12.9916678931346,319.241384114105,46.6112694203957,1416.64337224145,13.117156336646,343.481711821576,13.9669915837916,619.056431351007,49.3492180286786,720.352822701847,116.222870134697,154.375457476863,37.459257296487,16.4163011720101,3.66305290222298,74.1887020546988,45.0450333605002,236.934721662662,-23.6690930049129,1306.06109061395,-189.682823205742
219.685916869514,22.142538330641,261.980228614747,44.7602199665612,353.55230802407,1.76935504371813,460.170514867306,-14.5492261369467,185.027401265192,13.6758233704152,321.440836396152,47.4907677028847,1417.0465290609,7.69357133644942,344.093154037179,14.3720408934119,603.439178272372,58.6644567408897,729.445304901765,116.928172331947,155.814790148682,36.8645457634056,10.9398121142793,5.53725824642237,72.2330628958228,47.3055543011351,238.772337987338,-24.1010550760482,1307.48650354196,-180.829914819481
224.572221842462,22.9484102877203,267.604947953902,43.4429758630564,352.100050104886,1.39134770414995,465.260691294403,-14.1544199783154,186.383321981571,13.9392702932922,326.487916157928,47.750340821304,1437.37012951529,13.3192151373664,348.788713301442,14.7885101941224,617.292360108495,50.204512888505,726.852767446747,118.374970469818,156.510286630226,37.0872878264136,13.4508437229475,6.56493683767506,72.126536940328,48.3856992242659,238.881326499661,-24.1976623036611,1310.97443494419,-180.334505581074
217.16286102834,23.1492447459481,260.905689606995,45.0969296286655,340.943312417363,9.40917957295472,459.210164448802,-14.2069184192649,184.315165350872,13.6306203774111,319.782475093945,46.0053461639323,1414.10397969706,12.3074713187498,343.600409889841,14.1863924433816,610.62298032907,52.3176829481399,724.883105828577,116.510667236949,154.891297809415,37.3420071256657,12.9637244510578,2.65425711787565,61.5791339196342,51.3915913567127,238.369746526462,-23.9052309765312,1304.87711130925,-184.451897407246
221.895390155027,21.9940977537586,262.684433996699,44.73724528984,341.46310926044,8.10739240745845,465.375768805735,-15.912009703182,187.73604008253,12.1276820928342,323.844254405791,46.6473176670955,1421.18307546345,14.245138715917,345.960987173349,14.8691980089884,611.707104219858,55.844618065022,736.103596830086,116.835097887859,156.411458900253,37.2040993833557,18.9138679208008,1.51884924904041,64.9215556209611,53.3277031823572,240.488786356501,-24.4100024344313,1320.59055483476,-188.076812782428
223.113390427221,23.4454793641269,263.626510855833,45.4932924239285,352.316863781096,3.03340450821259,462.997055241987,-15.0974045933952,184.916402045663,13.7005135166001,319.872208431986,45.9118787429758,1410.05185390398,21.7446636123108,344.568307692522,15.0112371544972,613.045982510907,50.1734369022351,728.265234511444,116.145374295281,156.109844590439,37.333975009002,7.3906621988808,10.9828316644522,66.7542855387776,51.191016329304,239.236821986842,-24.3133650357223,1317.3588864902,-188.827265937558
220.717616142319,23.3688223597471,260.930623765607,46.2778204442435,346.765236349781,4.71399911103023,462.657210024738,-14.7628545940414,184.121986079167,13.3529076048964,322.189203013517,46.3511842378326,1411.34673601581,10.1051619026527,343.691137318757,15.2520867175742,612.060424592132,52.5761228974727,733.544440499027,115.08930598708,156.399221760347,37.1107607507397,11.6138487359666,5.87259127560264,76.6078645021275,46.2613747756658,239.405613872906,-24.2595780584822,1325.22127913127,-192.369353999576
225.240434019813,21.9441836291973,263.066317765319,45.1954275846284,351.509122180218,4.11685455805155,471.233997742494,-17.4432303019218,188.462647592134,12.2389276289144,327.957916420161,45.962137999049,1428.55403916693,5.97591705586058,348.44159760239,13.0795160504951,619.857675636116,45.7956874333339,748.520681006819,115.36956364204,158.350692388413,36.7365893019256,18.3585940726083,1.47441955626095,69.2128597893013,48.2117291969683,241.810631314423,-24.8333088224517,1339.74214265085,-192.264885263967
220.193940416662,22.3404339297324,263.847423420727,44.0624671434265,347.938474623472,4.73608605843005,462.396050623537,-14.917730158245,185.815524061217,12.8231963764968,320.128454976474,45.9173269344219,1421.57758381242,14.649230019283,343.660731297138,14.6147467774451,606.851907434613,51.632617452224,728.662435090084,116.053995979328,156.309174956877,37.3620616030704,16.9067120848009,2.97680983006892,61.7236463491833,53.7057378520007,239.673402891981,-24.2338411803862,1326.84109046124,-192.818666664162
221.568599637482,22.8609031308557,260.666436558609,44.7751450322012,343.221134482534,9.21191787783189,464.651799810558,-15.5472010959391,185.925145089423,12.1642784368939,324.413623615912,44.2978367399455,1424.51761428248,5.32222238398264,347.453244008592,12.2061774556586,604.938004872359,51.6336580435343,737.87861145808,114.808269569687,157.512930334638,36.6027967629597,12.8679325361322,5.02127518458238,70.9733474725551,52.3649256491708,240.227238237984,-24.481078693903,1314.30408522748,-180.877570221865
225.308162879542,22.9094503519954,262.727678167833,46.1106023834102,346.242739375718,7.06872262694637,473.878302570226,-16.131612099418,184.496689185803,14.9973722763432,332.394798089994,45.4034108074317,1429.30479001481,19.2299567972812,348.600587952047,14.7891399348448,603.284947079424,59.7334702837269,755.74981451075,112.13601868672,158.789230428575,37.1724607021996,20.2626301522847,1.17997400109096,60.411814522662,58.6221573427826,241.651518720342,-24.4197383672033,1332.96067320482,-189.080864699649
220.594012140198,23.0857882765997,260.102432915531,45.7476339410264,350.357906100376,5.55149981978481,460.495741801383,-15.8610532274122,186.286218082475,11.4558666861228,322.066638324769,42.9238501937479,1405.03951366841,18.0542479017481,341.725746573867,15.6960496939736,608.786882875298,55.1154519801158,729.694062782523,113.327543163903,155.923255326685,37.4667144177683,9.12356528473009,10.8211625501381,68.9838838370395,54.4886550890816,238.941708187994,-24.3552664673542,1316.57605018085,-182.975435479253
220.473009657664,23.2140978194184,260.412753434713,45.7015678969993,347.1405054303,9.28412019053713,466.470107625735,-17.4838140044393,185.262700432458,12.6033591429507,323.429132154635,44.7274348242288,1415.16452283946,11.1153919784139,344.30330633173,14.7269168183134,599.03906189298,58.0435048828666,736.546061501017,114.792837790512,156.744149487715,37.3752928933162,6.83506886151106,8.27647070609498,70.9541804571904,52.2580454573147,238.629127738194,-24.0680398098219,1329.62798685237,-186.718817038921
229.166401945234,21.4652954086607,264.595756482412,44.953545223206,346.478673238525,6.34739461215716,472.183329113621,-15.2628774266134,186.062181957903,14.7284914587265,328.124057198829,46.4891728031743,1428.75057830958,13.3265854401498,348.904337446122,14.4317090673668,618.049273536102,51.0313145323571,752.449052262577,113.213125326653,158.73864778553,37.0082167093331,12.0352674298904,6.09939263809722,68.3853110682523,51.3302329549339,240.276212384183,-24.7149955129726,1341.13656000044,-187.776580785906
219.73215650732,22.835372274535,260.469882693276,44.4547054363386,345.828021589006,4.51110590256283,458.857743295373,-14.9786330791238,185.542525635882,11.6633663503615,317.213640704289,46.4571939163284,1406.75026993398,20.7501409705338,342.184423856878,15.0074731405184,602.931617637521,50.1148599712607,729.429774949189,111.972080385039,155.749479080017,37.3363549461864,15.126743074688,1.91998755838245,68.0293893323569,48.8475218121252,236.737997960593,-23.7064886788331,1311.36388805352,-181.432671137084
220.309304192695,24.2895962587136,260.302260085446,45.3284408028332,351.21680940528,5.2481173747675,464.969550749247,-16.8540706785534,183.767761005636,14.4184319857013,323.63851377194,44.2759851776514,1412.45861574593,19.7295847311168,345.085346013237,13.9683757435096,608.328049225282,52.910814649865,735.669567057393,114.522170105775,156.576889188321,37.3967445386821,14.0239383664908,5.10819400501024,59.7285154213073,56.9007675219005,237.621412674487,-23.9939784780901,1314.42963528416,-181.274092413812
227.152790388408,23.1888624598968,264.888859081525,44.7747790995914,346.914362464309,7.40812092760558,473.661987390607,-14.7435124667605,189.129759557167,12.8949673859734,329.664951174584,45.6401792186914,1428.23539982795,17.3902886421948,350.302383945648,13.962258042315,599.649812676387,60.1560025242415,746.490458083169,114.850354455377,158.483513598668,37.4394269233612,18.1285575114118,1.82349610263925,59.6325500316898,56.9126325752212,239.114430360102,-24.702275130025,1332.84543236256,-184.193627843165
218.703500287736,24.0092751751388,259.534975226619,44.9835333439344,348.17780583757,7.27729400897621,460.395554760437,-15.4300673317061,183.73574300554,13.518761839821,319.703863015133,44.0666674668066,1417.2709728686,17.366404003515,345.423108509855,14.3881199653433,592.840565310642,57.8890748893,727.609975547869,114.307512908012,155.690919581088,37.25563377283,15.8302140699661,2.22327959922771,66.3990712695734,49.797132568868,236.811640853437,-24.0042369618048,1341.34460506549,-188.566434821186
223.049220600745,22.4731195435468,260.820332778206,44.1437130195682,339.479693718333,10.2458118600658,463.779048733243,-14.5956076028834,185.855495888662,12.8256912887937,321.31810862513,47.2401718492972,1423.07970951233,10.0482389709338,343.652477403048,15.6150051607149,597.477184717368,59.5159717334932,738.762288118367,112.517326178933,156.252731345008,37.601464825482,18.5596192600851,0.895696832231898,83.5928631604699,39.434379211062,237.312329589718,-23.9681706823662,1338.06569310535,-179.945043736802
228.981370226252,22.8031700032581,267.242789298858,43.6762951748255,356.586188737301,5.15182110038195,472.629696672165,-15.6202853706934,188.29441135956,12.6776194849865,331.797857614544,45.0316543770494,1424.12880522668,28.4192766915612,349.253593513252,15.1612990005568,606.815197725047,56.1364924889632,738.837849351482,115.617574558573,157.069497770216,37.4915020415085,8.83217695285969,11.2563288648595,59.8651370477303,57.6690229835536,237.906643118989,-24.3253513590123,1349.28683488082,-191.775787920142
221.282534733775,23.7153704678375,257.96376324247,46.8093186402644,355.31925878758,4.94928242624824,462.953467230274,-15.0583487448951,184.67804970374,13.4488592727996,320.149937745681,46.4405305580071,1430.8653066392,15.3582787182085,345.763032069605,14.501661852026,613.118525438718,44.8206480304599,728.017527854256,116.359383615054,156.373590567895,37.1214608733907,19.2573599390074,2.27198349294364,68.875946695856,51.083391810127,236.689761494583,-24.0010923248819,1344.58531347898,-191.974775332705
224.502899478069,22.9789199546744,263.966218333042,44.9004451160588,348.451385264113,8.46497673632362,468.063132574948,-15.6457239476602,187.276536174872,13.2985519182885,326.73849199077,44.3639064842482,1442.18709821708,11.6669620313192,348.029254540674,14.0652900123398,602.756998919635,56.3199209208724,738.969624794884,115.432068682172,157.501160510407,37.1285721293526,11.0923736415046,6.57739136635538,71.4043444456959,50.0275146766612,238.389989583885,-23.9439790620578,1335.53530485288,-186.150896396577
230.015463694331,23.1321302626834,266.929251763007,43.8594561150964,356.139433132649,4.15782347913847,470.368942820355,-16.2783891393456,187.178484894063,12.7667960046897,324.259246175734,45.8646101980692,1450.28133915235,16.3618173236107,348.61236343014,14.5866358673421,609.241245125622,53.9694695306122,730.979921651134,114.515977929239,156.87124123107,37.3128255960123,19.9666142849783,1.16517042206898,69.3405374562812,52.1688213439444,237.997312936166,-24.0660031053143,1351.26284835517,-192.812657800348
223.192515704115,23.1467312612499,259.671450838,46.6036497856105,359.364224506268,0.535958634382644,465.637461052973,-16.6534764454261,185.055169748727,13.086570762786,320.833618089915,45.6659697194915,1433.93875740392,22.8836663816574,343.657859394684,15.8513155111053,601.735421019245,54.1519240785234,726.260560556509,116.923438510142,156.271635054936,37.1287514584647,15.3317018268467,3.04231515168747,59.4594630371659,57.2221893579262,237.269833532438,-24.0202092912439,1355.32456514297,-196.336576580225
227.665905219554,22.991479323738,261.337268750595,47.0368229090005,349.022111126709,3.58638516500994,471.65228308763,-16.9612981931092,186.727096980167,13.0455623855746,326.377054651358,45.6071952322461,1427.80049114888,17.6912570687644,347.696666527177,15.3010610359373,603.514089951185,56.9917931215379,743.520618817386,113.122733342434,157.662627529151,37.1386035942825,20.336555551845,1.81614316054381,58.0669737269494,58.2884127544443,238.616600985254,-23.8829665738662,1363.17023804195,-192.748347970523
230.851659455744,22.4004909273871,265.851056932141,46.0145723766647,359.577944214257,1.66011347514682,469.305026002674,-16.0504744133457,187.053227928985,12.7515259947007,323.162811082723,46.0238664229172,1436.7172326201,22.3117901525257,348.919095190028,14.7351863741488,616.163811965693,47.2739943808663,727.273128809443,115.463299052563,156.031177715444,37.4337877652315,19.1886246387988,2.45799653439084,58.1487000828041,56.4901757259991,237.541377496833,-24.025742421434,1348.15731019322,-193.611794807794
226.074259940525,21.7165067854145,262.108999878696,45.5150254221966,343.225414911776,8.19910973135976,465.151187452682,-16.6244053132174,184.510662984281,13.8431764382843,318.980888844063,46.3607903046047,1450.9358479827,7.46994405190107,345.01198726828,14.8194336767522,611.892792220858,51.1300995096066,726.206510507056,116.404945999702,156.035641657942,36.9246948036019,16.0365299762215,4.70929788577883,58.5578544546291,56.3348900138333,237.072882402513,-24.0816706133702,1354.70133855552,-191.899260843
227.9266831013,22.4246070571245,261.592501851734,45.6900909814871,355.23500909409,3.44899582002925,471.217921921654,-15.5450010374671,188.267178788651,11.6604508412974,325.262369352797,46.5995167465238,1459.22633218804,7.92117454785309,347.278310055334,15.7099832606207,609.73164774605,57.2656069682935,741.467723150919,115.945407030386,157.421064014593,37.1718907326013,11.4304801207043,9.14152156552243,70.682673859333,50.3635899045194,239.349192019629,-24.4759041954015,1342.34606856748,-179.687456216305
228.596559383726,22.5129446589968,263.245944005036,46.8008387468141,350.165281206075,9.51478581062576,466.669151178971,-16.7550284933018,187.81269267354,11.7661687815284,318.226417040921,46.9711805991297,1454.56448117661,5.51078492707605,344.590026574597,16.2443227851027,610.59964746249,56.9338131354861,725.535190726962,116.451122870027,155.703971555928,37.351393005792,15.7748591163154,3.25591333897091,75.1308864323103,47.2709708372118,237.325616480096,-23.8941793351357,1331.04912077054,-180.954404824878
225.563814678809,22.962709413066,259.819905456156,46.125853502936,351.619149935965,5.52195223684041,468.078760832484,-18.0591115489906,185.554866895512,13.4357643984253,321.659632856877,45.760759741197,1439.5127141942,24.4574870824723,344.939493967552,14.8538389156036,609.699451885119,54.8943255783611,726.039012396883,117.678121393949,156.025489469111,36.9669239539391,12.7964436039985,2.8504391705474,66.9298142713211,51.1204414105984,237.950468010875,-24.0645007713541,1334.88272605307,-184.943270622824
229.979649965548,22.5610337845877,261.975835909851,46.7638648252849,351.75312167412,5.27251650260467,476.070699382346,-19.2965499374193,188.576683501082,12.4031683576678,326.321288633963,47.0312533132985,1443.00366467579,15.8089430572284,348.183909141812,14.7264792899287,623.912493915919,44.5502758106452,743.849228182333,117.093663795679,157.414676832474,37.3617870125064,18.1284696318908,0.219861488309711,59.7953637820114,58.1700959789672,240.409925767611,-24.4690873939373,1347.32339572952,-186.381875242991
227.474716421202,23.756723071852,263.915940583677,44.7702408554787,353.283263962369,6.19777029148546,468.434660579823,-18.2567086567866,185.319177550669,13.5634157096899,320.292680229012,46.0142137465487,1447.08031963275,14.6965934938263,345.821746866516,14.7943273591091,607.706753140423,62.5978038059048,727.581914691918,116.126402091936,155.882521319685,37.4298242491872,15.7991077899466,1.49036651892445,75.1536058172226,43.8925031152257,238.86264124747,-24.209293416727,1336.89079685028,-186.169278667767
228.706622789542,22.172087003746,262.601839385857,45.7997626840261,348.425000664851,11.0176549765802,467.546485523287,-16.1964276607279,187.295049778644,11.9409126927738,321.823677153003,45.4585978523933,1452.96563822515,18.8847686920646,343.500328881378,15.8473392746955,611.894944322759,56.8579106905939,731.112408733385,116.833904993626,156.762137764788,37.3365568913266,14.3314761455397,4.19479066163244,78.3806748379969,47.7555150078448,238.350041584535,-24.1020109088141,1339.39215162013,-181.802434485703
232.110276888915,22.3490204525638,260.126520602909,48.6296595844281,357.819765413388,4.92902939205309,477.444402555026,-18.7796095318008,187.361120089572,14.1623939922462,326.043837536797,48.0621010798823,1447.07196647897,21.8280146127951,347.989327485812,15.3741848431588,631.67982719217,43.616718307144,746.852528639793,117.595491696175,158.579071763717,36.8899488172451,12.5754400110372,5.93097570638765,69.8732684260175,49.4558343610786,240.938739240729,-24.8372752329404,1350.68854940276,-188.959302695397
227.823933816818,22.0195574626387,260.719186684636,45.0258553195747,354.596028644014,3.08082149645626,467.689065886469,-16.9318116368373,186.545965789443,13.0198715423235,318.524238806601,46.6368683514787,1424.42758357949,32.0111560806572,343.501708196345,15.6533662410734,609.719419953623,57.6249105118305,728.135143245421,115.438235017421,156.418603362941,37.2037608282676,18.3381121200515,3.25612539299661,71.8688754786685,51.8822174859294,239.760291014206,-24.5227300475838,1327.05090115166,-181.35831402748
228.203970283497,23.2001228847687,263.489744374476,44.913209026756,353.361232094856,4.08061040062954,470.830686957443,-16.7363722540265,186.837504912986,13.958778210141,322.356026015563,47.1952624341456,1448.90452210372,11.8876608220979,344.884615067031,15.7258678113574,615.302047137993,54.8876578404111,732.45351488836,118.760207347917,156.616239126381,37.6187267945222,12.383240282975,4.78076092565772,61.9741119126098,56.2837539338451,239.369628377355,-24.2955021916227,1333.37522454288,-181.226335602316
236.200447727443,21.3100728362482,265.355689213572,45.7343105952742,351.44744841238,3.47754208303107,481.003586967107,-18.7836481036643,190.54141515583,12.5732118210523,328.965174689437,47.5784243182873,1452.07059075467,16.7679876715421,348.720328492296,15.7977330991578,622.451194771625,55.2977844450933,751.712790273352,116.889326836209,159.442940056189,36.9511870819082,10.3349900099022,7.61350025080462,68.3569868782212,53.8139039061235,240.817253350293,-24.7287550880032,1356.90111419106,-191.348176805527
225.534159838285,23.101485348472,259.300845085225,45.5302019956984,345.839947569903,7.72919051144621,465.637056344841,-18.0996973895631,184.110006636655,13.642216226436,316.108774521117,47.3517244350704,1423.0387892757,20.6233874559776,344.325569395986,14.2106158156611,617.269522299969,55.612815713833,729.942946587539,115.206467028005,155.989110843104,37.3964923357015,7.012600279356,7.77141905011025,65.2245422796517,48.1242255333233,238.44079094143,-23.9459877727648,1336.37333985298,-192.434328522754
229.093617613504,22.7581536416563,259.857102884339,46.3114429668675,352.496421318914,-0.614471533245655,468.882627313619,-15.7453859550217,185.925664089671,13.6988959699294,321.875116632475,46.1285624804945,1419.18576795759,24.8268482499723,342.234231122308,15.231568675827,612.911098371319,60.1465608738897,735.467003400895,116.18112034674,156.709933822089,37.2210470124491,15.3287140647803,2.12275099311901,69.5380534728704,52.7735538710805,239.550250617693,-24.4401489581907,1335.29283548057,-184.109562979864
234.61079751326,22.5160647427459,266.698830134492,44.5894101015603,366.07385102579,-3.8640192936593,477.407650742883,-16.2471258594681,187.988952199272,13.5106292761623,327.725145504455,47.3168767061859,1443.02980123788,18.4358819318722,348.025696353593,15.2998200253477,624.577904333185,47.8575743224132,735.447533225873,116.552307283335,157.49604323426,37.4618037698786,11.2252237013523,5.4163116289197,62.287646638823,54.8700275626107,239.246105602007,-24.2612673288213,1328.79590892264,-178.695801338672
227.107065009001,22.0841071526833,259.771834509278,45.0187698219639,352.927775352191,-0.074578234333109,464.973269690458,-16.4343106399967,184.152269889142,12.3062352331729,314.010862228316,47.9492201206119,1413.95786089154,19.2061617431009,338.643795347525,16.4014281839781,608.021570402697,58.6292483221468,724.761203002032,117.210135679674,155.518841158488,37.0415806050808,19.2318318380371,0.30206721012708,72.3707314792337,51.6883323410624,237.317436816006,-24.0933390515034,1335.38537797214,-188.576782439457
228.860992492079,22.5617447555915,260.247697217637,45.6312195619531,349.942329882306,9.42513674254087,469.482009400706,-16.6584882598712,186.492947358125,12.5537408459142,318.543776446172,48.1649862049759,1419.60517455002,18.1003236258368,340.64990154495,16.6641470473093,601.408310416057,59.3645403618964,734.651151521853,116.699331287828,155.785572725793,37.4009262194423,11.1594588447703,9.45559399142861,68.9890492012778,49.3505130647987,238.331089706946,-24.1137888338115,1332.47643627708,-186.539590343531
234.354205067641,22.8508342578125,263.218376400502,46.7773467795986,352.383909506484,4.61427185250197,475.853877513654,-16.9904082379166,186.97768757207,13.6153613344924,325.288144592161,48.39975232784,1428.10040149913,24.3009466149335,345.984246386223,15.9691580285939,616.606535012993,52.6330545952166,731.319121268979,117.9521059925,157.119381271875,36.944481086895,14.9309545051336,3.29964083713285,64.3273535784556,52.116467603371,237.850782553854,-24.0243001186238,1302.99437996084,-174.816419988964
226.598426721118,22.1082100261759,258.3500198446,45.7715546045253,356.54667662737,-1.76871263250485,466.354184261407,-15.8492661308567,183.816746810562,14.4876178450567,315.510697152089,47.6386691458739,1389.18726714464,28.9898390859689,336.597362416714,17.3502254175871,619.771032625495,47.4054479814662,723.247354724166,118.8452058863,155.105342497295,37.2646456889353,18.3952281428078,6.0656062659888,71.3450655154506,48.8743273387747,236.930977224349,-23.7302227560244,1334.8006885045,-192.490762843162
225.27273207501,23.9068732009144,259.869119010048,45.2995436824244,344.381655243058,7.38921624872309,473.863469669105,-18.0256366651448,184.98760053174,13.7614467517374,320.218205371916,48.5794472883172,1397.51717150164,28.6761045475142,339.703696064792,17.7151152397202,606.208944694998,50.7950455707176,731.201546693623,119.368888132686,155.864220315485,37.1642181879407,14.5309376741272,3.1881633275872,57.7085090109236,57.4372840928083,237.57469219097,-23.5623750386435,1340.18134054326,-197.269832074155
231.108479412085,23.1830839117594,263.920136201575,46.0942255962649,354.678310455315,1.55011263651295,478.497732302214,-17.506913549367,186.39073865336,12.9033966377451,319.968264815045,48.3969138461809,1396.02224342237,33.296592304512,341.29526826461,16.8492700399876,612.175474975824,53.5665605715952,727.863445886064,116.866836526169,155.941089855887,37.0724537679507,10.5497749623314,7.91741887171796,68.1560198973353,51.0194752788345,237.465670347361,-23.7262221308906,1325.5932515712,-186.140730357453
224.175495508497,23.3304638212556,258.721870180631,45.1315366572894,334.347012360179,11.391708695905,468.535625231329,-15.8297206745567,184.940293304269,12.7894158758446,318.228410777097,47.0491768411663,1405.00839361255,25.1505247436208,338.626404333071,17.7594087355062,606.244806007284,55.6058717391926,724.486377819963,117.64868967784,154.99992421,37.3249148910589,20.4466457031351,1.59266571365638,65.8506230342807,54.1962205537611,237.31376593918,-23.7595232449242,1326.70023805673,-189.041669329999
227.045196345809,23.0372793139893,262.288114932082,45.0210250091252,347.021680677871,10.1827614074972,475.773506508405,-18.2093633557098,184.977476198034,13.2303571357621,320.968040756014,48.7488686812884,1398.83034257768,31.5204960042118,340.817541338214,17.2841838365347,594.843783178447,61.2932153140422,736.82895764203,118.869199018221,156.723174592791,37.0451128174771,16.7930527143066,1.42826364372612,65.6490452518244,52.9164345810653,238.766533615883,-24.1615291501435,1338.18983471809,-188.052742327565
227.769259915059,23.1769393905846,261.93894515812,45.2275947604086,352.217360629094,4.64917973627479,470.05530328423,-16.8108193249616,182.449782658414,15.176528413145,315.275451318127,48.1670787192874,1409.56676314407,23.6165648689683,341.399899687563,14.9864080920881,589.283615803051,62.1863531038351,721.999328486933,118.428623862222,155.840392155036,37.0437919500553,15.1512016776385,3.38060860504577,71.7833230583325,50.2357026884396,237.416798614926,-23.8705970465515,1327.32451534429,-182.059344150601
