217.366172582035,20.5490935717525,246.864577336643,44.2600530792012,328.518588026171,6.46418992840427,439.674424821389,-8.84781629903889,174.733641434422,13.9716793329395,305.049251173903,49.0336826065982,1337.76828348609,26.2986407580897,328.009288980351,17.0181502242985,581.790683988007,49.8589950952259,702.547184572926,117.918032744897,147.222648309679,36.5073552966154,13.7186767936846,4.85634735398329,61.3972993411932,49.6226275775507,230.564335468809,-22.1649923248463,1301.21592394083,-180.035852156481
211.996780632415,20.6136486314153,243.809438578153,45.1354191682919,330.192578200109,5.99452608986153,429.712210351731,-8.55608469716367,172.285666490018,14.4531571936395,296.727895944791,47.6189877092835,1330.06324913945,25.3780302459166,324.205938610001,16.3357569820551,577.02370089264,50.4368172549799,686.367585241512,114.616732101893,144.997444859052,36.4703424532149,13.5540548833048,6.69459016850404,61.2106674610102,50.0321356238095,227.890789835025,-21.4330418446149,1287.54392679399,-177.171203885509
215.046692405937,19.4234019555526,242.990176986772,46.9886419330973,321.440939199566,9.47284410731874,429.677757709732,-7.85497844450766,172.834748473774,14.2265232625622,301.19534109631,46.4528282220682,1343.4962847872,23.2427939632776,325.98867374139,16.2597113164131,570.32473643733,55.2900444726208,690.653365148057,116.379366984618,145.541642958703,36.9152595794141,16.4419392827761,0.998183084444259,57.6277940565492,54.7025502900711,228.6824073032,-21.7370691370389,1311.85556012384,-191.732541570567
218.751227695712,19.609818485633,248.716017821574,45.9816665381551,334.514487263752,8.35017447795263,441.280087192964,-10.7469523125683,177.072816541757,12.5117146476146,307.169754766054,48.0993536928962,1355.26622667654,32.6522764241725,329.567795255338,16.1462773687909,570.10827755049,62.2115222858871,710.914127716425,114.77060757135,148.049265833565,36.7115878539193,15.3753363170298,3.48814082652978,59.6220093553261,55.4981181460196,231.299679687242,-22.5926346415221,1308.96962068374,-175.775902451883
217.82621618471,19.9563922672102,249.545007718925,43.6168006502284,336.815907888238,4.67478786368483,438.737710394335,-10.6201196899814,177.49535652764,12.7936491649906,303.559628746237,46.5129199649254,1367.91488904967,12.2534711080522,328.00528543786,16.7587936338436,571.411530857013,59.3319777860681,695.885063959196,115.344817924574,147.66261642755,36.5182420586097,12.4296205520019,6.70761732637557,70.128928365454,48.5265882638853,230.531029850884,-22.6514001606602,1332.3254555373,-192.813725737014
215.464266362933,19.8255754483143,247.669401520267,44.4660649815154,335.116705594659,7.54224176598779,434.36476311215,-8.2263036292206,175.990742613248,13.4194986938936,303.810413792025,46.3114262521099,1355.26411749823,28.4261614420815,329.002365810427,15.6306526688088,576.097262367848,58.3790604094306,702.090788649189,114.431374561193,147.661644235317,36.7945982719028,18.4605991829851,3.80515576242323,68.970828059399,52.2912254620521,229.590728729705,-21.9497629228222,1318.4175170727,-181.166801573298
216.925852224486,20.199092631388,250.443106797011,44.6966129485473,339.229478525159,5.07221772723162,444.315642884836,-10.7557151304956,177.929894057472,12.8114743099608,308.008313723357,47.6867542139393,1370.58882819037,20.7424963553089,334.440390506215,14.4536745699923,585.257528884327,53.765457402953,716.203036909411,114.793303772687,150.471934911136,36.2245066841306,15.3261853517695,5.75572451089697,72.3356109440628,44.6743384153333,231.93422219275,-22.2365242611818,1341.4531603131,-193.359660345418
221.567757677999,19.2522316172202,253.413026630058,43.9280210101601,342.803935859527,8.38523379912887,440.766384661932,-10.3080436406973,176.856511836196,14.4495509515496,309.769490390203,45.2835918600745,1388.02253530508,17.8177240839668,334.848591628708,14.759269483371,587.642941033881,52.0843580880706,708.247343316168,113.060667268587,149.526018373328,36.3507776804017,11.8547256072752,5.94483983191661,60.7315506804908,57.2757371943843,230.957233012497,-22.3276705204014,1323.67761963681,-185.360893089476
217.58846358806,18.8731231514421,250.917629553052,44.6599562441411,335.20816979521,12.6685799299906,439.87832802798,-9.97606657658656,177.965846299719,14.3639416157736,308.930514657586,45.694731475159,1382.2348578263,15.8144761294533,331.043451286253,15.8662672836501,590.596110680749,50.0917753927171,714.443318088436,112.208242567911,150.655892683508,36.4216021712182,14.911816300193,4.58192111531023,66.7179183357813,49.4843854882396,231.336588007758,-22.470732837861,1337.56336063395,-193.200559619489
220.462298262825,19.0497018698605,252.31121197988,45.5780689266498,339.380393663262,8.15915587831532,445.216174577262,-10.8232133092639,179.961713078466,12.9687715363646,314.358265786,45.7674253410921,1390.14540925178,21.3455783506419,336.271983774288,15.6064202535064,611.435240428817,39.23327455668,729.577187814717,112.207751583451,152.316065200199,36.4524835580984,19.8495181978002,-0.341514883129854,62.7966261124204,54.9978925734919,233.091146054496,-22.9403745644704,1343.13376493993,-185.155308101794
226.577162640572,18.5694066415667,256.677509480004,44.6239031586035,344.338427575815,5.65094607548339,448.660743400492,-12.5464472716741,180.896361917837,13.1178957941136,313.40882285117,46.1292731699368,1410.86262797434,13.7767199691704,338.121806579771,14.6000189640207,597.1573655655,52.318120180363,717.017263639958,113.205966618849,152.191692410575,36.3854791200364,19.678944476677,0.74185392793693,78.8050454264008,45.6012402779873,232.209221543916,-22.7616979119291,1335.28196602717,-188.508703421398
217.358768868623,18.5527955600041,253.010187869886,44.5382626923891,347.190796138038,4.8187135969488,439.092203626547,-10.5588821635138,180.834893428098,12.8448896264116,311.304205690958,44.0287097232931,1391.00343112363,22.9309049937956,334.607730809954,16.0514995622222,594.998704599651,51.8418838497518,718.031190067328,111.923647939488,151.649190837427,36.3790998009854,14.7129554552527,2.71674868935292,65.6265883368914,47.2160931812571,231.419769632602,-22.5752853281406,1353.2032169993,-194.983367107492
221.038770305927,18.5048144979786,255.920690737922,42.7777661179926,347.728071240474,2.70482867013224,447.978687811199,-12.7225329817075,180.211396943779,13.1325514557596,314.880373365683,45.9989313578747,1407.76550914307,23.67747997676,336.894188010635,15.2896743308675,599.418978722947,52.3038358357071,733.487196147634,109.943069652688,153.551904968489,35.9670716339429,19.1324542645128,1.97320249530127,68.6784614085427,54.4560868602244,233.165031012843,-22.6728166622122,1354.66107531501,-192.099386490581
225.556441501744,18.2490166283177,257.782591162928,44.5124736200354,347.714849326186,7.30152795131006,453.412922997269,-11.8580598798905,182.212681451418,13.0783029385932,320.456975596923,45.2915556868929,1419.028646696,16.1047925528032,342.626272239739,14.6056733545953,600.637826441968,50.3330474027768,733.549004949652,108.517790762974,153.8598994426,36.1406064739285,20.7689834950322,1.39495553885051,69.1239683777814,50.3372137539043,231.938714594308,-22.3685196961767,1342.1511219341,-186.313737892257
217.468720499125,17.8946659616466,254.055203185436,43.7835295169411,340.035198376293,8.59508042157654,441.578572820408,-12.3101973387229,178.67197040043,13.960122734482,313.001777748017,44.2958115743628,1407.64121326273,16.3295258531412,333.93512120649,17.4124192885977,586.662861367603,63.3395320322607,722.371177353138,110.851701838203,153.182805531783,35.8532284878064,15.9238073345968,2.00869925601973,61.5770333939471,54.657867086117,230.914226497597,-22.2341102624519,1349.34964520791,-201.504439671575
220.833220621553,17.4734365330562,256.420460800256,43.0169340071763,337.289830304877,9.73361619144311,448.503189058776,-13.7445375395006,181.002889077782,13.2364811863132,317.943895435427,44.3176471012452,1407.43306659448,11.3689287264895,340.231867959049,14.5742488500158,616.015275451987,46.4173771340963,736.407663291401,108.976668430254,153.817907856505,36.2814833123784,21.9199859710627,0.542170692491155,73.8432980241156,43.4198919730113,232.83687020902,-22.8125670020304,1330.56909055602,-187.859455064352
227.631436657306,17.268144452757,260.234531229705,43.6130167031176,348.236458972885,6.63591015357117,456.548313130629,-14.4071729154718,183.369162018833,13.7801450294294,323.941158369394,45.5891859683776,1418.48938718679,24.0815161183099,344.710495855504,14.4231214664918,616.01155926459,42.5682561754282,733.764176879011,108.929340448037,154.955784357089,35.8062175324066,12.2814670447182,4.61249147356524,66.9941926480865,50.0271940607833,232.48128553359,-22.5427549767474,1355.69771013548,-201.637188387192
219.285554361019,17.2740129419986,255.019488505988,43.604841564689,345.976846366015,3.94259843336704,443.953169435477,-12.5929328608834,181.808294472036,12.1549027461934,315.191951564613,43.5685603314074,1412.82113437239,12.3551642675501,338.548127087959,15.3781326036667,606.247359965152,49.734698633338,727.682822855152,107.825016220481,153.432872873957,36.0665136243774,18.3027240734745,2.34434328388406,64.179389876456,53.2464885747605,230.905279430123,-22.1316405109296,1350.03079278532,-202.405193395532
221.405740135716,17.4540911412488,254.9146226338,44.0905032459298,348.604207755271,2.29945448788977,447.170134546997,-12.5314890121199,181.740347983982,12.9357258294242,320.373413005976,44.4556429359736,1418.13415520103,13.4034282015785,341.590771241393,13.7816650268956,595.43853735167,56.4486700958542,740.361209038703,106.364432259199,154.31659705683,36.0425536558897,14.5557575979735,5.00365428660403,65.4268002753167,52.8770210332762,233.3443488976,-23.1705756730869,1350.92595559459,-196.374796747204
224.997097537108,17.806681412168,258.535820905948,44.3301972623705,347.678428272379,5.92647153723464,446.048563505859,-12.7773326111248,182.211459823683,11.9470190420885,316.90406529406,43.9411764736571,1417.34886852799,5.02618751904965,341.062063676941,13.6169044205278,610.798827034501,47.7730739036251,728.015516297971,106.580398301387,153.793025857678,35.4957727966861,13.8868326823059,3.42701552455601,72.3538165468342,45.2204324509372,231.54918514028,-22.4545782376764,1351.25234639762,-195.979679026588
218.762721517749,18.2350509226992,254.171358552197,45.011552679247,354.606574603141,-0.797220859098939,442.644555473751,-11.9428572745016,180.975713227791,12.9514937828869,315.419557747913,44.3867419793982,1392.90099770225,18.8109557682069,338.20149089231,15.1840810689097,598.105320007903,51.8900890765015,724.965419041057,106.415397822115,152.648455401118,36.0273321551668,15.274712219952,4.57556282741195,53.5933592994972,58.2704245043139,231.320103360666,-22.4227555073515,1338.37983230561,-191.932433588306
222.899326803829,17.6674317757604,255.853826602464,42.7287245773512,345.695671139275,5.88508350740535,448.402712880116,-13.0539479511902,181.896991619171,13.5058341651681,320.505651956894,43.0566216913761,1403.93732778932,17.2703311488814,342.19413528231,14.0192279321601,599.860129470345,52.3449651698302,740.65562247034,106.916177975869,153.879886912597,36.1075724523692,10.68502675274,5.9282979514757,72.0266021176844,50.8397185314613,233.24797209629,-22.7911498783939,1343.66462395008,-199.017887347496
216.722030228177,18.0777422536335,253.541188420216,43.8551607686665,349.449296381979,-3.34478501449797,440.520908312338,-12.8098363904439,180.533775480623,12.5271189561139,309.394446525121,44.7951718237273,1380.05549900112,20.758332927808,336.007030830225,14.7804186126738,609.788197702648,48.0752389995111,717.098453219566,106.858423873201,151.616217796903,35.8533367706079,22.2701751345014,0.263748964361375,68.4067382103021,49.6976394574733,230.098643947389,-22.4135850493497,1341.78538168538,-204.741039514335
217.424278438321,18.1222250094311,253.264342981139,43.3593044088416,340.551951710841,12.4267793905074,442.066714635949,-11.6218539908699,179.991510662416,12.5384152309546,311.836169883236,44.4941852236913,1374.78077470789,22.2560393024922,335.409440393862,15.7833545003411,601.283302323983,50.5738870981396,720.700478847424,109.194383793357,151.925693620858,35.8723979703319,15.5941532538719,0.163659672535775,66.9258687066178,48.91270721191,231.815917387165,-22.9010718906517,1332.49052303777,-191.742680686917
221.510357879516,18.604913912818,256.699930970848,44.4483232544064,350.306105809608,3.33771245031851,449.446612997097,-12.6518591500253,180.701658073281,14.0147972357484,318.942610717302,44.3554261033707,1397.79342955991,10.6772686141005,339.881528741724,13.479925134939,604.26697142207,45.7757720935395,722.866600514052,109.721432119124,152.15972435324,36.1373253222892,14.1463927964346,4.3072990703659,68.3782582530685,46.8239525459021,230.382926751977,-22.0449427776518,1327.76210113095,-196.932348532202
214.14002748407,19.3204366748236,252.417251233674,43.9451246776845,336.636468004993,3.17767727684676,438.966515731371,-11.4725882550615,175.965218373264,14.3126736404744,310.427390320979,44.5358993158242,1372.79495458177,21.3688288422441,331.844652205895,16.3994702733177,585.664026068156,55.0764769500902,713.131319277649,110.816753846243,150.570826966575,35.8985418704268,10.2852459266158,7.2205003999931,64.393208918146,53.0793196825813,229.535145807083,-22.1826315295842,1319.46365944314,-182.238197516871
217.178650038143,19.2585924333263,252.437668578456,44.9453818671277,345.455230328533,2.54461810423446,442.912901189561,-12.510099697291,180.27287625436,11.8493642074042,313.894203475736,45.5388131815902,1372.04430084007,26.0486332972051,336.424519856831,13.7376882293159,596.704653748156,48.6893112383457,723.103697899826,109.72705629074,151.248386374647,35.9745225872165,7.76023246285651,9.79371642675637,67.373565520822,52.5358571895968,230.373652611159,-22.3478503180558,1309.34348274337,-180.750764259697
214.761459034586,18.6563053535741,252.389164294861,44.1914188495377,343.522018306215,5.14221992734405,437.992360478332,-12.7064560918399,179.483819140906,12.6018268315809,305.209570768898,45.5817094042664,1363.97540980808,18.2654999108432,332.468299889557,14.3273279552871,584.427701576387,55.3521823339985,702.119952706614,113.116670372335,149.364297383441,36.0972376128395,13.0772054420389,4.75246754437218,68.1638528899066,47.9265161094542,227.713709482301,-21.6234006211474,1311.87140542622,-187.54993171969
214.52448282767,19.974147748642,250.876198499829,44.5372310569882,332.005751887725,8.3975127270787,435.488219892036,-9.97539736540901,174.366334773989,14.3350809043888,309.41551186477,44.9187351465966,1365.92205278529,17.8821539401762,333.086881664094,15.2659754539162,582.56441563325,57.9381205854232,705.171104378664,114.576320187858,149.11480230902,36.1618164247715,12.9624098035864,7.32748811339934,68.9181367227682,47.8238696332727,228.705526686299,-22.1597413099568,1329.30097868023,-195.480550257505
217.432941800388,19.6741805746433,253.465726594994,44.3324019213757,347.131346346161,1.63694417733691,443.588445858676,-11.2504090750837,178.995489943576,13.1070241565397,313.165575958302,46.6085222336799,1381.8950568454,10.5654553994373,335.670974709699,15.7210047814891,591.400944486331,50.6524418001109,710.606507588119,115.403180807701,150.131847114308,36.2101164937758,13.3598972591735,8.59104014664294,67.5230743421113,52.8915130975432,228.999375420419,-21.8739861932042,1313.75575491705,-186.80801248535
212.239962127803,19.893207970382,250.14776326738,43.7100806111006,332.62701864848,4.93516666883029,432.106499495619,-10.9500660295667,173.694607781104,15.2077868724317,303.392730668531,46.4422448504102,1334.15066891623,34.783469858838,330.290458363821,16.2261480407152,580.862158952561,54.7690607914179,700.853176407138,112.464771544644,147.67801686446,36.3775127954546,9.88892274344982,5.78107809015432,68.9358401527071,44.7705730271232,227.367177784224,-21.5868892402809,1312.86153123393,-187.839214523534
214.746303528977,19.3910147680505,251.142829085312,43.9214222142495,339.395028815562,3.045088518385,434.308422312909,-8.74517020848091,175.57621790879,14.8064078756806,306.988482866095,46.8080756616916,1349.23660689894,28.3586530006498,331.365797295152,15.9349761716487,584.181495534319,57.700433238176,703.738582847303,115.135795805464,148.562917327517,36.1359738432738,9.91723168508479,3.62323861322291,64.9678576201476,50.8910927508754,228.469927477144,-21.8111083847725,1322.04892456949,-196.551361976902
214.055448722298,19.2407921491429,250.532752333329,45.3465874349415,345.840556969012,5.69140423382864,430.360724409731,-9.71619947562119,174.071968574449,14.5230143531417,301.604677557155,46.5470324167365,1352.59105289467,25.6913121581533,328.551285020678,16.4958617784624,583.712892547107,55.9032073967148,691.479833084368,114.750247153911,147.199160673512,36.4155451876796,10.3814454227102,6.03729184594432,68.0076257996748,49.0190633157621,226.453674854547,-21.6092929898639,1302.65889168355,-179.497592632404
212.975729702725,18.8159764868274,251.19868191202,42.742801087187,325.845886744932,8.7995019604826,427.606892037802,-9.05293294584927,175.189908301603,14.1999386992819,302.002840632993,47.904369715775,1348.27423041687,27.7539944036481,329.575733051524,16.5420508457722,589.676295935499,52.4825231309191,691.34047856925,114.804719748685,146.884087007942,35.9873488449581,9.02740994919894,7.21101816884982,56.7379338322168,56.6719014853718,225.055077576837,-20.878763350529,1320.03524690735,-190.984777701328
216.228439009821,18.5749620149496,252.863112230817,44.0770260498729,333.804309749537,10.928955568911,435.635655730814,-11.3622058267243,177.245408144287,14.3625247472494,309.166084509488,46.9416237008522,1355.53067272564,24.2334024679852,333.28332838777,17.1837595279859,589.525099159836,58.7812242563217,703.703783885738,114.857241326262,148.351102854146,35.8908384857279,21.5355951345803,-0.919600403559087,56.3080924266752,55.9920519434952,227.971812055422,-21.7182246436685,1328.41255961281,-190.990644472728
209.224751280041,20.3786994788446,248.083947400418,44.7631075487157,320.177322604412,11.7182656463458,424.993665381432,-9.41189226255046,172.559187040255,14.8038960317664,296.815196360251,47.9592719718265,1340.73015175793,33.8161090662614,328.734455451547,15.9310041681431,597.912252065767,49.0872596962347,682.181344245571,114.471421005591,145.547871257513,36.0063437957108,14.9999555977741,3.63177055903689,64.7816459302975,52.192216786521,224.971635447908,-21.2795642781578,1322.81239922896,-193.714906635639
211.829149993354,19.5390561473832,249.390240321411,45.0209708556306,327.17677083899,12.4622953152439,425.638198693401,-9.47778112741037,174.354975906037,14.5879161284992,303.802196143883,46.7307655214661,1341.84241119377,29.4761396685132,328.303584578894,18.0604390387723,585.7281004086,60.0148021728584,688.815596967291,114.120442626922,145.779141313019,36.2797750026967,9.55490596568597,6.00502255582919,62.138167237156,55.3661662456752,225.956270232744,-21.5757570389483,1316.44664028995,-178.118809815786
216.357469269501,19.6565447350159,252.607086485658,44.8192857948749,331.132133691542,9.86214301129863,430.569104536474,-8.3346343800946,176.701217289188,14.2480597026118,309.286811082523,46.9027485179896,1360.39868064165,32.9101055312257,334.488246252671,16.4320563253281,613.415629626143,40.2945147733884,692.582626333108,114.301317207665,146.902697728367,36.2439231154079,10.3948157498196,4.43777124635698,58.527340632621,53.1922929356204,226.443477092496,-21.5426394398291,1331.81597330471,-190.090536596183
208.811832201397,20.1554378035896,246.108059787688,46.4923824809424,340.014252175399,7.19318271719119,420.763542397387,-7.5413937837,174.967423836621,13.8242936444442,301.639215340776,47.450535710395,1370.2641360779,18.4828396035992,327.907271033345,17.7922535718953,588.884004156546,51.519355491574,680.327255117135,115.79759537003,145.086895846687,36.3171455905424,13.430952051309,6.25834983555424,69.2736505808868,48.2106488460806,224.872632131376,-21.1602307501716,1336.84102807602,-198.943418059671
212.356639634614,19.1137323849497,250.402620321215,43.8877369279518,336.909208439158,7.20166633635095,425.28747011829,-9.47250483557653,174.153922924318,14.4185276108584,304.197700860633,48.1295483729445,1353.98784065017,34.6310374499463,333.234589745976,15.578440371033,602.087233669427,50.7463346939887,689.229736885675,113.306441906959,145.972832206074,36.3857697017314,14.5917158199142,2.98683052845821,70.5248328680759,47.0783527481678,226.365092118276,-21.517559171876,1347.20887903807,-196.749781618095
214.128011157914,20.0448042047338,254.150506842008,43.8068316070501,340.89975257103,8.55598040885752,423.130914328314,-7.96467904714355,176.016531124995,13.9005307528051,302.07763451781,49.5058226378641,1376.55639506435,22.5587346359885,331.938724949133,16.3624150439471,596.92145063154,55.4757800795514,677.782386923841,114.988851170639,145.66032756139,36.2063005530263,12.3410045744686,3.95990708283419,64.8995355140066,51.5099906086417,225.416979687876,-21.1515853314503,1326.98518454711,-194.347379113624
209.425108647696,19.5052837661977,251.412639980912,43.4292800137682,341.143772816231,5.2154089786738,417.698206491681,-6.6342451064704,174.762183000212,14.3350626259382,301.106333593693,48.3316616940643,1372.43725638819,19.0431671292945,330.523115398377,17.7605652804137,599.241361028174,47.8354349779323,673.746632617917,116.325121759613,144.775093870575,36.3717367989323,13.5780299280871,4.93039107885667,56.3935836467648,55.5938411319068,225.167989905527,-21.2710109279359,1326.61273777578,-189.611881100335
214.447261640867,18.0543164554301,250.580849881129,45.3160253778039,345.737297169544,3.03317641473704,424.848113190385,-8.77226834364591,178.132750906767,13.4838424954976,307.32344359862,47.2415121959017,1369.65108139497,37.4896888774741,336.280993699725,15.9984935948833,604.482684982978,56.3559668157119,685.954375542352,117.572535907361,146.471710819062,36.4576873005751,12.6851012007801,6.11857248728219,61.0504703259765,56.4818877489082,227.901363709338,-21.803777741548,1364.02100853082,-202.286926439567
213.213484816383,18.5401187305434,252.402345577191,43.1902664280566,346.035031295206,2.6828673303724,419.227466925982,-8.13097738335106,175.366774263994,15.561634586389,300.937031538393,48.1513898863806,1391.15681916181,18.5987805470146,331.558681079349,17.1254301062297,592.032070697561,61.398779849512,674.623831431271,115.740264460392,145.016135571684,36.5238522042589,16.8834971058045,3.35735661033192,70.2488688303705,49.5663249369625,225.800637168532,-21.1844348121691,1335.12199831615,-192.396039553132
210.774227655635,18.528960496217,250.301646444821,44.318332662217,349.091030909753,1.71717267242349,419.228622283803,-8.53836428450951,176.171068397721,13.9305393508841,303.332646549977,46.1121789935571,1377.40489952174,24.5196217367678,332.129330107052,16.8524041208393,600.641763105583,54.5283327025199,675.157366460486,116.128556147819,145.351366720387,36.332952595105,18.4820382449281,2.25682808754699,65.7714983301292,50.7593925849764,226.222595275587,-21.4617768587446,1323.13024852496,-186.46319936799
214.361805104259,18.688877625102,255.057443090658,43.6853943214168,338.946789345159,8.50522534029771,425.60961289965,-9.44738226312105,179.962964786759,13.1576883657568,310.8914637363,46.8055557502095,1395.90940953452,26.1711878857818,336.227036875844,16.7903414698632,602.204116721069,53.8907837658768,692.950060467066,114.135610623605,147.355894509369,36.5126931361478,7.40236417323707,9.14414703599385,64.7986016658823,52.1262523921154,229.285432571617,-22.0462706169222,1351.89862525655,-190.325607704109
212.084648594059,18.3589969795648,250.839929670394,47.0217430867213,340.044301663976,8.47617539690871,419.796796239999,-8.97634696481184,175.891037913829,14.505312924421,304.830254890569,46.1204532659442,1390.79045597486,16.3100265788266,335.892637995088,14.2517055800787,603.326969213952,51.6290599427085,679.768872988707,112.140594440391,146.046920756295,36.368557533642,10.6804102157839,8.01662141110013,65.6550322446648,51.2298654571978,226.82627062226,-21.179940874062,1357.25154710227,-209.196721069945
213.314781773531,18.270598298286,251.067122327687,44.4267255265828,346.12641060749,6.20017829201303,419.310867965503,-7.77499979798602,177.301254251904,13.5437598335941,306.825575061593,45.7545288078592,1395.40218474105,22.2629039552968,334.608343222705,16.281723573391,603.187329437378,50.2488954869341,681.803457193411,116.38701315307,146.944561983939,36.1511240692412,13.0517186353614,5.24833880249775,64.8699111325581,53.8469078553576,228.465416064685,-21.5914164599063,1343.27434812867,-194.728165243834
218.707109302066,17.1931701524665,253.644449255331,44.1809504578931,347.927130066385,6.00197985135625,431.460873334003,-10.4976722179541,179.415302426764,14.4602157540253,313.928011160652,45.2935132899414,1411.80195281246,16.8288202504155,339.891115581237,15.1782835292067,610.84093274987,50.6633396796417,704.108202919252,112.247001142955,149.160319674508,36.1290364337504,14.2668659252107,5.59348151756433,67.3496957162913,53.3668316879029,231.285783247411,-22.0953002032883,1328.06509493135,-180.895194168279
213.319750922208,17.9477954806792,253.730325631388,43.4872904153968,345.69445626968,6.5591434716998,422.059122237772,-9.29798631977042,177.735207310002,14.1691275810217,307.315153850992,43.8477261571397,1404.47139294123,16.0551948109099,337.7147732848,14.5519424061864,608.706010218233,54.7136509611379,685.526354060266,113.935291984321,147.32273723731,36.3435832705585,13.1759656800509,6.89996095121671,65.0260020505423,56.9256527520372,230.030932667154,-22.1779033766796,1330.69874609629,-184.173866228566
215.33286074527,17.7159756408888,254.111330318853,43.1271118976103,336.878797862986,12.253854123554,425.803837131798,-8.10021868442537,179.517698699215,12.8842773784764,309.14776311954,44.7769951501617,1412.92617516994,15.6550407356063,338.886554104381,14.5337961377009,612.95105222425,47.6964041108363,695.268368317924,112.147335660383,148.250035127661,36.0387891152042,15.5694095986513,5.54067402433339,70.8943505298657,49.5685502150808,231.400882495342,-22.3899106922661,1356.68915174287,-201.954365876246
220.92524140225,16.7927597402659,259.1446983189,43.1845490425808,354.56502070457,1.62948041722408,436.931990035177,-12.0047398521266,183.543550146773,12.3632890114858,317.284427493687,44.5549472467536,1436.71508635082,7.27342773084708,343.746121191457,14.0627583507371,613.014676371582,47.8047985757458,712.96351043103,112.307870463156,151.673524258219,36.0447819057741,9.68113559053298,8.29980019009917,69.5629059072883,53.6639540125513,233.777532164067,-22.8691804199944,1350.52637733884,-194.254712424317
214.958028143345,16.6432881966977,252.212319899768,44.5614943149801,349.554473803916,3.80355119252143,426.515780397839,-10.3061379923824,177.392994053005,13.2470222725394,307.013657192307,45.4960546496483,1403.11912190861,15.3631923959345,336.385603257803,16.3561516923623,618.421814123768,45.9063086824012,689.980581042888,113.520958823448,149.232384071934,36.2443078163311,18.6542224976291,0.725276010809928,66.8283055306048,52.5736590478172,232.124283345416,-22.7693125367076,1349.09204617045,-196.233378599507
217.296663334794,17.1553661948501,256.13145447117,44.3242068435851,348.025646708897,3.76307678642173,430.042671577693,-9.96745834002714,179.334264739266,13.4574324433188,311.397914558176,44.3835960454472,1415.01056630532,15.7792508200771,340.41935953107,13.9605616096998,620.549799116311,42.6988291112228,705.717307994977,110.175047728413,150.725588483746,35.9121114873159,20.7407072363801,-0.544558070868883,62.9348439663432,54.318710320492,233.617137261077,-22.8351116537426,1350.624917961,-192.156008971259
222.142119226246,16.4236674581529,260.50381787416,42.1103825293012,353.104840401159,6.5312135818434,439.772103149985,-10.1865084766875,182.786194754651,13.6148487682582,321.80604060769,43.9138401591784,1449.5420143648,-1.08966052501209,344.612995860461,13.7319524515353,612.730590424026,55.2104102667404,711.093028791339,113.378058014495,152.523092500057,36.0335654980361,15.2389574073985,4.96898366170671,66.391422240275,54.450808820464,234.660661241662,-23.0691205413117,1341.505432995,-190.089806390748
215.13539082937,17.7359133686989,257.384534722786,42.4555954229728,349.200555189252,3.51562244500767,431.860770102954,-11.6461153548196,180.566442688954,12.9049533845172,308.306648498201,44.9816382178161,1417.20946971875,15.752429563019,337.82652147827,15.2300581061931,614.396731547772,48.6976034703938,700.049443366974,113.02490108106,150.921289694983,36.0969399493579,22.0470467018773,-0.454725694785371,61.7889717414162,53.478644379439,233.88625837448,-22.9670507900944,1371.14048265994,-208.293506006242
218.281230193587,16.880934911189,255.714005573986,44.7365220347994,343.569555182055,7.26480469343709,435.874135223118,-11.1606067078031,181.017458738356,13.1148203967084,315.155074731848,44.1368354347041,1426.6279593131,16.0685544468301,342.158329202249,14.5372063193581,630.491621601047,38.3016427992096,710.714159401098,112.979211503582,151.960305624381,36.2587279329454,6.57239717326115,9.82592530855377,67.3109712275368,49.6052465716273,236.000208241074,-23.5580807896467,1365.81024083948,-195.570349372335
222.196878434457,17.4289880085743,261.966282114084,43.2199588571096,360.885703895968,-0.501814811676953,439.251298376938,-11.2381109834117,181.356568291362,12.8410786656756,313.369404106339,44.3899646695194,1419.67074238166,24.725392414566,343.524119046684,13.7759565705884,609.463332831059,51.1809982578947,703.919114453754,112.864452527778,152.53325993529,36.0178014410824,16.023394170866,2.33953978110152,67.7070117936462,52.3434480106867,234.795643615171,-22.840413057473,1355.95180161423,-202.884125896802
216.20132219315,18.2668404045804,258.252139909163,43.0713761693377,345.055523992113,4.972647738634,435.459719629033,-10.3654320269637,179.919298003245,14.3140803115472,311.633753740852,44.7547634417099,1412.61096206818,19.1804432947502,338.909499558993,14.2083129232974,604.369745419624,55.3563870327263,706.246331058229,113.016097256494,152.237872567323,36.0700924394984,15.8512170421803,3.10691247379911,57.3803424998958,57.1208162819101,235.366620174863,-23.4845280119574,1350.85744386774,-196.168289804114
220.770448412714,17.3535344698634,256.588073057745,45.2266111607435,345.661977462689,4.92853321062948,440.595469593889,-11.8264673395614,182.506193666356,12.248818194706,317.119460964693,43.4212152102981,1417.44213009274,8.57903329541621,342.134639302903,15.2298770533304,610.099992016164,46.632362828429,722.570877543295,112.36991757554,153.810022328255,36.2248852170462,16.9810398204216,3.93415751663887,71.2387358811016,47.119556760033,237.680284862447,-23.9412011439214,1366.50272322744,-202.801540888596
215.969392457412,18.9999946433988,256.987873911099,43.3603364974098,347.145510005292,4.85940755603782,433.541448965068,-11.270968397008,179.307212501626,13.4990049512355,308.129711025588,44.653054460606,1406.94585532884,14.7225717158447,339.102449861358,14.8822848023634,606.429674957945,57.0638468538399,705.869999799233,110.815570348841,152.586963777544,36.1513915780186,13.4952134698453,4.31674693125944,61.7754117290319,54.9193314871296,235.05567675275,-23.5440953979587,1339.16152351762,-190.793847078186
216.673903485055,17.7679496852148,255.070768507385,43.2903128567473,344.639266689009,5.28436590658496,434.451810377635,-10.0874532493011,179.823173132593,14.0189464440218,310.094242265591,45.076072253384,1406.64224735806,16.4038805601054,337.943121434387,14.6383713861658,599.20117219446,55.0539082841893,708.387664923008,112.685774959864,152.591598756611,36.2315062306202,20.1124844370074,-0.114305868642842,68.4252270789011,48.2055541125007,235.204638981395,-23.0615737237389,1353.49490963663,-191.28881867196
220.04763839089,18.077478303341,258.705051152031,43.8856811344107,351.890626303168,2.69246892001937,443.213578088071,-11.3906898490628,183.686212772154,12.37388762673,315.69129602658,45.874248121859,1411.20747801887,25.0393636356961,342.889477837044,13.7362492342463,610.092259035131,54.5094250279906,721.04963676445,113.152125961012,154.283458439567,36.0409035996137,17.9322361363289,1.10914358211192,62.2324389411101,52.4143582732082,235.921431291439,-23.2938121589474,1355.42279668572,-196.89833818951
214.711503208228,17.8287713500548,253.56481263525,45.6657701712457,345.414030493526,4.56110295088738,431.92467171422,-10.3716340965608,178.17534230939,14.423104919684,304.435125731711,46.0046968366651,1406.66762023688,7.32968743794211,336.376966820757,15.0098593441357,594.376502171948,59.0360957920591,699.463399583501,115.002828118896,152.076993962805,36.0145376512424,9.70685150721228,8.28534073018371,67.2546597139326,52.2140030319491,233.485749782999,-22.6329258075407,1332.5174908078,-187.406331630803
215.489534138168,18.2216914805305,253.554110218939,45.2579472276613,343.647171867283,6.26870298799556,434.903724349867,-9.48211475084744,179.386999238905,14.0182126123336,307.778968142614,46.35500985943,1401.7398500822,12.238943452751,339.014851387632,14.5620892550951,598.166726663064,55.4590760981874,707.217872914807,114.902581207358,152.385777845952,36.0450494145515,15.6650525758279,1.17920535732394,68.8952373171385,51.4247176611228,234.344600944731,-22.9527353826027,1347.42898666614,-198.84947702577
220.029369714915,18.5738934609368,259.397602896811,43.2481791721279,348.288057849823,2.55811040615259,442.704377796036,-12.6785940296662,182.727884507951,12.0228051537329,310.16111083851,47.6852984123713,1403.08011760006,23.7696297144935,338.184456788654,15.6177284574412,603.238427773089,53.84281201472,702.854804379055,116.176429985282,152.146992274123,36.1515128821696,13.1719405738541,3.63318348875822,65.7953727841567,51.5253828897872,233.291146051442,-23.0797211714769,1328.73587604455,-186.318325831936
214.416442318101,18.6351938607954,253.187803528565,46.4165505947568,340.126141115581,9.40214721155234,432.800003372463,-9.45717348544575,179.688063309204,12.9501279016194,305.69132917358,46.7611485641494,1380.24549746187,19.0281552045629,335.662318081699,15.869311511487,595.771967442154,49.2581685339862,701.010361611902,113.351952776833,150.814599843208,36.2473819970462,15.6873952337197,3.43565953821461,71.6793886625046,44.595787978403,232.879172138624,-22.7311013100662,1335.52616997989,-188.423514083608
215.813995113997,19.054324272089,255.281879162874,44.4205087507219,337.412801000968,10.1531515414941,437.597447408404,-10.6870854930845,178.947212761468,13.3755157393621,308.700618831314,46.8192814211251,1403.41232477019,15.6761285846972,336.025839378923,16.0181298456953,603.098780757062,51.0940052947269,712.570137916937,113.521128637622,151.757249219332,36.1843856217505,16.454153253037,4.07722503518196,68.3744363305364,44.3933180318514,234.297488392486,-22.902828346112,1343.31692928233,-200.228870690197
215.40760903162,18.8376774629991,257.330135964991,42.8516940216889,339.348563570779,6.63364088386979,431.498944184896,-9.33507515778052,177.613552792792,14.3844823612804,302.457535714319,46.5301821924186,1386.64566578858,13.5942275776878,333.416101093839,16.9057406395259,588.072363169076,58.9523776875517,693.767401146574,115.897837247551,150.503417765574,36.5675388319657,16.6340095079034,1.02677517444576,69.5983336853696,49.1249966145059,232.224463141849,-22.7991725905752,1344.71322472269,-196.961980932845
215.576053637673,19.3671355727142,254.860100256492,44.8602666218357,339.780657885077,7.72625154263619,433.013644683543,-9.19219878517662,178.450574034293,13.0645444602619,306.825517795931,46.3810656928409,1394.34399274064,16.0949448858297,336.465225600623,15.6887429314699,604.628250737846,51.0464624373792,696.461848540924,116.743921603789,150.464309622552,36.5668742862497,16.6222673474345,0.0667286942049293,69.1177271399485,49.4660258674916,231.980651459871,-22.3100767278288,1324.8638965549,-192.100700920192
220.943369575454,18.8337089795815,258.069802224364,43.3672008493692,354.907817523026,-1.33274788646664,441.320307588644,-10.3243187282523,180.240397741209,14.188200855557,308.769801408202,48.7409255936023,1393.4123442764,31.2675395242308,339.520170670261,16.143947732168,606.230805356854,53.6344842232847,713.309937209243,115.277352699672,151.623078540376,36.2860088024554,18.8088458857214,3.31214265094465,73.9812631828782,47.7009654450288,234.511681812382,-22.9262921276074,1334.10222472592,-182.812802784635
214.469182408933,19.5626348119034,256.126314706353,43.0580521438346,345.074771156995,7.48317409629873,429.424436563111,-9.52628140573358,174.591797756739,15.7852633477921,298.93069770789,47.3396253963078,1380.8580458363,21.2692940491481,335.362626122733,15.6741203634397,603.613596017376,52.0275773370012,691.372786514612,115.838113837424,148.628635297365,36.4559534050837,18.8111545124833,0.156437753998449,65.169302479566,54.2104447961427,231.532158564314,-22.6116234584863,1335.37216286315,-188.336169428259
214.306767118898,20.5134320917799,255.341756283043,44.6704167053577,340.840172151374,6.40129132984819,431.075583366869,-8.96176927902637,177.108728321287,14.7361045295804,301.622095606088,47.0764567109961,1390.42324367225,12.6234067708983,335.402980008276,15.9833875137351,602.771322788373,47.4951004710996,694.057344095904,117.11630495843,148.671506825142,36.3766908513205,14.1539092326005,2.93021397833735,66.2099278636036,50.161576750625,231.430868490207,-22.3364820356724,1331.24916063619,-186.650727550895
219.736243105557,20.4217297529313,257.920009665954,44.0095308562649,346.641440067792,5.78281805800954,436.66581557824,-10.0775065903865,178.613536837683,14.6062588422269,308.903008705557,47.1155871776115,1400.04325465868,20.0850100569061,338.20297672639,16.6611018574488,595.163329617139,58.0668729674872,695.730561140469,116.459663583304,149.30078430272,36.6824367074149,19.8534338441253,-0.982921027121115,61.0243403041272,54.9564325220916,232.302474118893,-22.8311710597588,1342.74161001664,-192.827726476453
213.763108761999,19.8433951973634,253.682438357756,44.1068460455261,340.176657558788,5.44212493630542,426.343457330858,-8.91442376414409,176.924858857051,14.1115600820462,298.619005589121,47.840859650775,1393.09116940959,26.1648851137999,334.138280593002,17.2171694571039,601.455456955,49.0359731047914,686.917408799327,115.578163742724,147.369313297911,36.8937622451025,13.6522581691255,4.70754521134638,67.4846466779506,47.1937869263309,230.833905254405,-22.1575167359437,1326.17541483316,-188.282501273216
214.519597851114,20.6027404199342,253.850798200839,44.7012289108551,344.5196762799,5.04545080164386,430.645122654411,-9.61958205840938,177.804580071324,13.626035179991,303.022070132387,47.9851266142731,1388.16516068715,29.2298562716193,335.452772327706,16.4161860125424,605.644097911389,52.5885802742333,691.102745927444,118.714749167421,148.718786221373,36.6692632136854,11.8414769758465,6.81066162646106,68.3747576850771,47.7981637171219,232.321003010157,-22.7446723935067,1332.55240805906,-188.294097210733
221.408551483202,19.2776676662203,259.383399876255,44.2719133742651,351.063448680177,2.74181064224873,430.270752144058,-7.49815996215815,179.184998025046,14.2942353015896,302.605337032198,47.9180703714485,1414.31956093803,17.8381345972714,337.212304259091,16.0066850343934,608.859650200521,50.4919375926292,688.165974454976,117.962036933477,148.407817186725,36.7672024946942,12.9381475110041,7.10060676195989,68.4942092005834,52.190632513575,232.81293955314,-22.4632815102522,1345.63191143658,-194.079439487728
215.415274248793,18.9539115735904,253.348417686292,42.8343234386139,339.865138513316,8.36298833197121,426.7686801595,-8.98603149819804,176.845435572331,14.6720932033715,299.85091480086,49.805388928043,1405.99539018569,14.1959873998828,333.900332847467,16.5665847593062,597.703176840278,55.3210248878377,691.032683941778,116.811051059756,146.854976085985,37.3322783500015,14.6904259773476,3.93213113003572,68.6195911808388,51.1066902748975,232.802239457892,-22.853338728291,1357.95950712923,-199.835744955648
218.309530752648,19.1872406116834,253.189177975979,46.7602354082298,351.989605073477,1.08734326176454,432.949469119029,-9.3668757308494,178.399685184843,14.5920308963237,304.036201803387,49.145037422295,1410.39354218868,20.910519674194,335.260006310604,16.9962435975243,602.206427231456,58.9612005848211,698.866944268158,117.849040702633,148.202595171336,37.2520238892259,20.7646007007709,3.32128097128594,69.5996906088035,50.9256268195609,236.57488666984,-23.5367616443119,1379.41743062963,-208.785861304754
216.854451163445,20.0033445439573,253.323579667127,45.649150939585,346.873242859881,9.58407956698436,430.364156205896,-10.2798208886652,177.217492548086,14.8617346290242,300.668798386896,47.5609115107621,1414.3552741216,10.6276550506013,333.924805041408,17.0247475905164,608.637143945184,54.6546609579605,684.695722035416,119.710115620388,147.760124085088,37.0057568164936,17.033539135412,5.76878541410462,70.2551202508729,49.0327197394934,236.2813456809,-23.5225327065596,1349.92630732169,-196.81161694593
215.237743493719,19.5981259743002,249.818969518403,46.6162038798392,339.793489290836,5.72531288070435,424.894176654867,-7.72430908243789,176.695773589503,13.9081901932019,299.046757604126,49.1174436860087,1390.34858630651,31.4874698980854,333.979284802138,16.6740000941761,608.101599199434,54.3691555857025,689.03428911092,116.969015325639,147.405091763064,37.2322579375136,7.61954021603107,10.3923245274606,67.8909561197292,52.8288973830388,234.947120763307,-23.3590955679687,1353.69984739487,-194.82610580525
219.053251987205,20.2136745006898,254.410374585012,46.3443880043502,347.281643823797,3.81146697349454,434.099550476305,-9.07503551578626,178.025945079336,15.2680016682602,305.151106842677,49.5376238523495,1411.89468215977,22.8238209427225,337.506019045437,17.092250870398,616.194005615199,51.8410076748618,702.241844857687,120.019985712668,149.682270670541,36.9776160810245,19.4077635686388,1.11562456138657,58.1265023251973,59.4877003504905,238.391122368574,-24.0294960790389,1378.26331580585,-205.108674169027
215.814812155095,19.8222108791385,254.143876523779,46.4585909269085,346.753425957076,6.36352613264657,427.513105486498,-9.51105973781815,178.519922583403,13.9530757183808,299.337185035286,48.9851476917859,1424.55322158957,15.4245973320994,335.648183582931,16.68945327348,607.329521865602,54.7972916680586,690.884535737248,116.233020223215,148.626229746957,37.1632082337949,15.0428065087543,5.06535867520986,71.7455061776155,48.491275200579,235.97647657757,-23.4740440226276,1368.26256687032,-201.156416462236
216.738332549984,19.8941421161404,254.925735955046,45.0807477034673,347.793688788248,6.22533585669456,427.665615562371,-8.11073577638196,176.69372646846,16.0413702221451,303.312459886743,48.9627618295773,1412.02984807789,17.6766900732532,336.234349271959,16.5538240919698,589.640840836536,69.6799440427139,697.985347479123,117.835077346222,149.989075358815,36.951659734052,15.768380528377,2.62781348094002,66.1197794747018,51.8678144690405,237.529295409862,-23.5070484023759,1338.7079764692,-187.113284724138
222.030078555869,19.9436275102521,255.768371830622,47.4345810064376,346.744146422918,5.81180071903086,440.37735781103,-11.904579677978,180.227975640801,14.91614053327,311.910807702876,48.5023193103675,1427.8652780346,15.744796707096,341.70081374758,15.9030731564744,617.332034090041,50.8915300009157,713.316368830476,117.948937749988,151.818114927194,37.3113340803782,12.1700421695647,6.29407489805283,65.7433200735697,49.0541740398606,240.288534135412,-24.3435109373972,1359.45389671645,-189.066747594002
217.65090291749,19.8345116675279,254.217820954487,46.6445297828428,344.112982505036,10.0122655964394,431.99486968758,-9.38082461469456,177.315261167087,15.0397161348728,304.589049780247,48.6475552403374,1410.83194677563,27.3988393279955,334.243952229108,18.3162817414137,605.642525196704,60.3309249186145,699.334966052843,120.083156585451,151.105896981408,37.11438639703,16.2347467976712,4.28740952759982,61.8467024345807,54.0566074067274,238.775002269306,-23.7955223392416,1337.54035889951,-184.288982621795
219.437505949989,19.2706007453268,256.473535421274,45.9128018729101,350.135918385095,3.98406124452766,436.510962835634,-9.68738704805309,179.198106540916,15.6252745714446,307.586597612599,50.0112637291139,1429.16140714556,15.5915313120227,339.678365757244,16.4286936676423,612.996837237016,55.5075808664259,710.660580213461,119.213407483001,152.404706451787,37.1214633862827,15.0523964041842,3.41625721977674,73.1414164026038,46.6674086146761,239.955728637534,-24.0566811697475,1349.3442828915,-183.956934488588
225.718637785191,19.4799462161306,262.005685374975,45.0573484089684,352.032975450163,8.33305621883876,446.233021633551,-10.6062738603815,181.920096658125,14.9870085872896,314.482209148124,49.5690911026626,1429.48267089131,22.1176246228126,343.183266349039,17.1798215801198,612.756107711346,56.4749831372671,714.641044839885,119.081857879028,153.497351636235,37.6641130510111,17.9328918582027,3.52717084892203,71.95277632618,47.1805580659647,240.06378089409,-24.4220708728695,1352.08641003742,-186.38185490134
219.039927004561,19.1470381127575,255.306427377007,46.2387984330176,353.651210184134,2.90071263900165,439.553663564828,-10.8533819050427,178.701431699371,15.2596143607223,306.419525808814,49.3830959358695,1415.93462334486,22.2566129426166,339.14122074073,16.1038609736734,624.331495624895,46.4169279287659,709.951046146311,119.669335384108,152.677597985514,37.5877270732725,16.4587548545573,5.36553468838279,69.9331437380492,53.7418278706749,238.97273165799,-23.7280389285431,1355.76029712321,-198.734780627802
221.519878692414,19.7531035578844,260.092398739748,45.2929122584669,347.595686878763,9.63185296430264,442.636784563624,-9.24877022067327,182.095070569999,14.5754167468031,313.851906994558,48.1703649096385,1428.70468961826,22.2918209337484,342.290977491716,16.292807433396,606.519735362793,55.3020173661454,721.886148903765,120.251460554492,154.328051554233,37.6351124495828,16.1870921506073,3.96478620016617,65.7614931026743,50.1162720276933,240.798567270729,-24.4918090286772,1364.37047118716,-196.158061244328
228.151399929651,19.2178751222597,264.598914261048,44.6508212973317,351.333676678248,10.1681786312917,447.196731098764,-10.421669498288,182.396778484288,14.6640406800857,311.73676324515,49.2240693381156,1427.87748327055,20.2047054246914,343.790853258461,16.5873561980993,615.573432051778,51.1503361990495,715.317630799152,119.384277290518,154.55903588478,37.673233935252,11.5607724007252,3.80809098175145,67.6452256064502,48.8121804258614,239.574804981668,-24.1708912101577,1360.50658864375,-190.654847193797
221.010982417872,18.6751565727107,260.430791646541,43.883583196309,349.045014957042,5.30522323226201,440.47006786453,-9.70314301588311,179.307943370281,15.3373945551186,310.331125862419,48.4117878663727,1420.31370309012,21.9356641793844,342.131848145024,16.2919645082188,605.15068267756,55.329464004256,716.763174060616,120.758771506327,154.508243141118,37.5885730041032,19.0761646317092,2.38318645710042,70.1948798853761,51.6608273506565,238.648851722126,-23.7519947788428,1354.51473041351,-199.550596891469
224.386773065237,19.0866050740314,260.614816169644,47.7708116706861,350.05340446004,8.80887170717217,449.397219388131,-11.7587363266166,180.763956662497,15.5713914308844,317.244469612661,49.3189497995426,1430.53700786333,18.8432557908959,343.625522718461,16.9884800661618,622.147009136907,44.4284898527979,733.068620703157,120.525867003669,156.288113600193,37.8547851292151,10.2836057158066,7.99052335140285,65.7565915769806,52.4875019708596,240.480788484152,-24.249060787634,1369.06372722587,-198.078003167687
228.967955403184,18.8939023990974,266.142021102652,43.4981872767412,365.064645748038,1.60294554289823,450.471571803668,-12.1630003848168,183.820628256852,13.8310968837366,314.279753485933,49.8825536805366,1427.17494547897,26.02849196501,345.851154499926,16.1162106644797,609.284355414628,57.7432362416594,725.504586467472,119.652484179934,156.765363459185,37.4461317761507,18.2416048456613,1.34931663819366,57.6619901621118,62.3371847284904,239.526936615472,-24.3811650874087,1346.06833492526,-187.294156400965
222.621266587911,18.7142430300633,261.930700676028,45.9441166409639,358.990426109989,3.27418768830345,449.802848171038,-11.6272016937367,182.456661505075,14.2923247224959,315.97688290149,48.1062204837555,1438.66969753358,16.4132646967808,343.241127515374,16.8137740586507,618.196962413675,52.4245236885678,725.897727057689,121.584526656032,156.551746547765,37.7626606803325,10.4626021603393,3.48030961720152,66.8831897302955,52.0321159450109,238.415575942426,-24.0860625296266,1359.62788236159,-189.05099358375
225.916108952884,19.5117912399997,264.668567772771,45.0953421835482,357.291942562906,6.62137507910626,456.381233630414,-12.7048239007443,185.898030528039,13.9375105595167,321.177424447232,48.9133766103391,1441.27718557368,26.2730950645731,348.581596326388,15.5916597312758,620.629007271995,46.5512227904964,741.054565493428,121.664277231671,158.5776064644,37.4912372740678,16.8402740087634,3.77093924143164,66.8363218565465,52.4387178292552,240.720824063718,-24.5151511926615,1363.17436541674,-193.336319497707
229.264022975898,17.87221525254,267.481892081493,45.2078613629341,355.469372869729,8.33545922005729,452.841476029691,-12.965077134421,185.583483953227,14.2661597939592,316.544382254334,49.2745821674977,1444.11773855907,18.9484989767171,345.719504837251,15.8567384387746,612.404068119466,58.7014408142107,734.159996720751,119.425849042073,157.698143488466,37.4942091115444,13.312144388185,5.90973343391343,71.0161178980422,49.9757561713609,239.106291019527,-24.14605884286,1351.15512159907,-191.49115258522
227.176590660425,17.7098099768425,264.567671315483,45.1139453817301,360.514014724843,2.32478244568821,452.851662924728,-12.1192756658744,185.133576793926,14.8496737377365,317.749786264841,49.8597235305238,1444.62138289314,11.1384126291165,346.35867279175,16.5840314441478,614.721385419001,54.2440319103814,738.524275726168,117.954832751719,157.828491231695,37.7564378459208,10.343970472894,5.2115674262751,72.781982076188,53.1829934890743,239.202494943566,-24.0669082381972,1359.0439150764,-195.493610195595
