254.52971641682,12.9358336636735,272.857395348279,47.1062297889424,363.690376562661,4.53124353604067,487.70675332457,-25.1343886296336,198.192673760281,14.075054553025,340.827686978818,48.1901763399657,1508.95051901897,21.9775330666905,365.126764563825,16.1111342577519,649.039888138474,46.505056626686,800.902453349824,108.714786279822,167.704015791904,37.8527380360006,9.960970702488,5.98257690800481,59.2607642176217,60.0438037192452,234.961021651042,-23.0296999824886,1369.62672494343,-192.617188595945
250.867991008511,13.817925001253,269.330741296784,49.9907666590404,365.277557367711,5.04258036502882,483.731760029284,-22.4247089553682,196.985650645016,13.9748374643839,342.257535695014,47.9438251667321,1494.00988137727,19.0498412814091,364.825820546389,14.5834050069049,634.971459808084,54.7019102603731,798.740484535809,109.985015431708,167.176738876584,37.9587610621816,13.3243247797533,7.12624738487875,66.1620873704335,53.9804612490062,234.602149682282,-22.8838613021038,1357.99948392938,-188.156033341422
256.411189594398,12.4591652768423,275.323159134566,46.7132927120248,369.663288173157,1.36111042486065,492.754007256572,-24.1467990584173,198.793581412178,14.2341746219598,349.854375052996,47.574023987538,1525.06307550329,12.2507810074018,369.601434987181,14.3700725928954,638.416763724514,50.4462005364334,811.313668955754,111.279754876864,168.451468933865,38.0825621140452,14.3105854328103,4.01217048459643,71.0179788386996,54.3751910558364,236.483346973307,-23.5301118725241,1365.76515318761,-192.268892868314
249.421462019394,13.4423180299136,270.047187756703,47.3147214228242,358.423259642956,6.21266469128857,482.849985817307,-22.8470297422552,196.327220197461,15.0588704118046,338.855175008535,49.1686212366531,1481.855764123,17.7599963883907,364.095349930516,14.3685831877832,623.890098770276,55.4401425531942,788.804732112627,112.522810069274,165.472541807606,38.0160383236925,14.842214786369,1.8036246823685,71.2889354817624,54.6828128140907,234.126160355189,-23.2193427398128,1354.9345546066,-185.659461557763
251.742705074692,13.7964740479266,268.148320053601,47.6015797342887,347.963564160056,10.6540412726915,485.683029316817,-22.9545367005838,196.447678680615,13.7611019624387,343.251126546818,48.0575264976602,1478.46341064087,19.9433818807416,362.291197211334,16.5307430266468,626.669977598107,60.3388246037866,799.907306561224,109.923314827496,165.471110784136,38.4868697630342,12.0254400756127,5.01918005747974,73.2046850224543,50.9265845886889,234.685542871828,-23.0292421283293,1362.01839588313,-195.18495107195
257.637148087047,13.7687562468119,276.507250081798,45.4599519979603,361.94218077789,8.73391435856922,493.109179945521,-23.0612078932596,198.402760186993,14.528021686567,349.863737150602,47.9925850049178,1507.38639355464,12.4973487655947,367.595154936678,15.8294021501651,636.524391152547,51.404024107605,797.579764799522,111.813321751271,167.17265016826,37.7325315619442,21.1709651086559,1.89545032463268,60.7329385144675,53.7813739699048,234.365616904764,-23.1427551231069,1362.59993692989,-191.824861255242
251.158819468284,14.0596598409663,269.998155524118,46.7925634584081,363.245808080731,1.10594985684465,486.15683367842,-22.0972215927008,196.11836938631,13.8985156979363,341.246798164755,47.47248626463,1472.39187069258,23.2536161556658,361.562621493567,16.2747517875442,624.637606402712,57.1068788430009,790.761970092257,111.126331126533,164.927127559596,38.0371411339576,23.6355158038737,-3.33924952954807,71.6176457255976,47.3203724192878,234.42247347688,-23.5698960397114,1330.98690572392,-186.24857072168
254.067370469545,13.5721691565445,271.192039417106,46.9055697926615,358.164964812288,11.2892124450745,490.066588436723,-22.8908337830335,196.838779312119,14.10779779971,345.311356280873,49.2559302043322,1481.61906186743,20.679914206127,364.098738616715,15.9346758278455,626.696277584557,55.4734855190537,802.214651776165,111.338773860209,165.580453852387,38.1783268296808,6.73600229916905,7.57566235531716,61.5744640077571,54.5322549965605,235.707262985092,-23.0284691883933,1347.51254253946,-182.902595916626
255.558737579146,13.1899406070174,270.431421220528,48.2216012204217,352.407741212744,10.4966217793776,484.785377768188,-21.7859588594932,197.425525690205,12.5163541031721,339.156555203094,48.4371655087755,1466.53192915248,26.5548646135387,362.102030725244,16.3222266957485,640.20306067182,45.0519870651563,791.051292904386,108.217342504748,164.664982943138,37.942587632274,11.0744091743437,3.87427787583767,62.8699753305141,52.146211240331,234.408896147711,-22.9065928901949,1335.2371861684,-181.882946141238
251.574724071403,13.6237104432073,268.06840555132,47.8263446065836,350.732802915677,10.1576771660151,484.160811660948,-22.1001808744607,195.47770073254,14.2201804478188,338.255908466211,49.6393135909595,1459.55144723343,24.7868446017436,360.796305008332,15.7986795380864,621.13582963222,58.2174140530317,789.512497125516,110.551071516362,163.837364123161,38.0475607264816,13.1898052839689,4.05193332237415,55.6578103574951,61.5061402158336,234.715560418817,-23.0460511613612,1348.20516229339,-193.785350071459
255.342520661685,13.1635858499111,268.242525907812,47.9937724838854,358.340987084542,0.593469852519561,492.12493283826,-23.5862461817376,196.27873100072,14.6438129770951,346.994304046826,48.120503331773,1467.74055960326,20.0519009942505,365.531655020241,14.9371811462979,633.584809036868,53.3264210892056,806.126704628111,108.482922644084,165.459828803623,38.1773093368588,14.7454073826258,4.67309601417924,72.1130955444893,49.6952458276961,237.543130829429,-24.3818695980546,1359.6776942422,-193.80447900089
250.958882729667,13.886561138514,265.952323541027,48.5539529990061,354.598086751233,0.202332244330608,484.893450986075,-23.9069824223147,193.418679325094,13.3878625440973,335.929843208231,48.5544495782666,1466.08426038229,21.2066152598855,358.657625832505,15.4167355367866,620.91111393235,54.1300261204384,783.147123176752,110.699939984691,163.54777014093,38.063274525595,14.1367759380646,2.51666175970104,69.4715730251173,51.7409244476454,235.155424262695,-23.0483992191387,1323.56206667586,-188.600606102233
251.12393156235,14.8313028315164,268.384107038156,45.858183202078,345.292180425888,7.05866776661189,483.550283128347,-21.9463593713132,192.222073799147,15.8512010302835,337.238472987286,49.0004929392735,1444.35801222151,26.1796026283745,358.78918262526,16.4384784108255,618.751133517245,58.4332235399099,787.37767048955,110.675072444013,163.512226489545,37.9783008536124,17.6173023919641,2.86491987752633,62.0616938971625,56.1297103532998,235.32216654844,-23.28638198221,1346.129678033,-196.471459075181
255.719925314063,13.6019410044041,270.574434404915,46.2188212315257,352.732034638523,8.89763714738176,491.791983955513,-23.3867774206993,196.391426368105,13.7672196636333,346.727024826999,48.2890763445678,1474.10840541066,16.5237129772084,363.211682510365,16.4576827129904,624.590383270091,54.8123726519628,802.874340798891,109.970880079716,165.316193371713,37.9156517143045,12.1686808077162,5.83241786956888,69.0935620787829,54.283212818087,237.807455354417,-24.0204133349453,1343.78234998565,-184.834113136709
250.808402946322,13.8696069047912,267.360427968354,48.6273056067914,347.101409812806,6.32648083594869,484.197554625821,-22.197603696946,195.190598085247,13.057566709868,337.426666425138,47.7885395236025,1448.74627905604,27.8826039636461,356.205566654909,17.3581884726677,612.07880687816,66.4052004097766,782.754498348427,110.082528536403,163.498058964267,37.9121635917408,20.1253295742024,1.26784748124355,68.2824899232594,48.217254439501,236.402480827678,-23.3059247653819,1335.15489924316,-184.960385130543
250.387602993216,14.1999001719235,267.305448603527,48.1631566845018,351.020851871578,5.60412150536258,486.639054984812,-23.1523497519227,191.481027783585,15.9515118200342,337.758521975037,48.7154921479671,1437.17699278338,36.6355152136268,356.701952577645,18.4471202372388,617.28940741622,55.4862706596275,787.982113672352,109.398911206471,164.132278884673,38.0919626146342,9.95369099193801,6.49461697313314,65.9991487317305,48.1466983272392,236.729065611638,-23.4836374980592,1328.38295898104,-174.158194083656
258.006003881108,12.5027695966699,272.08219242378,46.8407385431362,348.672881593141,8.0247400806989,493.408036760673,-23.4161741786662,198.10344108533,13.9250248385574,345.102112461205,50.3357159090731,1480.97708981265,14.6640860798138,361.776647295788,17.1316709464596,620.214245304466,58.9784786339204,802.503282283426,111.961930464322,166.716529948082,37.7068351850729,17.5860143703962,2.14659103156032,73.5792263657201,48.6167633488738,239.321264191185,-23.8189366650228,1349.62729259947,-186.599542572958
253.703845863952,12.1478205531757,266.49938572329,48.3222091234202,351.604050697805,9.81793807912208,487.368831313342,-24.0254890315864,192.401184393746,15.9505167027057,336.962643891247,49.2141883174859,1466.30245196163,20.282477384771,357.948594315274,16.8443787266221,616.764424892489,61.0665492120924,785.899611055643,110.263756840742,164.371626229504,38.1596667789005,19.0839884295618,1.32408095930817,64.451534493113,48.2066197354505,237.43456603127,-23.3529188914093,1322.43845226088,-178.208224533244
252.97228621379,14.1520832188528,268.897683354932,47.7542348101696,338.27239588529,13.8802428847374,493.082896178356,-26.2903425394884,194.509711118164,15.2669041916086,339.353207889288,49.2805973710982,1440.56354333654,37.8995208581937,359.241389244424,16.9640054132885,619.917598895972,57.5060173422365,795.898813162318,108.069177791999,165.123229522283,38.2401019394565,9.45343117368138,7.84342305688968,71.4246085066323,51.0170932048239,238.636019799436,-23.9917523488658,1348.03970339562,-189.115555291074
259.738579027253,12.4828159278059,274.167394099401,46.4625248724018,356.832536431663,7.65553673267905,503.420934881745,-27.9549354292777,199.190352788661,13.5861098490754,350.481397289264,47.6192235367368,1481.05836403491,28.5582455550656,365.473989083151,16.4136022092544,637.578835788452,51.9383400576256,814.814245662913,107.418670366612,168.00580757129,38.15333337724,12.6301165417849,4.27883008834984,61.4301529476377,56.4278887843843,240.72282478686,-24.3556400290698,1374.87715221672,-197.146266417301
255.884180678271,11.2865106446589,269.758085292701,46.7521361753271,355.914637513777,7.75082210511299,490.357612008896,-23.978495226732,196.692718253315,13.519434486801,340.226491701462,48.0112453064974,1478.26439836738,23.0003233596521,361.411265575538,16.2554911107897,623.007014533589,57.9074048614005,794.417160681983,108.976386693102,165.826228293199,38.1116993254212,23.0530834467135,-4.2211045248372,66.7711918655297,51.3941188974325,238.870022926503,-23.893779645873,1358.95189665157,-194.777800068325
255.664248558926,13.551850353646,267.967547993914,49.6039421295006,353.176760369553,8.6092363817715,494.27632632466,-23.8986831346855,198.779979508978,14.5113792535493,346.4645595874,47.2383840078061,1487.39771546324,22.9218075702796,362.467442014255,16.4098045244457,623.75097197721,59.428540041464,804.234955793494,109.089362955678,166.837760686062,38.5091175382799,15.1213975134891,1.93262747810686,64.4011613656225,55.4335050965583,239.84968276509,-24.2231407056658,1361.1477326179,-187.901459077519
262.478167579843,11.8266079815455,275.22160378106,46.7814076119411,366.357675303076,1.34081739619303,506.900349214558,-26.6394886118997,200.905310894397,14.2001884406378,351.300528904971,49.2162023651832,1523.58456589381,19.4276466966589,367.46601319286,16.2453317555727,636.829278223206,57.9332498826002,822.825196382346,108.624925048798,169.453251150361,38.4792127526152,16.130239258151,8.36424607480739,66.3099013006343,55.2511797968229,241.0952503025,-24.2203789617253,1378.12436324572,-188.7711038363
254.672167761884,11.9998743167646,272.504209351764,45.7967500276917,360.144580704537,7.10098920910244,494.23249705911,-25.3480523646339,194.719944037999,15.8399470844861,343.007455989823,46.8630786201279,1505.25818109444,21.5728223688259,361.074409185966,16.27179895196,624.949793387112,66.0050585213858,797.930813590665,108.907300346918,167.512930950626,37.8845699813971,14.4050015378843,5.23455799878635,61.6491312720605,58.8586651398058,239.213502945737,-24.2185851811977,1378.74047695617,-190.044857325345
255.200431010744,12.5360226350995,272.935340118024,47.9076974302124,353.485287732666,12.0790441170873,495.983338193344,-25.5473062511567,199.850566431826,14.2650628945218,346.461041597691,47.1081803140893,1504.5603396131,25.0031935198681,364.57055076735,16.3313499514267,641.117115685372,50.7496283675318,805.544566097446,110.427633727415,168.166770883114,38.3896948580879,5.58423075026413,10.248727915376,65.3693203105663,53.8123821702675,238.692850667022,-23.7982464470726,1374.6049804685,-184.768452381958
262.158770237834,11.8266041221325,278.56306882805,45.8888145938153,363.22561234695,10.2338624699044,504.236172689008,-24.8925709879685,201.663266473873,14.2873127713568,352.806756617112,47.5300749866387,1537.21403217365,9.2682543147974,368.441154633897,16.6849767847395,643.758683790028,52.7489033884665,825.409959126964,108.995753731182,170.192497584489,38.4516182284926,14.0737394710631,3.43508336784616,70.6550267828461,51.7627816137589,240.512283817648,-23.5642954133579,1377.69798157449,-182.915156287704
255.239308858431,11.3371114091417,274.25634636676,45.4872843316177,353.513931661337,9.73768542070837,493.976410744732,-25.0961101778881,198.425111084014,14.1384074702048,342.254953566135,48.3022880270901,1506.10522119377,23.8738707939925,361.87959199487,17.7271568905336,628.918953559827,61.6147045775482,795.421278686282,112.165703278285,167.538934512555,38.5022982346813,4.89926909267456,13.4596328915445,67.233548053375,54.4988876071369,238.343270929296,-23.8095043094651,1373.88680031755,-193.315212641879
256.123453923934,11.8692122099918,273.048486095787,48.3196095290967,364.829434118746,4.17069836638836,496.251167034386,-24.4161469361388,200.278302361654,14.2594896987486,346.941379820799,47.9192629784608,1532.33597627202,7.77171553188359,364.832458737045,15.8225806324222,633.39882419688,61.1099463810271,808.990388976081,109.799032162693,168.922277780023,38.1766546142662,12.4073952945511,8.53286568683818,65.8398123517653,50.8361255943753,238.30644135223,-23.5791924698156,1376.46293256918,-180.926309116295
261.836564018365,12.4699756605925,277.841043964541,47.3013973973211,363.170820244675,11.6247735677304,506.668951644195,-26.0851215555999,204.182905627729,13.8574748043233,355.776976896734,47.5417799818868,1547.40067448402,16.5574016665422,372.791038271644,14.3164722873068,643.29930934041,57.8447053330057,825.947454383809,109.385018997501,171.876811902535,37.9443103339737,15.3510904013507,4.98038125313124,66.5341268131865,54.1962375475355,241.076027588001,-24.4450848873034,1405.88226858211,-196.3070342213
255.111610878204,12.4758901271895,273.224843200062,46.9697042974344,371.11666817476,2.77078372126107,493.963923490792,-24.7694006395862,201.763878276996,12.557595290122,344.9362786388,46.8224226513554,1543.87336262049,5.37273564097578,365.90978679863,16.0804401215751,636.629464487012,61.5812527846952,800.222353136563,110.9722558066,168.81945717429,38.32117514614,14.9926041429731,9.7158661446476,69.0983602415429,54.3409449749819,238.410573767539,-24.0501094695589,1390.2012419241,-195.664551557134
255.665907123225,12.4387853945372,274.85398468641,46.8666603935143,360.609298460003,9.51427109009776,495.624587247195,-23.6982704224175,201.718766695485,13.6005319313639,346.779421244246,49.2857710362978,1526.92743044821,24.6209458679933,367.956104313532,15.9552134948764,644.6188136044,55.6109819041621,813.398794090613,108.796142035688,169.859050369811,38.2123052417489,19.1545122367505,3.23126674533559,78.3571316855328,46.7230577879908,238.436329519678,-23.8564863048457,1383.79756349763,-187.422521191696
262.459152624269,11.611302905792,278.815397122145,47.3124302088611,377.228064162227,4.67286500443998,504.378700092571,-25.353456725955,204.926738198848,12.9181790941165,357.193818747514,47.5903238765296,1564.19117260223,7.68009966645362,371.688652878664,16.303546696507,646.825433112502,55.9772078279854,828.87621254354,109.463773173371,171.769575615537,38.5550609714622,14.597859541634,2.67569957101656,63.9807622494975,58.2358904356283,240.522517648156,-24.3370596105507,1405.09060167498,-198.054699114431
257.075937992165,11.0057019326355,275.104876127419,46.2640255778963,370.584273285338,2.71902316666779,497.070969699998,-26.9759277965457,200.923505148626,13.3645665626769,347.343742921577,47.1535940963872,1542.11673208691,17.9645212216101,368.876721506014,15.5493674372172,657.843145227198,43.8646396678817,808.983829504239,108.489160462374,169.744920932171,38.2771444806717,19.9923972298937,2.08979429800898,67.0125877926207,49.4337762152594,238.160298652951,-23.5685999267483,1387.26877534922,-191.434697624019
259.144760936103,11.1979340947787,277.105657485299,46.4598251281009,371.947102068541,6.81970704297568,496.953465941092,-24.5349704051438,201.946786175442,13.8870485676841,352.695275117387,46.4954633882434,1550.06090079069,12.705290638124,370.734081713414,14.2312816242506,656.642242566258,52.773088851468,819.385647724656,108.083858160234,170.409856224104,38.3394365608686,10.853087921119,4.90228288031066,73.6448847770205,50.4697506932571,239.136792398922,-24.0601275176314,1399.08558115225,-197.441057919663
267.412085369759,8.8394982954307,279.63843595376,47.4741964402673,375.067843835183,5.04036900399069,509.515817937902,-27.0633511501609,206.712562773189,12.2791517643951,360.949739140131,46.9713073857841,1574.33294517547,7.78483506424057,375.548230267996,15.3689398898765,655.575975354915,52.1567487778217,828.367739935225,109.441375489244,172.681793362195,38.3285637340026,14.362853575584,4.48807304422924,67.2988672236206,51.9917432685918,239.456419902306,-23.8626517838849,1406.59363377749,-196.231867932794
257.309115811743,11.5134696376146,276.623900248359,45.937033182606,364.387025592458,8.28698550286235,493.197295396053,-23.9699205576342,202.520827949085,12.5331668143869,346.948794979974,47.8541373991932,1549.51724114744,15.5962974639623,370.438491119358,14.4536951572997,660.734632461139,46.5119794345833,805.757451448746,111.805488485187,169.953467019395,38.1855810920429,20.2903036317459,-0.887712102454765,68.6956494512902,55.5815340138667,237.548919064013,-23.3306737733624,1389.47927773551,-191.596414944351
258.35236606617,11.9680553019835,276.278281797128,47.5686118118564,375.795340497414,1.96316721559384,500.16846994743,-26.2766442356753,200.257981373148,14.2530060437337,354.04283868339,46.5392345029767,1554.9689963591,9.32409261127554,370.704620256701,16.0343620718019,657.589389238699,53.8150647660932,813.644975527901,111.778503301349,170.366529310036,38.2930666213776,10.4285741674582,5.88583194563167,61.3986323917728,57.440131569655,239.027053858033,-24.0872152521228,1403.11115305819,-198.108111203988
264.985759447625,10.3129993765857,281.188179217758,46.5630169911505,367.833705503399,9.08575531454974,506.826572573492,-26.1087568970806,206.280309014537,12.1965660691485,357.76605979295,47.7477751554475,1578.94530686577,10.9992464231467,374.596644616352,15.8374537114272,650.438669352202,56.9692374977718,811.483233956127,112.379674003926,171.735996977175,37.8360442090008,10.7225173212309,5.99689013813044,73.7004978193049,50.7401291220113,238.003029152032,-23.693009663892,1396.25703070212,-197.470104899563
255.040209065416,11.416865844194,273.503385428999,46.6103158768679,368.921894894055,6.8390364548232,493.878613993552,-25.3249808282251,201.218071360591,12.8945402474449,349.535076235267,46.5347929077682,1539.75771637573,9.24487789176291,367.836883877935,15.5250145765459,653.195579308744,48.8389823493593,800.524153780105,111.84600376437,168.471705751283,38.5171766114215,13.7881378477547,4.25193151429032,73.996828288444,49.2906884078099,236.635692949477,-23.6384201977041,1399.55751629317,-199.506452816981
257.810465014137,10.6842400093623,273.660281353408,48.0237606046138,368.025705171611,9.74243726396403,497.622450279582,-24.6686005456119,200.704632678636,13.2725597692106,351.674949394495,46.1049711829444,1540.78398561752,21.4407063988239,369.639931089491,15.5004285213267,650.809154114578,57.2121481130918,809.626269330049,111.84300768524,169.406178176786,38.2853504437739,24.0250568702181,0.179362293969276,75.3206859792408,50.1796989116981,237.775166197609,-23.7482227697465,1402.26904539635,-200.705760650413
263.316243449289,10.7137339794824,280.499675281291,45.8186486586148,377.224935394649,7.65685134265564,497.148430303697,-25.8211705560075,200.713075252512,13.7001669956588,348.714248008871,47.6521634792515,1558.52295886719,-3.07469588663796,371.1373244464,14.0119531088437,653.223477191889,50.2002201019162,797.428776922771,109.772604076738,168.480020901828,38.4172430079306,18.2047881340377,1.70274487479877,64.3229216655226,54.5021361370607,236.244894107233,-23.4795087235276,1389.6293774425,-200.355378108725
255.183595737555,10.9130594072081,271.801841091996,46.8179004963615,367.95248834912,1.00421745877669,492.036119954226,-25.9830121168169,196.729080933359,14.3898027372218,344.670764922067,46.5256557164314,1517.41670611989,11.528727589666,366.458563201325,15.4504710147291,655.615646390222,51.6969010654798,791.824765605747,113.643045314426,166.886957953463,38.6155771223377,22.6442946030724,-2.12307865616657,69.8905381884276,52.2387575233144,234.847785714018,-23.0023304437389,1376.05638972109,-189.647700354237
256.325675411583,11.8394583167929,271.322895608723,48.1874874644242,359.196071271447,10.6321795025037,496.300957675867,-25.4971447041915,201.577785175757,12.306620812277,351.620568272216,46.4553669484331,1512.687456965,17.9940622982815,369.521104452529,15.1947320182439,640.041352777926,64.5023758239676,806.345913510231,110.349489842208,168.390266059859,38.1421998949385,13.1753146866902,3.83387887598286,69.7184853670416,52.8341137920438,236.764216468917,-23.639248814199,1390.0807931825,-206.378509198018
255.168521618577,11.5262645986748,273.947074540197,46.0264793479624,371.417827168743,2.53414101058946,487.125933492142,-21.8390563834202,198.499516857098,12.9529916538078,343.420740894966,47.1423214158358,1509.23088227944,23.5048540671339,364.689239596339,15.5801279530301,651.469304566198,49.9697766984092,788.797170461965,110.872483770667,165.827968726779,38.4122263616868,12.3428053089254,7.13570566099948,66.5508163039083,52.7616743164056,234.540142636567,-23.3621325842809,1368.94255608644,-196.629196910507
254.695753108223,11.5412701644091,268.81506943463,47.4748564784669,358.998712281438,8.97985745051724,489.466080013773,-25.5565894716419,196.114605110661,15.3228206654883,345.426598200073,46.5501195541782,1503.05096759621,16.0391561922247,361.405875056524,16.8194201758213,634.158921504636,62.3571362239598,791.619495933535,109.721923774787,165.675515908588,38.4055151124449,12.7520266761215,5.8500500159926,62.031420589177,54.9955911632641,234.411966314904,-23.3060721993978,1353.88022890971,-179.456177629684
258.16712727122,12.0976884556774,270.744797646334,47.6478308971654,357.433145730785,4.43084991127646,494.998270248329,-24.5420563466284,199.291457328785,13.6325080603404,349.248896682992,48.5294471644954,1487.39388475307,27.6335720972036,363.412630723854,17.7082150284376,645.242685622055,59.0493587878985,803.699675893436,111.861109674844,167.127492425033,38.093013917276,16.9100503359267,6.03283392040013,67.826785483926,50.2299155151967,235.894102013996,-23.5088860398576,1364.84446574672,-188.185588862591
250.828764229612,13.0375795376796,269.06670988871,47.7693973354846,354.173587303929,10.9632399971839,484.562073577941,-23.22172685332,197.94408824129,12.7656286851165,341.719971222893,46.6907481896863,1480.07419801124,30.9809225772403,359.467271219286,17.7042745793098,643.208425215711,53.8250109973968,784.592434786177,110.82043237028,164.398688852058,38.2708640781882,9.95944823373921,7.32745041027689,66.7383817994013,54.1716330545527,233.573865949707,-23.0388268945786,1351.23910678293,-195.553592638356
255.199583188309,10.7860704548544,269.771011559654,45.0529261756893,356.95762699727,8.34550158211912,486.790707606604,-22.602379391679,196.623676147239,14.0240946177186,344.115090304097,46.6243241696899,1478.11111430281,20.4293328913127,364.027910098022,15.2191633800501,632.784585758487,57.6833335028536,790.509832476507,111.665612281461,165.528019952655,37.7269696181328,16.7089543082406,2.78580622835875,71.1537275832968,49.4686809748116,233.581574067558,-22.7041152863833,1360.47987276917,-193.769039058947
259.319913631604,12.2433541145777,271.418329890775,47.6493657748737,359.988416179443,8.16007658439939,494.94306248134,-24.3860535998919,198.413552992496,13.9903189271849,350.964275038369,48.7040787834047,1515.45940549927,10.5286466466165,365.787881851255,15.6691082198959,644.166028015611,51.5459644397823,799.365022360088,112.817581969908,167.579454896321,37.7177628386738,12.370085017809,5.86734825023244,57.250732028985,60.2966706298882,234.77306921538,-22.9861935729613,1347.45635197185,-184.311561555027
250.408804336486,13.1323588355316,266.377129600566,48.3728949816774,353.331834503682,6.09909872038568,484.725629290041,-22.767015817828,197.592865890045,12.8296640619182,338.284287065339,47.3292235455092,1473.32781434657,22.8395803314403,358.42908627868,17.1294355881605,624.657085014864,63.3592962115749,782.815574237838,111.008886334849,163.72447583944,37.8122000619904,8.809516013957,7.95471621691397,66.1237651673712,52.130301895275,232.443490755167,-22.4288730858876,1349.20750917942,-187.43018490863
252.908984563957,13.2681947371972,268.145920881588,46.9696558085313,343.882459127789,13.7165880032062,488.219004945903,-24.7386716596233,194.272933570578,14.6299736887718,343.152269008262,46.6609073577208,1470.41562374567,25.8793220140601,360.92714759853,14.9478565310345,630.881975696553,53.3696692357151,790.424950509178,111.213911444445,164.364849247575,37.953648240707,13.7447599221122,3.93391067575433,60.305058208624,60.9980977336427,233.508721626328,-22.7829374304536,1353.48634991784,-192.170613678241
259.525383016695,11.3191606078495,269.233940098959,48.6051962530651,354.227946324392,13.3942056841298,495.653840280837,-25.5512560937427,194.94856249316,15.3316703216226,346.520961111675,48.3960023933854,1479.43371283252,18.2313023644479,361.603851074663,16.9468392545615,636.026560938016,55.0809452709847,786.243129256009,110.612237675767,164.797819577981,37.7445913876208,8.62172483076381,4.74678062201892,65.8562921710321,55.6171799285686,233.456371969002,-22.7743977660897,1329.6990523598,-175.389517880577
249.635946818854,13.5362789643986,264.253207641583,47.8229195679892,338.818964282482,13.3263633938331,485.339406520064,-23.6363570568022,192.244659210612,15.1833882194317,337.776650837419,47.3162337930834,1458.97002425144,27.2278107591705,357.073935127398,16.9574813532776,631.685744126492,59.1468461796411,774.963381783012,112.821951496681,163.386685908743,37.5642514076097,14.7876604762294,4.93041170100652,72.599141919467,49.286474858081,232.770131141035,-22.8003159818045,1333.02461080636,-187.894004759931
253.438136514825,12.3355012927303,267.763995657222,47.3061830707897,353.316731586864,2.61554663465369,488.624771954057,-24.4294255397789,195.043266739548,13.8256803054239,342.288437010753,47.4388538061395,1460.10699401282,19.1348086513832,360.921761139256,15.8308059351668,633.889008303824,52.0709937484298,784.618829573787,112.952599004804,163.864346895145,37.8956260209355,19.2077499663525,0.264233272425962,72.709928051076,48.0712763308932,234.122946909504,-22.962242388295,1329.78023975899,-179.359894314524
257.558322595936,11.3438605157607,268.117229476483,48.2716202429693,346.271386324804,11.9803642138058,485.912302079688,-22.9650176594129,194.765263420479,14.137359441572,338.564191063071,47.6188421077462,1461.64666093322,25.4646845411913,358.74782265147,17.1870223276103,622.624655454846,62.6700418385375,776.047346220704,110.669295909483,163.209987191504,37.7831215609097,23.7272411641644,-3.47349535065661,62.8049153175947,52.8726849017876,233.394997788466,-23.078025369251,1330.72447406065,-185.097462728933
250.738400895663,13.4466190940557,266.312478466923,45.9834148576705,354.710131061609,6.74654923732759,482.743130418375,-23.4447717317188,193.915964239748,13.8392531131787,336.652132821165,48.2059415014317,1436.97405235573,29.4960225098731,355.057168937616,18.2736030986321,626.211287869117,57.3192969472279,774.403451489634,111.786636259247,162.732317355153,37.7276476420877,13.546989997231,1.26035351697188,62.9213359956938,50.6549493003764,233.40050627167,-23.0584353076605,1331.38678303783,-183.217464030032
255.832491136451,11.2788099410226,265.688779373922,48.3778698525016,341.470898988001,15.4012412117574,490.541355645684,-24.5726360903606,197.267174459077,13.7399726508244,344.224144457287,46.9625911774532,1467.00177542288,26.9782924852427,359.138404359687,16.5111904718979,631.166294277308,50.7363484810587,787.762677816472,112.574512444482,164.698264384045,37.4513343764037,14.6923392712478,4.02488664378391,70.2585845836056,49.3594635725095,235.460982486301,-23.5645772176163,1327.41116821599,-171.085550040241
254.037053605443,11.2765822206906,266.546550865737,48.2358805226325,346.719881409878,10.6032047570551,482.934344132416,-21.8941008201213,193.796454200381,13.1338886687204,335.878408526554,47.5086080604176,1454.88093127995,23.4139651403632,355.917951626091,17.1771209871532,617.634848025718,66.923645150809,775.119074311118,111.504133097094,163.31374712541,37.7304842402849,12.9229976256779,4.49778753493898,75.786731501924,43.9188926342767,233.892271449048,-22.8086864391965,1333.83924228853,-182.229432957659
253.611547054495,12.3606158358434,268.226506547326,45.189534370233,350.342528404868,8.54717183460926,482.767135925573,-20.9741873138393,192.891611433857,14.4640925171832,337.160234247065,48.7390208005094,1463.13865419863,21.8201136447902,356.729729284558,16.8144545942252,613.902106392962,57.9300479316112,778.78979993442,112.939326147729,163.774364896875,37.6082976073196,11.3121166961828,7.92048240664523,68.0557932304069,51.5235013390801,234.688973238362,-23.1698770722433,1349.2409309185,-188.800996789559
257.404040159762,11.6723195548913,268.833324899402,47.2743272209575,348.545337087522,10.1352796365404,492.589065708611,-23.1956470736945,195.089813083224,14.9301587580038,345.811274408621,47.3968072464728,1484.51972941728,18.5146222170071,362.389356119507,16.6164864685284,626.064988744321,59.4890959560357,796.93659106437,111.421752750964,166.299006145595,37.3781733529013,9.57068288518418,7.66973997800554,69.8874933345551,50.863902032005,237.3955470093,-23.7232180850547,1351.79905136827,-187.44664489382
252.743395071133,12.440721141882,266.665758151249,46.8515730939743,353.703388751788,5.90391486308834,486.479856564415,-24.7558310466768,195.77186498791,12.7315661191117,336.355684824164,48.5791518091326,1463.16193203168,30.045991159673,356.990454134403,16.9184343500119,625.812303822966,57.9285694666615,782.160009508069,110.385139911742,164.890358809389,37.3209689652588,5.72099886027133,9.02777187001181,70.7503514482551,50.4639317983019,236.366963413355,-23.5179000436189,1348.87714114691,-190.706412381119
254.700292016245,11.9436621335094,266.945467258841,47.4824939338719,351.337799220979,6.05899259671961,488.734565314066,-24.960165165401,195.570969912763,13.2895704649056,341.300189380453,48.2502605996308,1477.46931159908,28.5586030378416,360.123918221105,16.1589324059237,639.365890650557,58.0949958723564,791.208456821971,110.248907665136,165.746125145074,37.5588347546458,16.0160795359761,5.52185683335936,65.4823003157985,53.6138105955747,236.458918083766,-23.2108584409654,1357.31461425466,-192.279031087238
261.6347367513,10.5965635417253,271.598131075735,46.696767285999,350.767645196017,13.9316995230011,498.582582535242,-24.4661261070227,199.950646493657,13.4237360235391,350.030628578957,46.6660119637477,1500.67291070608,18.5526554338579,365.625752133464,16.2978676781254,660.924137206534,47.6503027300889,806.659137687508,109.3195061322,169.142683643874,36.7203101021086,16.0127254620371,3.79130746803961,63.5974828116381,53.147574611199,238.111089054006,-24.0120805136629,1370.06174532486,-189.390927397198
254.954601189477,11.2903042798853,268.699934636924,46.1290655528906,353.809715731513,7.44677537690519,484.420238822913,-22.9491684723901,196.004626221178,12.9545372411048,335.58503689975,47.4953290291665,1484.51079682924,19.7729910936873,357.284997030762,17.3207470869787,631.674162582533,58.4145478443352,788.181161000841,109.950531072715,166.497554669086,37.1825086151499,13.9694821261305,5.71472851021931,69.9207301483476,51.3936614250243,236.342601267256,-23.0985970801124,1363.0557826028,-188.44210036959
254.991135940518,11.0983442902623,268.787539420325,46.0847258497639,347.515403191304,14.4029002324688,489.10103061879,-23.4660233558134,195.756802952055,14.6703209632878,343.009016004462,46.9013102484715,1479.27095647072,21.586887349051,360.12750633482,15.9238243927696,635.797685643824,58.4648716696659,797.819383721065,108.235060231053,167.52229125865,37.0334143913614,22.2859412304955,1.19664253069457,59.6967061298853,54.293689593327,237.696571835983,-23.5793915368413,1385.30934796034,-206.086005533086
260.521255942113,10.786612786288,276.788766085313,45.0614538782918,370.220183018148,0.589655588016061,497.127724392454,-23.8798130899222,199.862727296617,12.7894666706967,350.673790076429,47.0396881536071,1520.87156775739,6.80643185962341,367.455913725544,15.6694133738176,632.165464203725,60.8336154022608,800.633531431986,109.996208568552,168.915944711892,37.1213082723118,16.1622330905033,3.76724454373632,64.0276630367889,52.5890603923091,238.48399198214,-24.2967444942805,1377.46412854257,-193.362974837929
252.929381635752,11.0386749119183,270.293029889624,45.161240642109,351.54204147633,12.0373854996555,485.460328135017,-23.8156951759197,195.715188815448,13.683570932184,340.634905506103,45.8302858650194,1486.14098378926,18.8256737103926,359.476709410743,16.8079166810728,631.127092677607,58.8190885668369,791.518087214497,108.211479888527,166.564861636503,37.3354206072457,9.98494770533302,7.61375021625731,59.2577506186992,57.7612819584569,235.677668567508,-23.0933168272535,1373.00635875497,-194.806416283855
256.575259975261,10.5636833561563,270.005970335617,47.7700714218711,357.00386685237,9.12121083096847,490.956295602005,-24.7065031273095,197.513081288458,14.6570744739764,343.897000504719,46.483628613064,1504.92102211224,17.5053397271689,363.886772984427,15.535896603976,632.583679835444,62.8320999843062,801.646446978398,107.895562935001,168.840474253817,36.9126310943649,17.0486381819313,-1.72897874905867,69.2371225034923,48.3799281384628,237.595743342322,-23.5821075575744,1376.61611208587,-192.822651234581
261.648881704841,10.7145550276584,275.298050030711,48.0904115475072,366.626741482554,4.07730710717217,499.09233057128,-25.7998492313238,200.819137081588,14.066928915937,349.312434705197,47.0809085688681,1532.89024794114,23.0919479911071,367.530353611989,16.0541943830466,639.979035067648,62.6814036759773,803.919743770153,105.489008141561,169.55805932575,37.0665224290129,15.7027323598344,7.29304120758218,62.9209687534304,61.1680003576717,237.149933770739,-23.4588564527292,1384.23454618426,-203.33411073329
255.178266858022,10.3424537457718,270.744708698652,46.7963295054098,357.461916804382,11.2832857641912,486.885613061892,-24.510262615335,196.214227699432,14.2197992940238,340.550299044069,46.3024558290536,1521.65448445219,12.5661291358748,362.873628266587,15.7377209055232,642.78240063787,58.5139280560634,794.494423929676,108.294946911131,168.647723049878,37.187242903709,18.401539716329,1.94563838822396,63.3586381032594,55.203040512313,236.401008888765,-23.4570900439176,1390.74964369953,-203.022633393585
258.049122237069,10.2015093236342,271.994715003055,45.5706453662192,370.037924966063,2.09797962506182,495.584874211938,-26.5044760051458,199.876359915311,12.8286674053517,347.737398584325,45.4731146036147,1521.97732063468,22.6839374193401,365.36693897866,15.2095137049962,640.044739798945,63.9597999265276,810.767324625242,104.3954778533,169.491505330435,37.3120258110169,12.250499682999,6.63895598261226,63.0323921107963,51.2345668415452,237.804313977217,-23.7129312964973,1396.39941787222,-195.048155265252
259.42556720495,10.5288696046499,275.828849134573,45.4792066241627,371.951719242909,5.11931934239583,490.539805354918,-24.5090488415794,198.873329599244,13.9140873985615,343.694120545536,44.8674759222558,1511.98304080241,18.1474008148315,364.995006569583,15.1712149637743,640.751776541191,56.2820087179279,797.121033541593,106.145702877268,169.209781479279,37.0589611369353,10.5129288172758,8.30154807352711,73.8421350653574,47.554761205929,235.957475455775,-23.1833495552977,1397.72891280316,-201.949246062228
255.4843374387,10.3742276222004,272.419344640024,46.5005834499082,363.914737037507,10.304944729077,488.300155550103,-23.9107002859462,196.660907288417,14.5763381731153,342.968229939326,47.8197814229312,1521.56996451724,18.5881065218297,364.17781189412,15.9638220678683,651.094725766538,47.1419010742462,799.83495657455,106.243282263187,168.674295589956,37.3236410832513,16.3935830785066,4.10935330312087,65.8456664804795,50.882541030405,236.532215526891,-23.4401080714071,1384.3774662398,-194.865899458746
259.148856619063,10.2558003581939,276.185892840242,47.0289368913213,366.781327221683,9.18730648766448,498.288542009416,-26.445451151674,201.090846441325,13.2380335077762,352.407468629355,44.8176293107744,1528.8933921581,16.7455650347895,367.823354584437,16.6668605313937,651.157116025294,49.1717693086588,819.393797291454,104.851906303499,170.977662478223,37.1678833551692,15.1356903172711,5.17718842773926,74.244813105208,51.2427662244253,238.154144159923,-23.9595103336179,1396.53270452877,-193.156045506443
254.680677519312,10.6512255833394,273.614057956093,46.042608479168,363.143430126051,6.5179833270415,490.79740368888,-25.6920136539601,198.451886324242,13.468472819852,342.095408421655,45.451015668371,1537.39686078709,11.0443882448635,364.269973142418,15.8697996423189,650.817913810946,51.8679165921699,800.101298166012,105.884911933925,168.500821365494,37.4041155363007,18.2803231986288,-0.0218257335017014,64.995714431533,52.0812533305401,236.412946216683,-23.4209830179471,1375.90547590534,-195.156181396613
254.538889966444,10.7867993805189,270.697168659946,46.9844825368631,365.620848905292,3.78685100062718,489.999275806909,-25.7552996508086,198.675242309594,13.1197830922334,344.277948129428,45.3718133495764,1524.22871763567,18.9433740591688,362.067471239359,17.4059895069106,654.601851458588,51.2657114131434,805.098500144434,104.515682796517,168.875220569134,37.2186789543906,15.9646494232131,3.51280470944225,67.6959897312349,53.6112977827927,235.57324263409,-23.195117837986,1394.08357906524,-196.962200802159
259.88869265298,10.2309348311228,275.751824792968,46.0734281619262,363.016171126805,12.518972481987,500.600799867195,-27.5288820261805,201.260653820242,12.461950700188,350.7607738032,46.2524670369227,1551.34416587112,3.48676812125998,367.376165142125,16.9114004174332,646.839929740351,54.9704384078535,821.643519794927,104.054875422712,170.806151594569,37.4609281412333,11.5027564398479,8.04583258220614,63.2575072723651,59.1418793062773,238.027115055308,-23.8547136751896,1406.13418802127,-193.310703077384
251.57856235836,11.8882882818886,270.884197750347,46.1507709079523,362.027966050817,6.85765596478505,486.579630661442,-24.0843208187026,196.628961124556,13.5471627038711,340.369563419588,47.8176506374374,1527.43715531628,11.5134449871866,362.321624039602,16.8042338618954,645.482133841369,56.2835194675064,797.666432648153,105.205057028313,167.490224165956,37.7583524411926,9.97868549582258,7.52579237276443,68.5003556539399,52.4932639933163,235.144671489334,-22.9695217095519,1383.42863954723,-197.676166719472
254.123071320843,10.9921305583503,272.305170588756,46.5702255236883,356.853119441086,11.0270293059697,491.87706622028,-25.2859202760043,199.959249409949,12.3973733192265,343.582302045602,45.9827588969539,1510.83773623604,22.3081492588699,365.72118770643,14.9316518188061,654.585379011463,49.4630621816726,807.300804993066,104.461427503478,168.839075696912,37.1876022472674,17.8497386173403,-1.14387274058607,64.4943380179411,54.3877347272168,236.249464331557,-23.6315981085221,1376.80338505883,-189.330632051985
261.164890460979,10.8842795963027,277.589236627064,45.2256252952418,356.950343028976,11.9957854158005,501.457957956327,-26.0572254983535,200.401035184307,13.6120819880601,353.853681799525,46.3069662696293,1545.76242871624,12.2302783439318,368.52294678272,15.1585903265909,646.179787969235,60.6456245750423,818.255961300485,104.806087183984,170.350323029776,37.6892780654431,18.3858559839516,3.16299222311032,69.4271917484209,48.3895636085758,236.666970124176,-23.6355175516344,1397.97146744288,-198.299829766956
252.5059300813,11.9233505460353,270.471731849278,47.6837686516205,371.838022490081,2.73030077467505,492.009558731679,-26.3662886007002,198.524459830811,12.6409261689366,341.638766855166,48.0391266111651,1523.53958337856,8.68246768680843,363.049153795163,16.1823147770734,640.678997542189,59.0353468314344,798.654435337666,106.172390215098,168.386850884266,37.2657694085562,14.030730686069,1.55713312455637,71.553190296793,49.8708583599402,235.411436893321,-23.3555867005971,1379.12457799171,-196.74780249513
256.589668432744,10.7290152415488,273.218549997533,45.4284416882084,361.154582593024,6.43668081372654,493.915697469321,-25.3064071178682,198.773242383804,13.4257760910245,347.014566585352,47.1804268989415,1504.13253190177,25.5667582744577,363.385602606072,17.4832373173842,659.101264533008,48.6173274204382,812.944355751787,104.658880276872,169.258635302875,37.4314418663117,13.1781917932168,5.09157067749266,76.2917612688688,47.8105972688438,235.975704390356,-23.3574520208371,1371.21466706893,-182.548739439782
260.218230753795,11.1297328965882,278.196343039477,45.0398196704991,365.79592225453,12.0065201821663,494.176218348983,-24.7210981313395,198.231828571772,13.8361405816582,345.029065683657,47.154500845462,1527.13445626685,22.2975678114614,364.992962076788,16.4032567986514,655.342114617046,50.31206645643,803.583880920285,104.273017502658,168.383761356634,37.445321254253,15.1551142077276,5.12405202163349,66.899056695144,55.8456585070398,235.675022724122,-23.4588023313816,1379.87896940411,-196.681652344193
255.023168723154,11.0750638073503,272.309596125625,46.4678606909953,365.146035170175,3.40283532479445,493.223349972288,-25.6799445479659,199.611843853152,12.8756734231984,344.005091117821,47.3884140982343,1504.82252719207,24.8973343604357,365.399607229825,15.4078404731331,640.137008245762,55.1831271898283,803.704068482719,105.07343946511,168.366318509627,37.3786951206618,11.4811313577811,9.39731808731097,70.7724214897165,50.6203291299003,234.980776123333,-23.1492643038078,1394.45364520531,-206.590096169251
258.169748594631,11.3240907563185,272.35400700321,48.3842862485664,371.027885986865,6.40496144760735,498.590898871721,-26.0870259210819,198.403926078923,14.3635493025035,348.564554816026,46.9803883462776,1532.98097304587,7.88017991118766,369.325124829847,15.9089314960761,655.541051686597,50.4708221626305,816.151481997849,106.648364075382,169.782253538796,37.5353865023504,15.4285073225203,4.17446617897869,68.8732664377498,55.117513564512,237.584412447214,-23.8299883064183,1376.52296246782,-187.594882579945
253.53214772236,11.2116086664129,270.824413293831,47.0278171148769,360.37297419282,7.10223257892502,490.964063382019,-25.8158690351261,198.382192416316,13.8469660420939,342.810874304155,45.1571930488227,1506.31117252438,13.5953735751038,361.587277945834,17.2145188893703,639.707335205551,61.0511951985799,797.364745931128,104.994158059857,167.835759501475,37.506245407414,10.9106827485338,6.28060717607093,63.9532664493249,53.9722897359162,235.842146223221,-23.6227402479591,1383.3490443728,-199.9159263585
253.942927612252,12.229132513094,269.907943637412,47.9322178606576,357.193146084069,9.30215165677149,490.734143318758,-23.8030017579004,197.332395430054,14.1920620339308,344.615516596177,47.0715111762522,1501.58125476124,25.9619871265388,364.096043399537,15.3119022735619,643.488807945311,55.6982318615264,804.603393039245,104.607829806869,167.944045318384,37.769636697015,10.918680868127,8.49844565230719,61.4402630380102,56.2398252534765,235.587655348032,-23.4946036028421,1368.44555507198,-187.441523883234
259.700440163197,11.3731851751083,275.821345712465,46.5672615828407,359.901375509189,8.20744753733885,501.203832251102,-25.9842998672713,199.985455493861,13.3979220412528,350.104950394085,47.5072946533046,1540.34501003736,0.645426813654804,368.405592511506,15.6932550150878,644.814545289246,52.6660437129935,818.383395058583,105.566683527584,169.687390444247,37.7685885925994,13.5032664110284,6.52967087839125,68.7847617229662,53.2281500262928,237.241156247746,-23.5146804455191,1377.73343068813,-196.553452679805
251.483853167585,11.871142755519,267.874712105292,46.2798499540801,360.346770943494,5.75018381833347,487.096758933667,-24.506732472922,195.482272580919,14.2687859262904,342.099286104889,46.773496900111,1494.092478196,21.4202687322223,361.607058684911,16.0716862830026,645.902687915024,52.1108083926069,794.06932194254,106.974415344171,166.51309276679,37.4115916184945,7.9252382576803,6.23926934763671,64.5227098811742,54.7563904194497,234.22554809503,-23.003298718194,1361.03072586309,-191.641625160653
255.050432267997,11.4681211986901,269.472535760175,47.8402998941616,363.351388992735,4.05194957012851,492.380482402514,-25.1886665736601,196.359627617061,14.2320435470312,342.444421648164,48.0653395916096,1490.73284180692,18.3333641246069,361.237121020458,16.5681665186948,632.000361720097,60.1285941573133,803.876332723018,107.02098067281,167.200036003554,37.4866592417032,16.2446592943482,4.17209671479172,70.354704639229,51.5692182176882,235.223100811954,-23.2682143167272,1351.03170842083,-181.202829029979
260.639455259117,11.0247865623613,272.472915352369,46.7605469607614,356.667811914631,9.44172861607229,492.893778604767,-25.992143749211,196.586202352895,12.9839865185971,341.704400192534,46.9031804050755,1498.78387505196,17.8142452548709,362.768738471001,16.3272746265744,633.510500165525,53.5772570463562,789.818978418219,108.217633135331,166.431436167096,37.5993165312526,16.0688841712687,3.72468438423845,68.1500516474952,50.2788285829032,234.865505447589,-23.3002190067553,1358.1336231464,-196.51623015114
251.531262150492,11.8861427838346,268.041843724459,45.6685818478743,343.898542204973,12.8258052834696,487.933515733064,-25.1131855393849,194.749634352456,14.6776585105502,337.072803363221,48.4181968996822,1467.54354369147,28.7915054182667,359.458475802049,16.1984548413083,625.729937734567,54.2608387321851,784.853524256797,111.568802932345,165.15471787767,37.8571390237003,14.913746733391,4.4022771935976,62.3532212685495,51.824509573486,233.333112497121,-22.7874512752632,1343.23849580762,-186.605635495653
257.469191257108,10.962121608289,269.702336309285,47.3008635662197,352.272291116409,6.32271989740843,493.424747656506,-24.2880748831377,196.327156630782,15.045410353229,343.615823372275,48.0118031250156,1471.81650170279,30.9982170893622,361.827656629088,16.4692674025403,641.068499592892,53.2155984353685,801.646038877351,109.009557844854,166.569615201228,37.638264073061,11.2324032632437,5.15190171424051,66.2170829450562,54.7218626951067,235.603345792342,-23.1926378983039,1349.88705585695,-179.895825617011
252.163861798652,12.2537837588407,266.637400318076,47.6251491931157,351.799483245731,8.66419711907282,486.709716702275,-24.7235406452348,193.432356127612,14.3801282419561,335.506462912524,47.865777397573,1477.23970342244,26.7730133462616,358.334008278384,16.6365471642025,630.02000552151,58.4707940816846,782.743429736383,109.851320665282,164.681211231763,37.7857171499181,8.2085894586825,9.24689346058156,66.1475408082648,52.0674407906675,232.854222937645,-22.6224520826044,1341.18789491429,-184.158433197598
250.986813060268,13.2216520616348,267.321239037478,46.4229837580124,346.69701097493,11.4538390673031,487.738367728648,-24.9556478830497,194.709612588284,14.0009768030899,337.462166970595,48.8797437242377,1458.22057951563,21.3047562550051,357.179395014388,17.360173319992,632.163554728292,61.1132432616527,789.204371779906,110.707430266416,164.870213351586,37.6633443344987,18.9665905215979,1.0457665080185,71.7473506411092,49.4372986848273,233.383949332143,-22.6330446256718,1355.72274336665,-193.543536005439
256.964065306936,12.2305658655403,270.4565199967,46.5858137996991,358.733755159054,4.88208754647408,496.027816251647,-24.7396816767488,196.915483382942,14.6035788365677,346.033959135951,48.1958227290993,1483.62274136267,23.9174392211231,359.994463307784,18.4737123043041,633.405816786613,58.7448636398038,807.924362264662,109.616525385831,167.124613793006,37.8482244250495,16.7541155332496,2.65723733098536,72.5070483053182,50.2234762341823,234.81801271465,-23.165946742653,1343.83623795617,-181.875168451231
251.247848992439,12.6290912061674,261.024645280417,50.2908662929724,346.165163272382,13.4969912699718,487.584691365218,-24.8455598648695,192.863150304794,14.8438373322756,336.30781980043,48.0248112647134,1447.66048317641,25.4465521253616,354.425400303845,18.5121443820125,629.290045059417,58.2391091097085,790.532292639498,109.294194087819,163.608580446376,38.201270676015,12.5388702902774,7.57436149344045,67.6896420761206,47.4202665837595,233.81573942181,-22.9653832927112,1351.29723392355,-193.58968223682
255.735649697155,11.1571676181459,267.267562270387,46.7482538909082,350.975903158864,10.090150665407,491.400706049254,-25.3410540833993,193.055943397092,15.2724731544775,341.38601316969,48.3790300861338,1473.55503972947,18.4732138667222,357.400825874847,17.6152431327825,629.160776794644,61.3655206954036,797.847106140052,110.113755047381,165.195742187663,37.6011934331442,17.4098726771464,4.94945302766979,71.4932278497493,49.8088292705298,234.086378346634,-22.6682440304215,1331.72060533392,-177.973431926449
