346.561922406352,-23.170143635408,806.30447182758,240.443064858681,417.705706285527,43.1960668185139,1067.76151611113,81.2080394095524,1032.18028467807,203.950715663381,556.640577067346,110.58561474808,1279.40693750704,152.903490158242,1093.20028232125,210.997467977681,936.192011149928,200.416657406887,227.994501828302,33.6538763976487,200.438653580387,79.7088152866552,978.002865177095,314.993160319685,443.752501044835,267.559679316684,2064.31790053359,52.3317848399516,1927.36774743263,55.7763101843461
340.659291176016,-21.5232228493154,781.584519008286,243.99812893916,412.557911728643,43.730236741778,1015.79599489339,87.2203998246552,973.689570972876,218.317574712267,535.33529891742,110.42488967953,1251.63681201811,146.869152677023,1044.63104967843,204.81018514716,914.500858082433,202.061426679436,212.241272472366,34.9856848339363,184.328895134214,76.7723234638255,988.513947174617,346.784986007714,423.056194401048,265.241485584073,2018.82157238822,53.4575381087288,1896.10811976075,60.897130515971
342.451057495737,-21.9241163593493,792.005756730888,236.463724462195,421.385152292919,32.0926616099971,1036.78062630599,83.6169477859085,987.157604255637,214.061151589715,540.339061131426,110.795952097298,1248.93470739104,157.299473172969,1056.26780761886,210.167118182071,924.950852826828,191.611008040004,217.531646205211,35.2034003648396,190.345312929133,79.2398436158504,953.613633118091,353.23974161502,432.086745667103,261.584546544772,2025.63857325535,57.8313964975095,1904.66728584905,52.2272506198047
346.893707118487,-23.7744438185666,805.853359572866,241.868072830313,423.929076155604,39.0010861831374,1070.19051593886,81.2236354508774,1014.60720187663,211.782523195629,558.846245542981,109.049157411522,1280.28798407907,148.761949785444,1089.54327804964,214.623719776002,922.508420156178,209.100864187535,224.363535609747,35.2955970441595,199.470340102063,79.8467456449933,1091.42054931195,284.329498085063,430.040434176335,269.385486365045,2037.9181988716,57.5336348397218,1895.56666041125,69.9460618183347
340.831582428851,-22.459650024206,789.652815379024,237.462677889263,416.238542947229,38.8353497142988,1021.51129112835,84.7324499112318,976.519375707124,212.64310439401,539.498316701461,109.534499717869,1256.11561763443,146.691549161831,1039.8080838071,217.800242997409,911.24803746986,204.215677111737,212.496328378258,35.4719435265927,185.642242840839,77.7074742970705,993.272303592598,303.817050159599,420.466349215646,268.061129120723,2009.58328199873,59.2056003444917,1880.40776387985,64.6460961579225
344.09152318194,-22.5878075397108,799.220732424352,236.791266322859,411.705542928949,41.6718451869815,1045.96503458363,83.0368879379165,1009.33918500318,206.464316232873,548.156871907839,108.300544648451,1272.31033132774,142.303569527937,1071.15938087562,210.423936569162,931.811574004931,193.600069145164,221.095662151957,34.1037117957568,192.581855156201,79.2829356019282,1013.4209530313,285.239910591799,432.272469005724,261.329214403916,2038.80506798316,53.0220037176076,1890.45786198327,66.7422338707032
348.186475296274,-23.6144661136767,808.990943859213,240.627046484966,426.206191385132,35.3733011149391,1063.33066471818,82.2014872511412,1012.78359426735,208.576404084317,555.77443530777,107.976451447907,1290.23093139448,147.156795890357,1072.63989359089,216.114938110495,938.912553105111,194.985351676711,217.041616235076,34.9113656270607,187.52179454965,78.893099926507,994.624976946032,347.871437101117,426.729991305388,263.660221442462,2019.18964995653,54.0186477122216,1900.32112357975,58.824211600997
340.626873821328,-22.6511884988039,784.718214507264,239.011928252231,412.528523498674,38.0351238538495,1019.13098188721,85.5180315674338,995.819444281138,200.348192179937,537.682499331093,108.822102611195,1261.30393734437,143.9867912899,1037.12359432854,215.985072220644,912.991954876833,204.476308353517,213.288020465855,35.2554672028793,183.970354787521,77.4080399119427,951.21422923154,348.375894047629,426.665555149789,261.024257949246,1992.79650508337,62.8328466555498,1870.55576872803,66.9413765379248
343.239772962357,-22.250382580666,794.910717693429,240.174800228884,411.069832306122,43.7674901347153,1045.05046413636,82.6935543815032,1000.06496477356,211.854801576412,546.332884777484,108.265430517929,1245.06163764777,154.069811923823,1047.73642378866,222.932713581167,922.971414371194,201.064460027125,220.381615132176,34.5860030117991,191.872847187815,80.2636817185888,965.554773298818,334.201714287418,430.068655560828,258.36963189293,2024.45544075154,55.0711576903259,1904.4705713587,60.9265475344299
348.351421428299,-23.6518295948039,805.954677561862,239.790666833466,416.194447545748,40.0701738429783,1038.01161114681,83.1028392339789,986.272069859156,219.867133435586,543.266600409252,109.867987745364,1260.38373660752,154.771405439186,1063.50181560158,210.439527895071,919.70870146189,202.851687041133,211.022231400372,35.4034367635691,184.657463468527,78.1902990846727,965.427791215467,315.191136291089,420.439520165081,262.911726568322,1998.8438459983,55.8667470993205,1880.21804716865,61.5262873048777
339.563711864959,-21.5747431609072,785.666583309122,237.118148598491,404.518020666936,43.1939737744567,1011.54985573596,87.0945624666153,975.350834233029,209.989787196657,535.296579615863,108.88436426595,1232.61559325795,150.093724927943,1017.67733004319,223.902636085891,920.227505733955,187.817189367456,211.187305104456,35.2549750438152,183.370556119291,76.1437363188039,942.68338131583,333.526303468156,420.142896967981,260.024205591431,1983.33469069767,61.0307062459442,1834.93876074934,81.734817244745
343.690042020896,-23.1627795397098,792.18120372111,238.077754640198,417.375173001315,39.2956392234521,1041.65777582629,84.3421576140639,997.625995852625,206.340791618527,543.853850830858,109.526481584456,1254.45277836443,148.908935927138,1057.29236604386,211.567499543933,924.623183182154,196.123848368468,217.971071229273,35.3193458584551,192.495533833937,78.6888518349614,1055.61632086309,287.707637448045,442.461738562107,251.285491971362,2006.20452059871,58.9330517696887,1895.68254428299,47.7213209987616
348.471527600745,-24.3042470940486,803.544745783776,238.799279714535,423.118239774117,37.3722290131086,1036.86244974323,82.9243924699411,987.357368764365,214.405325193216,542.950458737434,108.682234909419,1275.22880423516,133.786274491441,1049.74630479782,211.20187665973,935.672482051602,189.399413051562,210.532666559986,35.2816095244673,180.864857658255,78.1407857457139,957.158907919062,356.103951382357,436.096777205437,241.576429751714,1982.05454684774,56.8889161522734,1882.25379202193,52.2524332843382
341.034048358299,-22.5301880130973,774.818002451621,243.141696407226,411.874148388769,39.5304221911556,1023.18668469742,81.3743437323136,1001.66386598941,192.022002585715,534.740390239799,108.286049491584,1229.05944103958,150.419791980754,1026.94809762742,207.795808615897,911.619449250072,199.500687329026,210.255635263586,35.5975204371724,180.37521779785,78.3638286704297,924.619872651625,387.78218068702,408.87442542996,262.426712236596,1969.43583659974,59.1637788507123,1850.49081231324,71.0870103530812
343.158200243713,-22.5218605743419,791.47232961458,239.361483168566,416.404154395847,35.9376845707746,1048.36140734324,80.2329548937205,1016.90002179825,189.764032304029,543.073882017709,109.322319792956,1248.212054142,146.042731179329,1061.0319167563,207.504643865806,927.744619676635,189.324411796802,219.21061414438,35.0158434621036,189.409455073159,78.3447718111555,1062.07758159217,284.674694751007,430.370418799177,259.472650209886,1995.52409397453,56.5015230109156,1896.45524059651,49.2250676615837
348.537964526991,-23.0165668509599,803.954885214465,237.665952887556,418.946290163994,41.5705866817509,1039.60848934556,83.8653963909796,1000.17155359153,203.439375239802,543.534306786787,108.910979628323,1252.87257888806,152.703181996858,1064.93752374789,206.933084798303,916.801520447582,202.354859959191,211.145439483767,35.0852670874272,182.628120304339,77.5167300303322,1000.22688477401,302.017117050357,418.039439836652,257.868977850702,1964.92785400918,64.4326509855572,1862.14415714553,63.5218113240162
343.196758172907,-24.0699035337254,780.336883009139,238.902627693726,405.734140397385,39.8182290805112,1022.33665859492,83.5337594914002,966.362665231902,212.576656261737,535.304062401714,107.260544724147,1225.56493773509,155.897856757357,1023.0332232613,209.881095448725,926.016745976918,187.719202312288,210.471130511078,35.1812179688402,180.895275782069,77.8872164372264,896.37226310255,362.684150485659,420.90245455364,255.755540746933,1962.37063935677,59.5708867815942,1852.88976771559,62.9259529200237
345.238760437971,-23.2461898457227,788.519178603726,237.735226762889,410.978680849847,40.0943213389264,1046.02659382749,84.7976154721256,992.159134103539,213.999065080551,540.247076100888,111.565654847514,1249.13923338308,149.911879725673,1044.03045357214,212.115706640235,919.526656616607,198.76287986771,217.633866078904,36.0801115128284,188.563366049109,79.9556584969934,960.999665290213,315.727348640406,440.830166404086,252.131729371544,1986.94836476198,56.5026682683985,1878.14677744105,56.2325566595743
343.104075818337,-21.7966589078116,785.731105203977,237.420162637761,412.879200965459,41.7287762769637,1016.90553146075,83.469664882196,994.288799917581,188.751349384508,534.32230164275,107.151050443807,1231.77714662123,147.067642208927,1028.90568991179,200.975355256018,908.272689959314,198.827025148815,207.567481779899,35.7762998600314,178.349982654704,76.8271739569827,1003.12527609217,316.533449938821,410.4962543003,254.617778771406,1948.12510519362,63.0565046798625,1864.4766884308,51.2064563274178
343.082722400768,-22.2418651916685,777.450222918735,236.738285398717,398.242995915161,45.5257225490069,1021.99594097003,85.0325327554697,977.172695842387,199.700271518205,533.897213237894,107.15475398247,1237.67292243149,135.414961956597,1018.67435508785,214.108521252525,906.413410380383,204.665512313074,210.609693225659,35.7219841587882,182.480401569107,77.0730499323393,969.451941556847,316.716042411353,404.330749372829,255.475891421173,1956.65861130711,61.028722107573,1850.52426128022,55.3642206467082
348.50008008551,-23.97602230451,791.214222177367,238.053015103354,414.783856597008,36.9498148942608,1052.21396844077,83.5794362544484,1016.42111991382,193.510966513839,544.983568592306,108.062437387226,1249.35404139223,143.48779472367,1057.88797003978,202.405740983054,912.695697021328,206.379594545374,219.221798236774,35.3847176034791,187.704503606583,78.3789565088137,934.589057972951,363.289305181569,431.299927316502,253.688868018028,1982.62373375754,60.4461425032649,1882.01216342989,56.0406466457756
341.6285465183,-22.384861311343,779.303924191976,232.739918092607,406.95081373049,39.4828902188037,1002.61939437939,87.8138379096446,974.143052708294,205.130731063464,528.773249655484,107.156441335382,1215.25469271033,153.084424549133,1003.30312596635,205.532555862004,910.687623271696,191.03629824674,205.650220661129,34.9941139598355,175.368386658937,76.2995570976311,978.824538560818,264.849321241209,411.428130213546,253.891695287011,1928.03100831375,64.2189351150136,1821.85765549075,64.5253609819474
340.764194714387,-21.5180868095503,779.171712051235,236.140242074371,401.900060640833,39.7622734807081,1020.49932918537,85.2933365382783,977.697493430775,205.257399186494,531.409719794912,108.665219413459,1215.496674824,152.01174595262,1008.70858314255,210.62223255254,904.414843688478,205.06825215195,208.852412969786,36.724143346521,180.638497359703,77.1823481705967,1025.61161103075,278.236410617205,416.813969800892,252.683976966168,1936.74383095584,63.2184198888326,1832.9831852734,68.0197353089063
347.905563574839,-24.1314982557792,788.026059406227,236.733674647833,403.544719181147,47.3281038615528,1049.52476642328,83.5791296573787,985.228173972525,207.277045602159,543.32972836536,108.236051292012,1234.90879721108,146.100577750757,1035.0596745003,211.462872153782,936.059105780132,189.985103253276,216.771420214242,35.6508491354784,185.499212065575,79.8282384237366,984.086343360536,312.936533520985,413.446783452721,258.35834644061,1957.89628764099,62.275620414271,1847.77601926057,54.6770398972124
339.49254928544,-21.6348092197925,768.757543688956,238.11524947756,401.704723317246,39.3713677154765,995.196993928883,85.2497383921848,953.988664055589,205.834576280075,523.896749368381,108.060912954096,1197.48591538186,152.858263241941,989.088646394088,210.797144048316,903.298717922478,194.638517910653,205.059288058467,35.3126851827351,171.942162729721,77.3442462645435,937.677757209804,320.161993860473,401.119253505872,252.964317598672,1916.95577890647,66.1260793371715,1826.20074871349,46.9104683970291
341.495221255435,-22.3090839175372,780.280814950614,233.050617310122,405.449500724461,38.3999961337924,1018.30037866205,84.3079947041576,966.382644736623,204.635456628294,532.132496341293,107.783150547587,1209.6417317184,150.74075143426,996.674722269928,219.535739162682,913.026309946559,194.605164254519,209.499731402442,36.3842342678774,178.75632622596,77.7320556352205,931.869761823178,321.048272619361,408.324032486032,249.934058432918,1940.39764500099,63.7178218247548,1834.32467057246,58.0956996085191
347.249725279804,-23.9774573349618,786.366303793817,239.012058084667,399.085162883166,45.9491379877973,1050.82960540965,80.7833547891896,999.9109692895,202.454124811262,540.935962326531,111.495581809253,1245.04808783614,143.426990367121,1033.22346448813,216.435499996394,929.626457115738,184.770091920826,217.170443761466,36.2611619485659,186.02282611182,79.5228414027431,970.439388845901,307.455588324963,422.978500690529,249.991706300691,1969.32089294757,60.0460221360307,1843.91508766249,64.6931691309812
339.368205725811,-22.3931004869999,771.92173450712,236.105550303459,397.653753320065,42.6414036859154,998.918581880947,80.9379179835751,947.120949645377,214.849023805499,522.024498843355,109.300498804846,1200.43183109599,147.270837172011,995.569627287136,205.348418558822,900.510104221097,198.752905200276,201.929599680081,36.2105954153988,172.718765633811,76.1836435569179,940.62701091086,289.097625756742,392.848910161363,249.832657260528,1925.84258045569,64.7300241516022,1804.38406501039,76.3966855620418
341.353306009691,-21.8316256934354,779.806769153175,235.175420529994,399.930466042723,38.8403319423801,1019.89183766565,82.239704982128,967.632855820808,204.867961982495,530.244273789438,108.755409196284,1202.45440085344,154.185896116915,1010.13830273743,208.815674966481,899.810110244455,203.06626928451,209.042507849391,36.6916954152135,177.793943049435,77.4737716844207,906.551755807643,308.996001676997,405.260884480074,249.841914789097,1944.61958476074,63.7641811135951,1833.25313010744,53.5230891587673
347.749037849796,-23.4731830699942,793.021038655591,235.737115077127,410.794889330534,40.4092255248764,1049.16804222488,81.039919022976,1014.24465650244,183.668049564355,542.903188845553,108.367837573951,1250.2696365023,145.890263492532,1042.11301147441,207.455485416104,914.034639556651,197.737400970736,217.817523766296,35.1081794158945,186.766708566723,78.7593126417698,958.681462539323,315.368645924445,412.154751852258,257.287851262362,1982.66084801912,59.5490118037983,1878.6620345606,48.4419990625503
339.755488099537,-22.138087588393,775.132146316281,238.927183471222,391.927131166147,44.8558674202358,995.653876873217,86.2935194665456,954.819855013949,210.535126500272,524.207297020582,108.585488781303,1214.01020581776,148.951816114403,987.706263075946,212.296492830016,911.50755793654,191.392117188432,204.202496539319,35.9840987130061,174.841187693527,75.9952977313869,976.280993495781,271.828563526751,393.614058259244,251.251949885937,1944.60944687432,64.2638088661745,1860.27962404219,55.7059367477352
343.190801333311,-22.8779714689644,779.754585101104,239.678584280792,402.607870049006,38.8945584061641,1017.28580644484,85.1587352932834,966.759205841984,205.706296574921,530.495164318302,111.035332142594,1209.10883586871,160.616832943393,1014.26052428703,208.436882170055,917.068578639571,196.85141347788,209.625787256113,36.5738656890274,180.506898822188,76.4627650936527,927.994796338207,343.801953079396,402.996670407059,251.964144924934,1968.01233467474,60.1363326247842,1869.60819861102,50.934690078038
346.680239180397,-24.127237967175,793.43748347901,236.920883278594,407.483225059306,41.6695782086302,1046.84351447209,83.8071288365463,1002.58357658614,205.130952713728,542.349676652012,108.391874869749,1234.31475136688,153.579130466829,1031.29733241096,214.829884343732,923.398118829107,198.239166318036,214.076542800734,35.9690812334315,184.322217443503,79.4085648969562,975.27894778685,332.169630138385,423.501668085147,249.220352080913,1980.02617740719,62.4200883315579,1865.02115163188,56.5363481458422
342.204142585389,-24.2146434368957,778.291829773685,238.860271277369,400.842407958916,40.056761113396,999.823928284815,86.4940386539468,986.051436189266,197.086779601302,526.516290966541,109.814903477377,1236.78182467959,134.711134387689,1012.27509506152,205.237987472017,907.214197703297,204.634908623127,204.66218241132,36.4253932300371,175.577949087621,76.7005493282714,994.693121207094,289.498233722715,409.114691325431,251.767209057678,1961.19975786696,63.112829139597,1861.04121072723,53.0251623419326
344.367570848195,-23.4685517743356,786.315344798022,236.218245085181,411.558151483009,39.9112818448435,1025.33481460553,84.9348679051722,986.68848589069,198.237248751902,533.014265742646,109.155164310547,1231.77625578356,147.548997256727,1021.24537720578,213.602620688232,900.806361516431,214.215899004751,213.51026655838,35.3068685438689,182.125262357794,77.4284891418387,960.201918820424,298.17007978464,420.295993496805,250.321855006356,1986.77360765209,54.3878392844936,1867.83547124858,64.141217881073
351.156553503353,-25.9346464040817,799.419145118583,239.335567889114,415.447027162141,42.160647838714,1044.28727359343,83.653491847535,1013.87488571062,194.128920329321,541.47953411283,108.707878098238,1253.6182395062,145.746433975063,1052.24220575489,205.681804990431,928.716948017368,199.015947312739,208.870769059788,36.3763630788646,179.824145458212,77.8342773411149,1009.04807989882,304.355073716925,420.811866084892,248.574420073585,1977.79628139311,60.1645926774322,1867.64056440706,57.5909173562272
342.095008529592,-23.376818056781,784.712879939412,236.710525728278,403.576015859852,40.7857970212235,1003.61616700322,84.8676570809797,967.207423895443,217.239281198317,529.806012447891,107.503490189761,1220.46492862451,148.377149296042,999.257352623896,213.52323776233,927.655188727972,186.36640837987,205.236522907308,36.3043313293229,176.069533876188,77.4295395307016,943.676768833894,337.867986952976,411.13277968248,255.218782184677,1969.01225479005,63.1028872968703,1851.42746629275,63.5048164730665
344.486703837759,-22.9429502250597,791.415488085543,233.342309557375,407.799180162511,41.2209679186449,1028.04266505412,83.2832063989103,988.634071518821,205.791880128462,538.188623761788,108.608947519451,1251.14842224806,142.294533680402,1044.14219233008,199.839882900672,922.596299916093,206.147446256906,210.840769114922,37.1297713495624,182.356756883091,78.1506575277783,1025.06199880008,282.403800482523,415.836765976144,256.615372486924,1994.9673704086,58.5431491396374,1876.46565815849,53.5288332819795
349.987483416821,-24.1871023297784,804.257324238578,236.533954747155,409.757386892852,45.5083355770313,1035.9529499283,81.8171735968352,1001.38965337471,200.073584242753,543.826172654233,106.685838993186,1254.197187664,140.468398557487,1060.97277384345,195.855528549916,924.286577815054,198.177939481842,207.219109001728,36.0448408403772,176.053839015143,77.9097712421876,961.406857358708,335.608902718914,401.578937674193,261.829913762875,1985.95686193459,56.3921195060515,1869.25740242186,58.7254283567835
344.359872990456,-25.0390469530308,783.866080276411,236.653027858887,406.13268890216,37.3934577457875,1007.18039048995,81.7604655396318,985.767226531987,201.531619685725,530.060242789522,108.23344179603,1219.27625237054,156.276963820418,1017.6806805332,206.816459625621,924.993890002911,190.760985623513,204.953059331896,35.7799795586726,176.173197721673,76.8291463487709,999.269740405173,275.145089946823,411.227126240612,250.156965092622,1976.51452118114,60.5795419828762,1847.93132472505,48.1900372050644
346.09533774627,-25.0049032291898,790.450547852114,237.022120857582,411.19017706514,39.2699329846018,1027.92360819504,82.9146703067889,1018.1943852455,190.447406233245,537.535111953467,109.006092496316,1248.49623978278,137.530144567291,1036.3057514492,205.000087473643,921.558341599013,195.566046527003,212.337464885915,35.8666814406144,184.639432920041,77.9815348692841,893.745036003067,360.051238334398,425.617680606764,252.772459924389,2001.36291673982,54.626865283197,1862.73091122491,60.3804657481996
350.9850457013,-26.3133419126634,802.363054321243,237.176541020169,408.774931913819,47.7275665691436,1020.73969313359,84.8518720356033,990.222440903116,206.858309965985,538.694512831124,109.201096998764,1242.34424110913,147.886111211493,1037.04711920782,206.067103376013,925.611105421881,192.313992573873,204.952588815749,35.9833483088689,176.326278305979,77.3324717663331,997.435579289028,306.566336227015,412.497492260508,249.991649201609,1981.45764658555,57.9760858768626,1853.53946187188,56.5977745466676
341.891013849719,-23.425170461462,783.432812064923,235.953362669667,406.490278963566,41.4784023390622,1001.01070571514,85.8090197676271,975.680312135457,209.416221155285,529.203237635455,109.235692009561,1224.76254772196,145.491999457743,1017.07153631903,202.561898788572,898.910268634898,202.353320773482,205.276565834606,35.5340783986728,174.31702030846,78.0143239980942,948.392319988753,324.900044647361,418.21259043774,246.27542975927,1962.16187753044,65.8428822317002,1843.95056344163,58.7844394857193
346.239641703567,-25.101673145172,790.66224936981,236.693079239677,415.687283077605,36.7334314669207,1031.7553508897,83.9113609362146,992.583948382744,208.09897518902,541.703464385412,108.023439693818,1228.41017584869,147.581697523289,1028.6230035344,214.624671794668,915.491748040685,198.689834291749,212.991766574103,36.0870634903333,182.238141928633,78.8517671932854,931.338312923846,351.925029777488,423.099143800436,257.06175589082,2002.06091472139,50.7064031965107,1865.91594568292,50.1681861638688
351.116412161022,-25.5669958644432,802.55375272555,237.667013299081,413.465942168767,39.9410593960045,1028.65465672609,81.2720168533493,1020.13761405791,197.868011737015,541.27329343498,106.645863353477,1251.50741582923,137.281414808003,1032.66525206815,208.70061500638,922.844406398174,190.200908036433,206.554001896687,35.6555584584008,176.249960176325,76.2634029779661,926.696921723631,367.561548471936,417.90002717084,251.926253566168,1976.62884232584,56.5189211579268,1860.75323874535,46.6050157756606
340.340052724365,-22.2527955528244,787.292870783949,236.8674954102,407.038743123748,37.399535030856,1007.06361448216,81.5949668359496,989.577320265274,205.06051641595,534.159389019072,106.331118370285,1226.5740794554,140.297160031672,1016.90606694362,203.37441728226,904.563726776604,199.585092176761,205.840069578663,35.7509354618735,176.798772768119,76.4035688964201,959.810869612518,289.856960602004,402.700916842574,260.375961088266,1968.46538424562,57.3986126528084,1845.78045942218,50.9011457984626
345.967293338416,-25.7418156973148,794.828140094488,233.578818940483,406.218994532336,42.1237756430922,1029.28769583364,84.8378637138324,998.853804456077,207.787070554513,540.008884510501,108.15508892644,1240.35346114895,145.400988661844,1039.53476606685,203.749414510329,915.860438038549,193.221740547885,212.933558211806,35.7229552206714,185.762383614191,76.2273073401518,994.859440749513,302.255927794722,432.603897070705,249.782234465899,1995.53072474164,54.6514696565415,1868.5770703891,55.7796076257672
346.764884273733,-25.0137933032474,793.77416721088,234.992961319316,403.360641809674,45.305049089585,1007.77002284153,81.1643529617924,994.429217502856,197.3945458022,533.416168199499,108.508434352442,1230.44400805396,142.037876013618,1027.79658089275,205.091097033329,904.62872529127,197.123990246082,202.850579255559,36.7524771435185,174.707207839022,76.6455505744853,932.825811918253,355.313395435445,421.739048566876,248.180693805782,1967.18270907806,57.3461081026733,1843.49294394087,64.1999235861052
341.237194172017,-22.3817564974455,787.859088140316,235.494295565689,405.443915042282,39.1630517148176,1008.53808741837,81.0894318840905,1005.94623441818,190.805200938092,535.909298346227,105.589986447436,1227.02701088518,141.161437501468,1015.9203557365,203.363674940673,895.285582067943,198.996972717092,206.052736467048,35.6852902019248,176.993372670163,76.9994308771556,934.377055994225,319.1045166793,421.299969128023,247.177277813544,1963.43915930664,62.5897578232671,1809.36391412432,76.9666927193018
347.182398627967,-25.4336476061884,800.130973477244,234.555078881151,411.103286399155,40.7016071986254,1038.43052792797,78.1957693802853,1007.44654306097,202.096493650447,541.983313546312,107.962063621394,1255.80263777804,130.946357983608,1045.46722035628,206.035695610646,909.951782299185,202.741702291003,216.330666474811,34.2664167632676,186.79836423046,76.696523675261,1010.20970154052,292.864411197263,419.181378668949,262.745083350233,2008.38131085536,51.3611856552392,1881.84527159444,49.5752758035307
348.948835311094,-26.6301681774633,796.106936068796,233.121505594028,407.153526388911,42.4049063718155,1005.75761940676,81.2511111665344,968.255974114365,215.176198642399,536.662032321259,105.679645351234,1227.60122314025,140.482704068886,1019.20720290991,207.131493723265,884.919746098271,206.316596116907,203.736376129711,35.7117473173771,176.164828151025,75.4331784077594,971.982979371325,287.647263292257,419.366186133761,249.483572052118,1975.04286782908,56.5097286159269,1840.07804114102,62.0729772466384
344.133315081128,-24.5800714580198,788.951073799809,235.743846197894,411.415156750239,37.6438337667344,1008.97700743476,80.2174713140823,997.076943137479,189.545023180495,535.51620357652,106.447500180617,1223.31100501812,133.95940733388,1025.5722296572,203.464796524009,908.311408414202,198.68901114062,204.91653831701,36.3182471981729,177.558605357345,77.0244067393523,945.384380781857,301.771880527422,434.605110931474,242.679642930618,1981.53007051012,57.7723093607078,1843.56088753738,60.4576638086498
349.269676385692,-25.2015604600943,802.690627278248,233.615672319506,419.519894749559,35.2187064395452,1040.68988352182,80.002119584754,1021.4515325958,192.614576291605,544.737172391637,107.448456015723,1256.60198676729,141.601537283713,1059.77178379438,201.956027221304,926.81010739907,188.131135787149,216.346869921812,34.6903195904968,185.641552544833,78.0985218717778,988.216112154566,292.970526114631,437.727459732568,247.257069702344,2021.39044444298,52.3289817273948,1877.55652274305,54.2398843603912
346.441797648315,-24.090993715832,809.369718714228,230.514847524976,412.181790003467,40.424444463159,1007.04867218533,80.8483604235786,995.935232689443,205.053004742396,538.056058133188,106.355420998694,1236.92068636668,142.570947401892,1043.48651589089,194.699112361129,899.353915753793,195.015882245182,205.544259643584,34.5176496184941,176.328126044616,75.3403631420171,1007.60351944078,277.908868802881,418.828781001438,252.202297719324,1993.3047718161,54.7100737447632,1871.34220081902,51.9867458979829
343.208658166285,-23.8784323471551,797.775341535059,233.710779677591,402.640338882376,43.5216607770483,1010.72971040001,81.7616072609379,989.348051251197,201.255808449281,538.32309603076,105.561530861227,1232.98903710967,136.863352812632,1029.97126654588,204.26745023414,908.708197028631,194.738984681872,206.291267970439,35.2238549183971,180.243079815521,75.3159234395988,1005.26504481663,282.271546052854,421.730630535296,253.058055938287,2004.97358191849,53.573229954312,1867.42014693975,51.0521765727255
348.243248269026,-24.5210761345547,807.841673590869,232.753944527454,422.551263334987,32.4950135016119,1037.94424133258,79.4279862110851,1023.78514748314,198.526473484973,545.908266915747,108.100216603157,1252.45753401311,141.587058376063,1058.88910591951,204.434029450135,921.240460709348,192.425039295861,215.102921224941,35.2232686232148,187.622052850772,77.4087225047922,960.115552127855,300.72778941285,447.290607395793,244.525300973373,2034.53735265507,54.7155415560857,1923.49808660998,33.6304067229632
353.630010614556,-26.2979106368898,824.531904756381,231.418119430966,432.812471192197,33.78480190877,1050.25635757556,78.8466884293175,1036.43886670113,194.822454190969,551.260781889863,107.662556555336,1273.20698345545,138.282124766798,1075.09236812415,207.063139437207,924.204661547745,196.205605449039,209.173643113491,35.5995905927716,182.261560172429,75.7237096164728,952.541031427251,358.784777744808,434.221920785703,253.308692359388,2035.30198580408,48.9400301547629,1911.75016489969,51.8544273484518
344.780589446,-24.8081120934325,798.201058782657,234.917745287517,410.233004229405,41.9794260100813,1010.66935595008,80.9227863277702,1013.45347864619,185.480200741089,538.298663725046,107.587731690103,1241.95293702452,145.767872678959,1040.49789612619,202.544865581522,897.58961703507,207.614826461167,207.46466375088,34.7674504636788,180.824295747806,75.8857358679124,1035.12167734782,270.735800389059,419.957436384835,255.894637283223,2033.7718772286,48.7870801159239,1909.7209026553,48.619448854916
349.1182608994,-26.0823057015225,806.540615762968,237.949139410821,416.007490997201,38.4255276051304,1040.07159071134,76.2233863860251,1009.94765318404,202.998405119173,550.617073696034,106.99375075298,1249.68931465278,147.68650433211,1051.98594598419,211.189051151996,923.881074108358,193.12958803068,216.231269708068,34.3058351301424,187.383584140919,77.1597561291448,985.164700576747,318.638799795256,451.091268667726,242.286474058617,2062.48362778844,47.6575526607546,1925.73751389635,44.1802368570383
352.85175909399,-25.2195691525823,824.200757392301,232.243212270643,419.369515783186,43.1373520167222,1049.05505132255,79.233185037656,1021.7619416567,199.294711758803,554.056642588127,106.476145626099,1289.08843071176,128.172199064066,1076.40864796848,205.723647057392,943.814333500829,184.05847819746,209.957145519886,36.0610658128343,183.756019824061,76.5520266731943,1042.35382732108,278.333974424741,440.666588853844,250.086447499583,2056.2666156773,46.7457861803016,1928.95185956033,48.4081756835608
347.775930733254,-24.7932417749555,802.488668001416,235.33923009284,415.304693517171,38.8400396911049,1017.54323065561,78.9465172049595,999.187671734075,210.949471267815,543.072317222379,107.796254685949,1248.02813488111,139.530898908397,1048.21118528466,200.542877303511,925.220007710888,196.241007147943,209.302788084994,35.8439120782305,183.64018559022,73.9763374852062,999.712414757221,300.026109515861,444.813649184905,248.467018286145,2050.59485733796,50.4862630597942,1912.59418359381,49.2278649377089
351.890418552087,-25.768828232645,814.509341893234,232.899104215884,414.603934217947,45.7187169172432,1047.93836542893,76.0377467777587,1030.51225606312,196.570921514367,553.980603299171,106.637903161351,1285.24943052665,132.207744297141,1071.96926890402,204.817814187607,934.008409953497,196.639434102514,216.138391201347,35.6285476010762,192.055855991645,76.08980531568,990.637625406251,363.614710416187,455.83877191206,248.689913390083,2085.81776423941,44.1515882461979,1935.17911383842,43.0757387656522
351.465884042978,-25.6950355839497,813.157546011265,234.91676961828,420.564449475056,40.3528972682443,1024.49431068536,78.8927724918203,1026.06776174157,198.36001644599,548.476553980458,105.807426628771,1269.80282075217,133.001090299642,1055.56234325862,203.606602282565,928.541103445716,189.413860743611,209.944785810006,34.9871151659723,181.259898953968,76.8108369606492,1024.46459195002,289.962420818189,441.411373343523,251.089663645033,2064.36607362163,44.232887219528,1947.29087845389,41.8248510869444
348.90010818761,-25.8395905708948,809.505678063805,231.192768613328,412.42402018357,45.8163038465828,1026.95791321234,78.6711962433187,1023.38260730837,204.406718751356,547.381315650837,106.84798266115,1271.89640787541,130.41892528747,1057.96467503415,200.148693859323,924.384226240814,196.28263999399,211.609783536433,35.4329253640711,183.125122234742,77.1560907334717,1010.22349524245,306.342310522568,443.800942750555,259.198144786361,2062.67449977843,49.0954850166619,1896.47547084087,63.1901131868604
351.395235275508,-26.0329209877512,820.491718726001,231.927768617885,431.422135139895,35.0031210269129,1057.88516817897,76.6903005835523,1038.37937137408,197.219342813239,555.810423321187,108.79478083549,1273.10791022564,146.624880762161,1070.10957504643,211.842478629865,938.356517446641,194.816829977234,221.831210861243,34.0767269475202,192.116893119862,78.246687467744,1034.07053936135,307.044739899306,462.878743681521,249.61591322319,2092.88240543219,40.6800241689077,1959.99452713358,42.7762594102095
350.772554449768,-26.776887456126,813.645897109123,231.214127295391,425.075735227762,35.6521248708387,1016.94208655473,79.152721694093,1029.85662176443,194.80346191883,546.299011685193,106.379377476018,1265.36433556684,134.770546229094,1053.80744283263,205.944111145589,918.369193163037,198.366391701304,211.070645817431,34.1390440510163,180.02527961966,76.4693685169826,997.099246189732,309.481327934197,435.1603602611,261.215654072615,2053.22874674867,48.1687421639832,1898.62687114711,50.1826260436507
347.896932547941,-25.2265709668556,805.733402132301,234.058106596804,411.657946790465,43.3993630962737,1030.35585464201,76.2969497988781,1028.72542476945,198.814173218056,550.702441053315,105.604293883084,1250.94380357562,138.125472265183,1060.29033903793,199.851483944625,927.702386794037,192.59871563185,212.843620514064,35.2926113686649,185.012426951017,77.0137838310197,990.235011067575,311.41536813372,438.908656712519,258.727143974213,2057.96686684593,46.9349200725409,1952.09314393337,25.7252652053346
351.192170838353,-25.8525097043748,816.133386248746,235.082102503067,420.682173167161,42.1503178080771,1059.05632521553,79.3271516944272,1055.98111116877,191.376936440743,561.882407805299,106.289764112789,1278.78408820655,145.170130048079,1087.5246148453,204.864509086985,936.914717636527,193.473108025479,221.522118816564,35.0967948186028,192.670549598859,78.9045223913903,1121.9052662408,255.059466989001,454.842740956498,254.869149096979,2088.35676353112,39.7737314095793,1959.05290620157,27.6884480937133
350.072725115006,-25.4286820517998,814.783017803046,233.052406188112,427.936141816563,37.336983051061,1021.23409307853,79.3717932113023,1030.94086606076,195.588568508845,548.41865425271,107.203856764659,1263.86401876398,140.241793176295,1051.21397290342,202.639744208176,924.209696560086,195.735452525979,209.010916113766,35.465931232265,183.287740066651,75.1208807568439,1044.77114134063,286.580279508309,446.976745405737,254.210355294813,2044.63445564328,44.2629718458844,1894.58388185225,60.5222021829037
348.00107491609,-24.6489923528435,808.907872380401,233.218784076737,417.205541654114,35.0441788940401,1026.18026111849,79.3674065641042,1014.52963766041,209.396380378231,550.089011744687,105.800504034679,1266.89945541751,139.841705594499,1065.43546405082,193.409628859977,923.906844147973,194.608692900294,212.644799370671,34.7979676816585,185.587613893379,76.3331964977218,961.054259698977,341.790138420618,442.88359203264,255.887338343805,2040.39094860115,48.8263566621957,1902.31738301537,43.5228865401396
352.70992076467,-26.6712823368716,820.262258369597,232.680907324122,428.995882701539,33.4031359081926,1065.16305031626,74.0549264409889,1062.53934606387,191.488447687773,563.009889717236,105.450442019557,1276.15290347135,140.224287851962,1089.8739684906,201.565933724728,938.538668514766,192.466682404572,221.446254495353,34.9927383307844,194.454736790649,78.1422861706924,1046.13112189248,287.604681052477,470.600358293762,251.761200965367,2076.5342165277,41.9437392846934,1929.71535792979,46.6868744672766
356.814279550601,-27.0897235912351,831.450686384069,232.657314753762,431.34064694391,36.1764492798349,1056.89290839034,75.2465279260588,1053.96823460248,198.990582777157,563.367939325794,104.640840599607,1277.53754133659,139.871683689588,1090.07121832322,201.949136245449,935.568119658869,194.626408181616,212.22122500634,34.8881012530031,187.635030841502,75.4258647497678,980.051443521493,301.282826868714,463.556967009816,244.84299845379,2052.07859300717,42.1434688304225,1925.35010212552,49.3759458734652
349.432675507598,-25.1009448907098,816.386590275089,231.108181081378,428.402760234341,35.4293304545507,1035.06161371058,75.7640060524798,1036.93327914381,196.280111173811,552.525935045589,105.757252467282,1258.94063673603,133.623007061832,1070.31623532574,201.713091990817,921.173850721338,193.903260935004,212.055395343921,36.1436069119085,183.188747363034,76.9574511884622,970.405202837359,313.611964962396,454.269950675544,253.074632119053,2033.05164164377,49.5772256638475,1894.71134328223,48.8701324789635
352.503519173596,-26.1056105155169,825.208205119008,231.478876479713,431.139656309991,33.5444224228853,1062.5352274671,76.6632841220839,1065.25370208424,191.980603049662,561.399231404135,108.075209058054,1271.1714705509,139.033940977496,1086.92695190698,205.126535678053,948.604658519577,185.733713896833,221.08283934607,35.0102605694277,194.109788754545,76.5655892082968,1059.58325181267,304.417874412346,465.410536588102,253.15133839158,2067.26463769756,41.7724766346936,1925.16721420222,32.4038988118664
359.075094920011,-28.7188157348485,822.57455503589,235.808937338877,423.147974910306,40.6306872086924,1043.43720582879,76.2253420648242,1054.19208846973,193.720845839934,561.140169451877,103.973830549545,1279.94431569044,127.505775268652,1080.60607809995,201.220900264432,927.606705049507,188.575303004999,212.175508902949,34.4583284263272,184.629871777119,76.4726752544316,1031.22256554174,317.378040917641,462.438099714222,247.915837447389,2042.84643864102,43.3406364615731,1905.61947821133,49.4708917250863
352.366456515543,-26.0362363913607,816.251234512659,232.60632708607,426.73301575278,32.381743531466,1041.18257280477,74.0484810607465,1038.777021717,197.936135329787,553.259358981267,107.902078139865,1260.14185486269,142.094084621201,1057.11596321892,213.158879169691,920.779668506986,196.174953225246,213.113377994827,34.8933926760935,189.175303685408,75.3545737748151,1063.9249947476,277.631749811369,458.261558574183,247.342157984181,2039.93263966078,45.3055713965271,1906.65173815894,50.1128772153759
355.826121152229,-27.3692498035223,822.150663517849,235.241240364025,426.752363974527,33.6233317252953,1069.68964678719,75.3044198242496,1065.16408559646,192.898415231123,564.915770194953,106.562779823658,1290.32255325502,132.609770239493,1112.36965529844,197.070100996192,930.806758694266,202.957303745142,222.731298725769,34.8469441366495,197.428293770722,77.1733844563292,1086.37302275136,243.658224402426,469.155730597145,251.016598118744,2074.04878607931,42.8730196198666,1911.23659909865,57.0518974133817
355.509572610792,-27.2487914814488,821.933998598993,233.499712693837,421.707110666422,41.4921356493375,1035.94944683228,74.6598456668804,1030.41162198338,200.154253394359,558.496959017468,104.63695147778,1276.33116739321,133.571224441657,1082.17560729267,201.680855923034,937.142034511069,183.52519621078,213.294441928442,34.4832377493464,184.698293093353,76.3479946903622,996.816016605255,316.773163683383,449.567932537393,258.32139970912,2044.50201105709,44.6346197186291,1912.4106425001,51.2878743829806
354.018055678777,-27.3638256501831,819.594665209147,232.85964829695,414.028175930042,46.3200556822136,1042.68673350104,75.1201774348474,1045.62787929759,193.786255179002,557.679971408987,105.004523948566,1266.49681658035,139.070945789949,1076.53606236794,202.642653752693,898.834108071192,214.269244329239,214.733985447061,35.0807149936364,190.247773956391,76.7488329492553,996.603310373862,334.510509942618,453.0825639421,257.068604155339,2049.46279172845,45.2753029442144,1931.62670168864,31.6342371555543
356.781810261637,-27.1621604113464,827.885427434676,234.639152294777,426.236364852407,37.6268748605966,1075.64811569886,74.2153472643301,1067.93694899757,199.869305049096,571.044667621791,104.784570483719,1299.36040537518,129.893517115498,1119.25110454814,196.164061676119,965.229488193926,176.21690407422,226.642834090833,33.6841659102586,199.831915949209,78.7414098852654,1047.52516576983,298.471939731746,471.851569968852,254.06390566561,2087.53558143076,40.6537252375062,1975.12639481615,27.4533635244009
357.542713881637,-27.3937792260571,829.559431697059,232.466081770627,432.228808896692,35.4243742645375,1041.96218461407,75.7959515856697,1040.73340389483,199.61335344537,558.524354397851,106.426698189464,1281.53386090402,138.536540896846,1083.933557988,202.09785529881,917.843521035361,205.277094787001,213.209992014014,35.0179273773494,186.825552991055,77.2767805965741,1004.02770154029,316.677179865814,460.621762240482,251.172317738617,2067.86606322603,42.5041381566954,1932.1942793887,44.2394636673013
352.673539812917,-25.3875897064652,822.090593701873,234.005797266627,423.580624418705,39.9397599922595,1041.43371632539,76.8179249278615,1042.31813974635,198.861109392981,561.523160231762,102.837148638771,1265.38596778181,142.235761117406,1088.17227378655,197.740604779774,930.40742142862,190.739877249095,215.131587931552,35.0753785999938,190.259382941826,77.2830445510371,1004.59314145011,322.463976332307,463.509961332417,252.537233457959,2073.02787635547,40.9037611979466,1946.16472486842,32.7554213834249
360.080552341999,-29.6158027287907,832.337729584398,232.847641175675,426.168870334879,36.1618862925611,1071.22880440582,76.3738549915091,1066.94783364646,201.620906838155,573.162991248909,105.20506815121,1293.376383197,139.486866095746,1119.52391304691,201.243626920219,938.456665959838,191.811263391433,226.29807032028,34.3346706508362,202.349990284635,77.3085732494774,1027.43233617053,322.799053146899,472.848550744986,251.348374601417,2105.34896469639,41.360697160593,1973.8194476299,38.0273305228458
362.21337390885,-27.9119990605752,840.909397963523,235.089705970923,442.383161917964,33.2562078815372,1065.16383853584,73.6759435989164,1074.79601683101,193.223978678304,571.563043303651,104.078013901562,1308.45956906265,130.196990059554,1113.56160970141,205.106748004708,937.389194527568,192.108121193689,218.21999113826,33.7611194182409,191.64018615063,77.1420208226266,1010.50932501756,341.37507516082,472.449049716193,243.995527532167,2092.68427561396,40.2192051550895,1970.76938034196,42.0476125047242
351.951312797384,-25.4841127878128,825.607003792837,232.635488403026,433.974511571864,32.8495395031635,1048.50908727092,75.4682865506417,1060.68591790521,193.694613954547,564.615136130234,104.370045258731,1271.93704317346,138.815231860589,1089.4017626029,203.234010306182,936.948203638258,192.485714941506,217.167218802362,34.5815990859093,192.425789512038,76.8040667726673,1030.43021134336,315.832931964577,466.66944452612,253.522139377899,2100.4379010396,38.0383185780587,1975.87749993316,36.4561485953841
356.061415366531,-27.2255673795274,835.26582165702,234.330360458506,435.087147271336,35.0328115067744,1077.82442540121,70.343313626731,1082.90455152324,186.265026227775,573.365696041531,106.714696961323,1289.12346926632,146.786763373624,1121.13087632547,207.247706187774,937.428001019004,203.608579421728,226.252091696256,34.7096082657125,199.448297182343,79.5389833072781,1102.97469011255,287.946337999306,469.422691759124,252.295550716741,2128.80660513575,32.6856031444601,1996.1996401465,40.1513392886258
359.919560594789,-28.6194403794572,840.374635571584,230.733411029098,431.399259934773,42.6467429479848,1051.23818761605,75.8842823297761,1068.2113727457,197.315331230448,571.14228190709,101.821594378747,1294.10996379652,139.912482908037,1112.7018444877,202.014342212704,943.197514528546,190.943908191637,217.015065846,34.6989121541486,190.665725699819,77.0024685067141,1082.8431127935,287.145847175477,464.489071808811,260.964194019913,2124.1015428304,30.9927324915605,1991.82840688234,35.4729462719373
354.058314266721,-27.2295239491046,828.15673395463,233.931710754369,437.119167725006,33.5029835667472,1054.2984698784,72.7679811779994,1061.01948771393,193.481348689792,567.476171865251,103.915913849918,1296.34990878546,131.166600513476,1101.3045748083,197.810690131301,941.267105630997,197.66339604955,218.685098945276,35.2105025238522,195.75125288612,75.8685517985247,1072.37906289158,281.946376827285,471.395613899301,254.151369903698,2123.9764080165,35.5825904229214,1987.07177089648,36.4402381339065
357.557858124472,-27.0201897209389,836.906720098155,232.111352816431,442.618978759445,36.1134409047842,1085.37496287166,70.4524709496218,1091.28095714292,191.878392455483,580.289385197923,103.219737310399,1322.52693637048,132.450971772195,1146.5259961039,193.950473973615,953.771981688193,200.348609320403,229.212860431896,33.9296765983382,204.963703151966,78.3203465007551,1114.19434747488,284.113266303431,476.84056129185,256.925248752588,2162.06038438364,30.4872453254946,2015.1517283652,43.3380913178463
356.42755497952,-27.730682493138,826.402196571259,234.73028741473,431.272966252112,42.4799557910269,1045.19578636678,71.9933358863159,1069.45184292035,194.549238879312,566.314952678821,104.166688017282,1296.1463328039,132.338401686104,1112.11423071055,200.906456656943,954.134142844704,190.097836900565,217.572741866285,33.3350783083821,191.180384813212,77.3422195029098,1044.52583186111,312.768173039806,482.811338278407,246.505433698935,2131.89329183099,31.9383801798019,1993.45088184976,45.2438775462494
354.227177538545,-27.8763382518048,829.545728293472,232.657219362041,430.441358933009,41.2843862370379,1055.25018193943,73.0342588089125,1056.74175348037,194.948304401438,570.925609116413,103.34945224477,1298.19974683378,134.921991925659,1117.74084339678,198.192557363108,958.193059279685,181.923364852977,221.569736399069,34.5592055967962,196.428566981104,76.9655273949585,1036.24987385916,343.277906340357,483.520616995378,254.917304468929,2136.94785551008,33.8973079562108,1993.04232511243,43.5249054489806
360.534649891298,-28.6397278036497,837.728732333591,234.201686770545,444.023640998415,34.8460710658598,1091.61886151975,68.1788407264358,1094.53662275736,196.1095757315,582.563582215182,103.641013871283,1329.96169561631,125.009393080586,1150.37077091903,199.914838978257,966.130889724048,192.16229137975,229.366814945489,34.3148810909271,206.423053676931,79.1288384385795,1012.01206219759,366.540566871771,482.765844308271,261.10160114844,2161.8849807787,35.3210468331797,2020.66694564695,41.8262032084377
353.897486547921,-27.436732647484,834.063532874304,232.231273804217,434.823630179095,37.2163724287876,1043.49229871809,73.0402468592161,1076.3945880381,189.00184785302,568.069265881621,103.744341146126,1295.67496150599,137.918824984884,1103.76797219727,198.165213763118,940.979117267188,192.765109325305,215.304888437679,34.4738575298316,190.729372484671,76.5195546256677,1124.65239359823,294.706962374666,464.49721531616,265.294395360946,2126.50772888868,33.8082214186236,1990.50831580082,35.0161179656686
353.442336949473,-26.8980674884396,832.31223479437,230.293751721876,443.052163489704,31.1168602238823,1054.18717790869,73.1497892457909,1063.6442504159,196.605168981329,568.998984319435,105.037252437453,1299.09801574148,129.620001955009,1120.56072720762,198.890633515918,946.560617730846,193.775880970368,222.053602755681,34.2579654876936,198.783825025547,76.9300371356754,1106.8800284539,277.605483858209,475.744596102763,258.999843072806,2135.99157212477,34.4758125962923,1992.54498060526,32.272467816422
359.261121978262,-28.1475689074445,839.691559025231,234.472750614868,446.252796897989,31.7043304889282,1090.25640797084,70.7277294800599,1095.15677764077,194.939279464584,586.768087316426,103.51953664856,1339.12018280931,130.415598687881,1154.00570149498,198.070407865457,974.388211261416,187.527962496873,232.844924901807,33.4819621994013,208.144012859608,79.0656727857398,1015.79789993826,347.279275192829,484.544875598204,262.627852816819,2167.81238344356,25.9872692666974,2022.44412667622,26.2488856211077
352.963525937334,-26.5994754400902,831.969512104963,233.238168082209,437.423932862257,39.2517319584687,1042.40514026036,73.1753896735121,1080.13865726048,187.186371152715,569.169580517974,104.100902634278,1293.33208861802,139.385885336135,1110.68892929423,199.378697583361,944.688385490464,200.004339509757,217.200411170819,34.1286469600634,190.932709639154,77.5297312767361,1027.43013734109,305.135318588914,471.686274660698,259.357380304876,2119.97134990265,34.0321789766018,1993.02634309621,35.3434935020317
353.145074200438,-26.8704332520073,826.823297353534,236.335174035745,434.411189590156,36.2376735264671,1058.66978356265,72.469978233549,1063.25148529096,198.928727730899,571.120649221751,104.410080122561,1300.40759662142,134.401487382555,1121.98863957554,198.549318469677,953.06034327457,194.798105534008,220.76716589466,34.6591269752336,197.397225625707,78.1622892480332,1055.90171427351,311.782971911148,479.48202338136,261.453681792825,2133.98363538409,31.1920517725914,1999.50910460801,21.4848617331497
358.482256029071,-27.8745414433297,845.220771598221,233.410803078586,444.064600654116,35.11855757262,1093.02848863262,70.3273530470489,1092.50274715671,192.096217135422,587.488453599332,103.549078794259,1322.99550523861,133.322783105972,1147.15881840377,204.919667293774,971.35696618751,188.937112348855,232.995539264564,32.9356644637509,206.993261268937,80.2102203978274,1087.87357847871,323.753359587128,487.571963879723,262.20547051362,2160.5713604989,31.4682454512617,2012.89725627425,39.9240189479339
