361.419767411429,-26.8885835681742,796.255269922393,248.52085071168,410.201672763841,45.0424320521152,1103.40086053344,68.1632158213698,1018.44203836726,217.48357172781,572.690018590655,111.175253723353,1215.01991505907,173.333540794579,1026.50949152999,223.308395577716,913.43458851923,208.867321887285,229.721406865748,33.1849196214906,197.962572197156,77.4130174941379,966.918620803725,319.493710806094,403.880465616733,262.752972086916,1980.99845673627,68.5980099929962,1829.79197713036,57.320027592683
366.225315609415,-28.2322583571822,809.448011158472,251.972540076096,415.507393943949,48.3582996049141,1142.39648574038,64.1032505806725,1067.40762055456,208.395750461404,587.817870898618,110.326813253667,1270.54584936916,161.062592370711,1057.9837567514,232.891703886533,943.390389977325,212.822364008977,238.953105380236,32.5501743745964,208.499223053267,77.7190502768115,945.870164263364,365.550042728796,429.276456600575,259.66811101752,2023.734363474,59.5557191183983,1877.47991332211,65.8528179247827
361.37921151444,-26.4436692573044,796.188236923197,250.279422684474,415.333655114437,45.6710035116335,1089.49822534254,68.2321482073521,1031.59608161362,206.822953862896,569.358681769651,109.895972745693,1232.44224841027,163.32984947991,1027.3925128858,219.525445508954,913.480274518675,210.444288308245,226.925850182404,31.9457934793649,195.273263706883,74.4514502072098,925.389646225001,341.784602310754,408.960907591026,257.576198681636,1979.00806920337,65.7778852925703,1846.55416588413,66.9932809521876
362.180519577993,-27.0885405972354,799.170385005044,250.213199304946,404.508249563217,50.9747223684795,1106.31831540603,68.7293718984746,1034.68206331912,216.548157398475,573.046522278632,110.503987233635,1248.17135091794,156.988649596233,1039.78023908126,221.827513803208,911.986262236728,216.526042929184,233.04894923204,31.6431221992235,196.984512252407,78.2889979444046,960.196217879175,323.228407139931,412.70101426218,258.61954256657,1996.83949665071,62.550217202144,1855.92350872281,60.195089293149
368.417496788051,-28.7765943363999,807.771917409558,252.624591428311,408.548803899928,50.2923795906056,1141.74524894219,63.4103057111058,1060.84155133469,218.347195614789,588.119241856779,110.759594687862,1273.89865291541,170.807753296326,1065.14699231295,231.405629685237,942.955539273751,212.605684119957,239.313364472684,33.0237491901682,210.606608456028,77.4913669543202,956.894680779122,366.879688335691,421.078006964176,266.534314618534,2037.93276677696,59.9260774100669,1892.51321237685,62.2194191837967
361.115676316991,-25.1462448352704,800.523781202082,250.194655245099,410.691386747953,45.1922113513677,1087.12928556315,71.8629265117196,1045.16083829201,210.341826883249,569.242771353383,111.332744983897,1248.31759761763,155.354034801533,1030.10872312991,228.138013208082,912.683226474149,216.35722019158,227.981612083413,32.5195232517639,195.596264399973,75.6805059209227,918.766845509596,409.605511395812,422.77146399564,255.93110207127,2007.8860590128,60.2352916426816,1853.62052589298,60.8137135940762
365.309671001275,-28.0487884050644,801.063418314868,251.96048582542,405.54415505911,47.4799674560715,1108.74503841484,68.3464569596715,1052.45233504938,203.669844567018,578.655323565058,111.009958134884,1258.90797735335,155.727625896808,1059.5900227167,220.085095300107,930.84723960338,212.38934717494,232.854938145607,32.8021178652255,201.143902965927,77.656557393698,1013.56659046133,313.391402737601,405.511709550197,273.565617043416,2017.05848956982,60.8678924359774,1858.04649583516,67.6082204229034
368.033090412013,-27.9802599957676,817.025548853084,251.952566726526,427.537359964872,36.1350516679966,1141.21801459768,68.8132469362102,1070.19538493337,214.271776099377,593.229472699865,110.988884610761,1286.13489832678,157.493207884623,1100.94474254108,216.391442196417,944.582853692891,217.640251958916,241.972089542575,32.5791495053622,209.641314345391,80.3914944883344,1008.99631882763,374.932315187206,432.426148851521,259.341435159602,2055.31497288029,53.1423543536785,1895.96516473553,68.7601366971279
361.534710112074,-26.3454938437702,799.509833324927,251.401022674164,410.722918448343,50.8513442120357,1088.18837160404,70.515940391579,1034.33043045696,215.621418983791,569.688553619404,112.264601450935,1236.46208610674,164.017320073761,1034.25016316575,227.952217376019,920.573214673616,206.881959403262,229.147664921095,32.9690638242752,194.800304382564,77.7045070284885,1018.47183759445,301.762743040299,424.627087536671,255.029761564392,2013.1899623221,58.9049008928627,1857.99548190059,64.6702246463182
361.697198620209,-25.897169489771,805.994407678745,251.600041525001,414.164574461961,43.7483894412569,1110.57976771019,67.24400637656,1060.62939106577,207.13767838131,578.335341741421,111.697797329396,1248.35461266282,168.72075431126,1049.51913505032,227.753478861733,928.962889941241,217.065936422971,233.358266726849,32.5150946591907,202.479033882597,77.0968212054811,1010.1814658596,284.76949831503,421.525037250824,263.439359700283,2024.76388449524,61.6471838543206,1869.41257474426,59.0936200137368
367.630406436365,-27.6045045209262,825.640616821606,247.426467951148,418.408168936833,46.5873029130854,1146.37677990231,63.94198159096,1096.33393039307,210.088038870853,593.787910959022,111.333750083496,1280.34504001063,169.497346301912,1091.04579999344,226.171445681154,955.858666075588,213.974678308009,239.571231132047,33.4504792891565,208.729474930618,82.1822674629521,1045.29326468716,300.243381570385,432.536061643605,264.77454945619,2042.41765187557,58.8134762508495,1876.74157160381,68.6823867198289
361.101355787005,-27.4371276500195,797.112802912249,250.676869229379,417.189924087592,40.4534891989344,1082.4788691771,72.1481250731022,1034.56824940292,217.615407265011,572.065107196105,111.263174174728,1234.82055107836,165.381330242081,1022.84631585702,227.43987894904,919.624305251897,216.059429555979,227.68412918339,33.3223187532416,196.591616518724,76.6632223733689,971.285466677559,330.644979191188,409.235586641078,258.304750794999,2002.94683015881,64.281793327785,1862.37969040978,63.09224501779
363.019475702366,-26.8990153938445,801.865812375151,251.66820740624,405.474709282095,50.8341030532409,1107.1891053354,68.986003267184,1033.00379069086,226.173792056989,577.007406558315,112.509025167694,1263.55145381424,157.547314784259,1048.09494584885,226.600019356624,930.578307688512,210.850633976677,234.129535142904,31.881323830191,201.588798965557,78.5535812586004,1040.10490117892,290.221170890106,413.426886312299,256.590536425441,2028.32905121309,60.1577049583399,1865.78385214196,63.8191129262571
368.50534883549,-28.7977459335141,820.452234366287,250.726646260579,421.827793237085,48.5411247536212,1138.33665745493,66.7560669749501,1063.22090899884,222.66483076695,592.547257196896,110.683367686239,1274.80784121575,168.960362914623,1087.96730101613,226.651191129552,949.864442848453,217.533111890805,240.906728566483,32.6267092201632,211.240289466181,79.6040158104414,1070.50716607833,292.931612742783,429.012433186373,263.133744113748,2046.06868901036,57.5876389244368,1895.32027150198,50.8715807047519
359.707360856471,-27.3568773642907,793.941434721332,252.092271639942,405.975428357712,45.7906486423458,1079.69267811425,70.0221544788986,1025.66750187085,211.951928837292,569.37283939607,111.566004847098,1234.01986403021,163.560274923756,1036.33040822855,222.946080131038,928.170053013884,210.287255446667,225.509940262854,33.2741276049058,194.171415028011,76.4979681979118,953.556323580413,321.557510780069,408.523825799815,263.153243223719,2003.00266058395,64.8164027555545,1850.24621107611,63.3944887437469
362.85598184398,-28.0963794985714,798.621445015236,251.874623080635,408.795887475919,44.6269313527752,1100.24448599436,69.244779318744,1027.88869704523,227.042238761246,574.531830992429,112.777530010376,1242.0894226057,170.22259675311,1036.98024644598,229.333965492992,928.344010320217,211.06759138522,231.889058702393,32.412465147397,199.766737748566,77.978043776939,1000.89665643098,313.784531528925,421.893798431346,254.460285228064,2018.24767559613,60.5749217616246,1841.53626904059,68.0927932451375
365.365982344598,-27.0459929175803,810.91826714821,252.899621846175,422.122779430034,44.5804094491567,1133.43758674444,65.8389981506865,1064.42986011353,215.1873188669,585.602952684437,112.876312635766,1263.54937670247,166.956385883395,1071.4545091788,227.711279499165,938.644375021356,214.079979221312,237.461236654331,32.6190202625666,206.304850635733,79.460109794888,1051.08452995687,318.350732108611,425.375816970215,256.904042108161,2022.92522128329,62.1700800538759,1861.53134128333,61.7146835976445
359.064207569496,-26.7153286433937,792.730703929953,250.413936792838,396.049500003746,51.195417908183,1081.46999550901,67.1598758412662,1014.37367956332,217.504495551159,564.320233450882,111.799076133858,1229.71684825133,168.398441682819,1020.82534753611,223.422555276027,919.895662328207,208.369513224347,224.739011485215,32.5138322955226,192.783728788667,76.5211587645531,922.233996237132,331.957152629548,412.560228621747,251.654286785962,1995.68205583056,58.5030638835732,1821.10928387281,65.7645916981861
360.944705225052,-26.5753740768027,793.392823205322,254.23175884044,415.352076355968,42.2868243584007,1098.5910334438,70.2572609800997,1046.66613436203,218.429214870474,572.115218691206,110.677886568748,1225.06430428687,177.816464390128,1032.1819437226,228.496231588171,911.231407730314,219.065757930734,230.33915190492,32.7468891610954,198.819618047198,77.6346621086689,994.703688467444,317.535944302411,412.842498999303,255.689656789726,2013.88556206233,58.4598489206136,1826.76719788269,72.5198119190772
365.757441495942,-27.7279995298668,812.317373494321,253.014634578732,404.168058759588,54.0957174792741,1129.20655369734,66.8300464532829,1060.09715709565,219.175459935394,578.348387921391,113.939341762992,1253.57643606903,163.454348415595,1068.80964671915,230.233876722014,934.825888587662,220.330575180933,231.136661805986,33.3544042353237,200.899143792885,78.1146786252203,991.398803388442,331.936940214739,415.582683788576,254.71486443142,1999.81134208889,63.1417280729807,1845.36322656993,57.7521832713975
359.692429968701,-27.1640057141854,794.291359349692,247.640101674594,409.36661322603,44.779812514991,1078.34710397838,70.4084182530608,1017.57645686207,226.310105814574,561.405786239959,112.457568814693,1226.04327880541,165.537778987066,1019.79670536664,221.395175728949,918.099144131598,210.42762751559,222.729552687034,33.3400782618871,190.792400453873,76.6372450094813,975.826095895587,316.357876496201,402.301333822218,260.03500116988,1980.01037346358,64.4930840020788,1790.99044494603,77.0385771217674
359.202763541851,-25.510331458659,797.398078319332,250.272617697433,410.626791575544,44.6049329348066,1098.15184939901,71.0314151605771,1054.52088173067,207.637521659497,567.274737812719,114.317936548104,1231.21608248004,161.81249416707,1020.82650790988,232.810353814543,935.589312995312,202.015251963406,229.048086010192,33.178333281422,198.423965419684,75.8340031884136,949.247923566373,379.426945450172,411.411474696778,255.046099832315,1999.53496505082,60.61452272494,1828.6993331599,58.8598761985251
365.807754109934,-28.0012112390045,802.602997561582,252.181044172079,411.346909186788,45.7385135561827,1084.46832565992,71.7265271625705,1003.09133136648,235.658298029237,564.327779848142,113.540059372664,1223.3661349428,171.538652274713,1020.71332891393,227.858545319506,903.842566043818,220.441649270024,221.681517461832,32.6024622059832,186.706795646998,77.8373120008919,956.859264207321,339.288752882949,394.965326949013,258.693037242309,1976.81413847954,64.3293184028953,1780.04479437106,81.5860470859969
358.330441593574,-25.7231777526993,782.90989873403,255.540586040752,405.773274834513,43.5466660711081,1076.31813576672,70.0157445903672,999.944030546592,228.348503611639,556.586739177775,114.551612476785,1208.2714530725,170.504274365716,989.760109757842,234.181156218115,911.719965470224,209.47931572297,221.401794906101,32.9209951703535,190.521536691505,76.1693043097375,976.781141646137,296.834729966116,397.413068996105,254.459944899408,1973.3709336276,62.4414413804958,1808.4584434647,65.3769884226844
362.791813604897,-26.7839303815383,797.503664183756,248.294376945426,409.693016501876,41.0051160845008,1101.97156765165,70.841093853539,1031.24814049438,218.949202732803,566.765945393138,112.459978188738,1214.76535638918,169.174353558214,1017.55079649958,230.835998513255,917.516426476136,215.730501785739,230.105227792319,32.9900935981776,196.774036524542,79.1372120801127,906.541191355238,352.303345199477,396.084128775525,259.401334589198,1993.67611015206,63.9774469060352,1821.91478385631,61.1737264117033
361.003196244048,-27.5422350727912,791.528376483002,248.822375330245,402.234481358602,50.5318527434198,1065.30364986566,70.8955360001803,1001.62960045949,218.187255132032,554.944115669932,113.081008513375,1208.17461758652,167.096490481652,997.790676399379,220.813580830074,897.870076850101,215.495549010683,217.810245893242,32.85979981365,185.661476223924,75.4927442285632,941.000322711891,319.441223476948,382.017326227825,262.297908942782,1953.40759446482,66.6205425446003,1760.66587897504,73.9731717146135
359.526788232849,-26.9209833407188,783.892547001578,250.102914013857,388.054134300763,53.7117857501726,1075.46515851563,69.9305619182667,1003.81078271647,215.536810537486,556.750087746567,113.727234745751,1187.73618099008,172.735983746862,989.75131822718,231.842154679098,901.77373798095,214.615531180858,220.675210871649,34.1764937816351,186.155181399912,78.3141314334641,797.902298722403,386.002770991271,383.359193218375,257.607142079072,1965.28001512368,63.5566260564571,1785.02301725975,70.5665330214966
363.268234985938,-26.8563109884596,792.566413139668,252.874896810686,398.418241957197,50.6791638421314,1101.45820172742,72.4450453065613,1021.55943288682,219.016857435217,568.227824959466,112.839684548582,1210.70442876294,175.824206465311,1026.41381492006,223.076758546117,911.121152948129,220.469655864708,228.240384862484,33.5571529624237,197.636842937381,77.8512032679591,957.933834259449,349.595760451924,391.106930724143,259.952946843242,1995.49388246161,60.500837101726,1831.21223550799,60.6166810739822
359.168511888685,-26.6782945547802,779.841336266822,252.464073672868,394.216898172094,50.7271045079984,1061.91250870769,70.0533281742766,1005.57955485483,210.803993079937,548.123559952328,114.464220766382,1178.18046053138,175.638931823013,991.545256390224,217.274185150261,876.23193820034,221.567330888438,214.683460981496,33.9273289006005,182.082215032661,76.2306673052225,920.187233279334,337.801742983445,385.605305033425,247.499260444127,1943.45990087823,69.6374185614242,1760.44833779323,75.9675500201855
362.096224895869,-28.3432038972927,780.16561984087,251.637157287901,390.394577369522,52.9112865941617,1072.85343314153,71.0239640393189,1005.65083079921,211.365571343824,549.190503695549,115.100311763402,1190.63337134431,174.911385314678,990.18296011951,227.025641735748,901.353732716051,214.682014424975,221.275001834062,32.817502660242,186.001952404204,77.043480046647,871.582723631866,389.496145261162,388.428648345888,252.598553793683,1952.75130068923,71.2459345621479,1781.16692734549,63.8131836341942
364.69635984375,-27.6278705821276,792.994834722152,252.373438169884,393.480263118698,49.6215891744324,1102.44869008627,69.1961154792224,1015.12056061827,232.946555015353,561.59347616161,114.159327298663,1205.80673200074,173.504344012419,1020.81934262643,218.307070182941,904.946409248976,216.833117426687,227.462313972517,33.1894379873674,194.955710515933,76.9385341373621,915.196918715735,329.073517630274,391.191138347803,258.755385134928,1988.8480463968,63.5226076790463,1783.16952543095,82.4788125240336
359.031682641221,-25.552630961275,785.087481581122,250.004939692731,399.585108486516,43.637287921413,1055.87520478223,72.2726156703733,985.455151457663,214.101683187974,542.065295511772,116.637208684044,1187.15234613681,166.708796990191,967.560725714816,236.29906950795,889.643381088787,211.487209029322,214.310247987291,34.3048274877355,180.188208433378,76.5073188975499,909.550831297912,320.769215145763,386.203644307751,254.839026385557,1948.97478372006,67.5197283000661,1766.50251650566,76.0241557489158
359.284176208958,-26.0275015328279,778.635099508552,252.374418370794,398.580242363224,45.8031225433488,1071.43481004302,71.4875056690777,1005.87789839903,215.111353241631,547.208960885055,115.508272946101,1189.62845377903,170.31011418114,991.593909319554,216.844661380172,896.727901476706,217.425659025265,220.045838625769,33.1206852287121,185.730211500887,76.8374870942631,912.259427722309,344.325768183783,384.708558260998,254.518444041989,1965.95958659664,68.5540043606934,1773.08189701174,70.0020728529214
364.591207490699,-27.7176365024291,795.39127388743,251.993833275481,389.106216273431,52.3376312947723,1104.73824859596,68.6718486009451,1012.71716906587,220.721614249199,560.62538280729,116.126234092958,1196.37869585451,179.418502497838,1008.48176073563,233.161186161374,900.841723597178,214.854402796704,227.774375046874,32.9845506420366,192.794562135715,78.6743889991828,907.17854091405,348.661805782244,397.552499616407,254.824557432823,2005.16101319046,61.0738011466037,1809.67996204749,78.5129336889042
361.767935560165,-26.5720637072103,784.766059355372,252.294298388856,397.040331070967,45.4366367364087,1061.45491570251,71.3316425373251,993.862930094414,224.929343771907,547.765096082808,114.863879240564,1195.89339480834,165.690518420638,959.921937839147,240.867790347897,879.231217831488,224.959343196872,216.03773071175,33.8355852828124,181.062525367406,77.0071486538725,885.045575695161,351.309028455672,374.341920393722,264.057356661419,1970.94938247519,66.4839175570872,1792.83491370315,69.8645857292384
362.115390402113,-27.4410095483444,781.161473730364,252.067174554084,396.634771301874,47.9252750775131,1069.74768993566,72.4008594091813,994.880444327805,228.007715369583,553.097328574622,113.180523636367,1195.98729068694,172.456068532894,984.37926879053,232.755818999119,901.894276952497,214.786331619228,221.468081180997,32.8518782844671,185.125921627564,77.097639951389,938.520800402542,341.353547094511,388.041209665871,258.394281929228,1981.43960149558,67.374958360776,1799.74570816754,75.3614217748224
364.369523751571,-27.3634037995568,790.770885489861,255.266282956435,396.347764731074,53.0459492326626,1101.41946237091,69.2973316386764,1018.69865864673,214.230411196178,557.92820428432,118.612275578595,1207.46310956431,178.152889891223,1015.39935332012,228.154940015309,907.262929789531,217.897499942653,227.758902364632,34.0244668032269,194.973893784289,77.7057666727229,966.790799790487,303.735244799115,409.035185720553,253.886615507952,2025.4466576627,58.2013980237426,1826.49060879543,71.6733365996861
359.829360158274,-27.1098517726891,786.404660333367,249.979981276072,401.925349308228,47.0564676539409,1061.06553208294,72.8432984372707,976.292077290876,229.62908165928,543.701754806417,115.711185472136,1199.06273284026,173.008326398054,985.491492515262,224.144398224662,874.393187458946,227.16997028787,215.507234943463,33.8944859667575,182.585099876288,76.3930346246422,982.880435093777,292.769067916166,388.511466096318,255.297936013892,1992.74983829819,61.9121815680016,1781.83699266591,84.0666784939866
359.705129897588,-26.7250127497359,783.854018978983,252.155566199089,400.747907882114,46.5348976559287,1074.63142569126,71.544050165083,999.50104901524,228.488098447298,550.825189700305,116.879983105268,1199.51953812616,172.801234829951,992.312704438535,227.631999124991,908.428129615089,212.545322554574,220.879672778778,32.8313331186032,188.163973493544,77.250947609755,844.989333297574,412.218744600201,394.059406216602,263.497533015562,2010.62481241636,61.3835537933149,1828.80200072011,53.7754952420093
363.407739316758,-26.9755191963064,801.254955028866,250.234285860034,400.660311188707,47.9871606910722,1104.50799455142,71.828473040155,1026.8315881631,219.088561103034,564.925280960066,114.677571490148,1226.80862276301,169.812119293622,1018.94181065964,227.85924817403,913.687619933758,215.412595474601,230.162135257225,31.9743204148154,196.663875569335,77.4477417782455,889.466411798762,376.486267501377,407.589287066342,257.500768754862,2045.69994176813,55.5091881953255,1830.78362716788,68.7527619512913
357.679833917416,-25.4086171311596,782.291485026632,251.534618438957,396.961441111716,45.7496665980727,1054.86114097737,73.1248665814666,990.291957259946,223.339929560594,546.659267445679,114.982589820271,1192.50643819579,168.491140259241,976.329055527565,228.513987659839,888.507844260341,213.168593774531,215.140701375013,33.9281553183947,183.205891623643,75.7280276787361,969.263959795827,320.233564177192,395.952157819494,258.09565871442,2013.02107826178,53.5212992770874,1776.31161257578,85.0178011367148
357.830314318267,-25.4215971762455,788.280735184071,249.039864374655,390.562015357364,52.7761758925869,1073.28613581406,73.4835111764893,997.543242372746,217.845479661243,551.253540918019,116.47958849879,1207.05939223668,163.889091301337,987.32430119255,236.659424927515,901.16064377394,215.189958537074,221.579522216047,33.320255309665,187.0794041912,78.4081097113207,978.285041548802,314.081225731646,397.358811019269,254.106047507241,2013.85803076918,64.2852567829912,1784.49043503058,72.1281459971143
364.453193057759,-27.845413446247,798.336187304335,251.269170017463,403.123178804041,44.0648804912225,1111.5251922008,68.9440535614033,1035.98379220462,218.163438310974,563.583533921053,115.972575081981,1226.83375204468,170.6836813302,1024.63295811688,229.71786086319,899.510094693356,230.789210579075,229.356163180259,33.2205062624103,195.490158037155,78.9332760440667,1052.04853639397,283.004335400258,404.307979147076,268.456478180694,2044.20292345117,54.6081414742106,1807.98687323505,69.0002866366283
355.731517075086,-24.8342904921426,784.273641706199,252.820335692103,401.310487108142,45.381484358927,1054.49581976291,72.0561416760383,992.786031349379,220.881979369223,545.243788767378,114.340217859429,1197.35619128806,163.751626773246,974.455751054692,230.048336788259,889.596525953896,213.564888874581,215.236159714777,33.0558826632125,179.375737440699,77.5400441855717,916.090544392552,359.298598605482,387.106629018953,255.381058682484,2002.88238838651,59.4580020921169,1762.42565696225,79.6029999773399
359.34031664069,-27.1988018466322,783.048004932057,251.010410798759,403.124738742611,42.8581799756253,1075.7078181062,70.551406018324,996.031592120717,229.698137645435,551.207619386172,114.569829773393,1192.79092752161,174.776593568994,989.469515818749,226.754730663288,897.129688157888,217.662428291747,220.5385586907,32.9042263562576,186.332224223446,78.7157863822626,949.836117681377,287.243286833504,397.892193358114,251.556570770208,2009.69312814156,56.9351382714914,1767.3959683368,70.964637075934
362.599174613635,-26.4593309232571,795.767397346565,254.235850714744,405.31851152826,44.0103965630221,1107.46088213326,69.0361451440443,1018.85221595592,218.307327235678,562.085798477374,115.963923229102,1217.81219011529,171.427385546877,1001.03563499005,236.382903140357,910.569102889075,218.541739494433,228.871744390619,33.4224648166387,193.091535101992,79.0791437145061,822.696580641808,413.963603862774,396.405629136383,260.765571237313,2036.16414503676,57.5350379512115,1790.31465975084,82.041930702072
359.894957601773,-26.4018927890568,779.476921862689,254.224657935141,396.640139655756,47.3661817238748,1057.68104640331,72.3644861781396,987.940458124749,218.452467753232,548.333489296532,113.254854183311,1178.51473236552,175.505708981999,961.399942997285,237.61272481691,890.864345614698,216.382001530476,215.29054706015,32.6312582935437,181.248077277353,76.0224582105248,951.178218475194,321.945590685858,378.837845585115,255.751578251898,1987.85935969597,59.4838008676161,1760.11674599504,75.4755339486144
357.468416368019,-25.0626125291068,784.492975195976,248.208896447275,394.80680938728,50.6573989335565,1075.32495787167,71.5215978093676,1002.21089638449,224.707495908801,553.431833349839,113.9356059397,1186.51418148739,172.300576567469,987.024486525536,221.392948259244,874.093473155503,230.402003708905,220.044547430608,33.1823782818983,185.173389773968,76.8145133216693,876.858724798695,387.424338477129,393.388719622744,256.911358947688,1995.58632022414,63.6566071591147,1759.41747863152,87.4178419157013
364.080906711983,-26.8399846644597,795.821723910275,253.391004764814,408.754547793574,41.5556764508024,1106.41813736983,69.516563723807,1022.58993693775,220.798213463285,564.526464982134,114.304482196353,1211.8318924501,175.00855905377,1002.5790453544,235.094291809904,907.507111790633,214.217637884785,227.337598086921,33.610341547256,192.282269938157,79.0409054935805,963.432103365329,312.052480704453,390.504286668443,264.022293973057,2025.89249729963,55.7868192001304,1780.16496727988,81.2110948215758
357.364401548437,-26.4249390223769,776.547570052897,253.519515539124,397.208731471627,41.6479112031909,1059.78517086588,70.2625866610013,1007.46967983516,204.747326325359,546.216016683674,114.999977337781,1186.42095600873,169.57779232723,976.339581194475,225.322543835456,885.976337024844,212.143936318242,215.920239633957,32.1044502581887,179.392240283337,77.2413460778048,922.431794133148,313.310310611875,380.998024083635,262.157813172554,1975.5318907462,69.8236193254558,1749.94701246904,75.367218247871
359.022669472023,-26.1172988318355,791.098179368305,248.073548737628,394.541771005294,48.5442132850938,1081.18796250037,69.7673868526285,1013.46140692604,215.094290404251,551.621940957156,115.036660372975,1195.71441541207,172.921925462283,995.144163538026,225.452276196417,881.48735233876,220.697402539594,219.817698783305,33.4521710544764,185.130358362295,78.6730240419285,907.552867345683,335.54416041684,396.138038660949,253.090599696109,1994.10282421919,58.5051914124117,1752.14065513875,79.6980397595247
362.325059150778,-26.4608354231438,799.808536097789,252.037838314543,402.901816410669,47.5060338534781,1115.51824576112,65.8676698942434,1037.8497021284,214.78716875924,567.623958841058,114.023768632693,1221.40726296302,168.184306506718,1014.88921603418,229.430242517314,902.935861534662,219.532675762954,224.312170013634,33.9797628862815,193.230598468514,78.8137510206363,964.656088179592,319.018968502771,397.617165201555,263.9547647919,2000.98122283765,58.9130172287549,1750.584449991,89.5808794290792
356.929777976521,-26.2695533478129,785.809410558958,248.380907885422,394.216864655893,46.0693138784875,1062.62980037788,70.957358070852,1002.84797465802,220.217380872,549.944463768084,113.502879025905,1177.25470795874,176.409236008067,978.643426442728,225.409843446896,887.000897956507,213.148103084168,214.81893248745,33.9524348858847,182.362467969328,77.0510015893418,884.558889000985,363.984211639705,394.416244895782,253.269757582871,1974.53379556541,63.4468953351695,1765.21839005504,73.2280905501431
359.995517186177,-26.5777907405736,792.281736597728,247.787251447304,396.542955891529,46.1422702536417,1084.49591921661,70.5011955099019,1005.23261124258,221.127819911322,556.29720101923,114.994913996213,1200.99628991671,165.144016413021,999.287932148416,223.15878299673,900.607932970405,206.888336365749,220.631445792166,33.4141690921906,188.195061563508,77.1334815586651,962.58121798978,301.88602204378,390.548201790046,268.710230580278,1993.67304178891,61.9963097814361,1792.55658162957,66.296604839761
364.144617311935,-27.1112507260191,805.218030724611,252.361383919208,400.078174511515,45.4765593437717,1117.31996226615,68.1770191036776,1035.44814298105,222.701514270358,570.218276728214,113.465222320518,1229.977303745,166.994659845225,1019.30171295064,227.935350021857,913.077032202693,209.265019337531,224.371187530402,34.3694231551356,192.894486153665,78.5430629779535,905.589175173476,333.024280143631,407.845500980168,257.659776556799,2003.13731801164,60.5756800825762,1772.52977016552,79.2973235978126
357.866435665763,-26.1544184987382,785.33449043409,251.279262506817,399.719073013169,44.8543309659199,1060.27129074002,72.3835110180763,1009.32849412601,217.277641316651,548.903074253495,114.060173293141,1187.21862051434,170.035773517662,977.880592487182,228.656367169337,884.187801735055,218.713617084851,214.600184597116,33.6937795403626,180.975217538562,77.2302144230611,913.263946506107,346.851378290081,394.083314150631,255.806715572727,1979.09779840397,62.6443357808924,1781.74722309434,63.1820378506395
360.984193349979,-26.6552635913118,793.942337081692,251.326559126697,399.885601647523,43.7065512653083,1082.77142986107,71.6357412900448,1006.31605632425,229.190666481228,557.451773309469,116.114193423094,1195.94023659322,176.297073649042,1000.64000244185,229.409484354448,898.168275332498,206.357189013061,222.336249860516,32.637197091223,187.213168375607,78.1074266473054,922.289876888961,335.178012896479,390.269032250654,266.221210895226,2002.33628932634,64.3031513533983,1806.47097461364,67.3612371844477
364.364426010607,-26.9925108495557,809.886741717402,250.146118986018,403.887370740512,46.9398945986421,1111.68564234971,72.6334019549699,1039.53920413237,225.371043876129,573.037942345644,113.582428564812,1235.69324076356,170.558354112055,1026.30335341407,223.986829707571,909.897603710568,217.204917259583,229.397748449828,32.472587922874,195.144722815253,80.4566743383478,869.965959061373,392.349655257296,416.107867841205,261.272913802581,2039.24591197708,55.7469420313171,1825.50770143789,73.1044764322977
358.912689785266,-25.8985476358305,796.868858508108,246.334669603834,395.994163530874,48.6795541631897,1058.84633192638,72.3157331817296,1010.84599120414,218.719562670028,553.30831655532,112.669977725284,1200.37696796634,161.815956533143,982.294212739494,227.383537453084,895.458872591929,205.303477956614,214.50897918958,33.8736211408129,182.204237747395,77.0716740097379,956.959811939953,318.169197406553,388.586399668928,269.797914848089,2008.20743904007,59.4904350872923,1775.50433125596,85.3378294482988
361.593923958862,-26.9258243870866,801.165355969388,246.571981772847,411.46359313926,45.3048453677411,1084.59313609309,69.1773213354072,1026.80698936684,218.577735554545,559.44684886991,114.995760024529,1219.31105146295,163.571947206765,1010.71227990156,219.491715803154,899.999303518014,211.42210782388,221.150641017822,33.1206738182735,187.39944252727,78.7046200039202,940.91003605276,344.629187082095,408.79089834579,262.98116970165,2035.86387688873,55.7332505745341,1804.32645028792,84.4786130761082
367.940319965501,-28.2970119249162,812.898420850888,251.963516608447,401.480246962582,52.4781747871569,1111.85158953606,71.0811503793991,1048.00418013909,217.589438396907,573.859949303076,114.650391467481,1232.11794130589,169.203336602561,1031.58435035784,231.962317790187,911.88230922164,215.378075937141,228.229596722377,34.0127851989311,196.518085062956,79.5311629588781,988.659425822422,282.392443718789,413.008510465897,263.212695603755,2069.25839176491,53.1749699306421,1856.11847258676,66.1865936025963
360.577010124295,-26.1301397702511,804.330508743946,247.741415838859,405.842575989849,46.3655535606942,1070.36354356334,69.8951863036322,1012.29414935725,219.838056076461,555.684806978156,115.303196922334,1214.19031695489,166.102141236126,1003.69503544045,224.699550747361,894.154160537599,213.553267049668,214.611040958222,33.9797909089763,184.591109083647,76.8743098716492,954.998278902668,358.831657723937,410.389005638097,265.674546548552,2040.55536738901,60.3232699368111,1834.08426536319,63.9301065454984
362.347489160006,-27.7079114527483,804.492170683425,250.467261217808,409.759615597326,45.528892110947,1080.1603952198,70.3409046802973,1035.29511820971,214.731624973347,558.399639120945,115.253790536352,1225.48577309738,168.707992903095,1001.5710835778,227.385798593619,894.734180292786,218.090060862178,221.876245909116,33.2196603797503,189.670501299948,78.5557215572642,909.055571072003,366.100872016264,406.718141229325,270.584511577214,2061.1646020364,55.0522058873871,1848.30406630075,59.0371049250092
366.896748091082,-28.0060647026142,817.157936505527,253.256190206518,417.419271360721,41.6869414338877,1118.64636020062,68.5167295122908,1053.37538051285,223.275036828259,574.597889071504,114.552730893293,1241.68115552721,172.455774122737,1034.15627869825,235.626572796045,923.0707675237,213.543800170268,229.18261881628,33.6095745308627,198.428464780253,79.2730578803008,948.371838669442,357.226007763145,430.701008713075,265.169076017478,2094.69915081716,52.1703097557335,1873.3002402492,72.5698568671447
362.588615289737,-28.0986338991936,804.73335563394,250.229917780249,406.859030953134,48.6830155597958,1073.99621956673,69.1352542504137,1020.49069432322,216.835640291412,559.085177088505,113.274023769563,1214.73931842136,173.94832778516,1006.43722120987,224.727464827413,908.913527981235,212.671104323187,218.42091938358,33.1050440344287,184.853991133397,77.5080987031449,961.404071260437,355.488421453723,403.564656765496,272.659270850336,2074.83179069489,51.2778913460178,1867.4476815957,60.7890448553668
364.428548322675,-28.6652870182662,811.58611552343,249.157112808179,410.71226385423,46.0344191179009,1092.06550352758,68.7037627047283,1036.61195422303,220.217488618656,566.701561419586,113.790242581659,1243.01062317826,159.118174279065,1028.94594284257,220.621492785715,924.654329117027,210.27093118385,222.755461202023,34.3025957401899,191.462502302049,78.8769253543757,989.200188363698,354.424690136924,427.002309725306,261.736627231077,2096.2706393993,43.9362453137607,1858.49944914071,67.0468243650487
369.2249096913,-28.7906842144382,820.949638500961,250.089099661315,413.432358710281,48.5800150036646,1123.98294290718,68.0338468242785,1067.54370383435,210.762353037956,578.960977218189,114.913216994984,1281.35709234202,153.377496070002,1053.69993290774,233.349119225318,928.440563856625,224.990619091273,232.924399297849,32.7916007968669,201.066247415746,80.7887660396772,917.0888342914,385.669741185433,424.554409921607,273.920868272946,2113.98635455936,49.0401188780311,1909.12962565773,54.4812168079144
361.837608845884,-27.4189434381381,806.964517876062,248.937354981588,410.78559350696,43.8582155123785,1073.85189134369,71.0569875797794,1026.81004049047,215.745759779055,563.067309802304,113.548550871427,1249.3529032543,160.256255119147,1017.66737379812,225.410725237831,916.024220093692,213.943311546275,220.771547660807,33.4570334115162,187.900349532987,77.9791880565854,983.541398022358,355.295729751989,419.108229111845,268.218872132674,2086.32584088801,48.5788603615451,1858.36648431899,65.9938863755718
363.795346408074,-28.0660576004521,815.333704666766,246.635126560196,425.04626166792,42.7493935524824,1095.68467186041,70.7344192399753,1039.61704381446,221.754123515418,568.954729435576,114.619190191195,1261.27570967481,153.883456067171,1037.58330664132,227.665556628547,934.46794957213,204.888369256449,225.725616758451,33.9685234364806,196.185005589464,78.0010970482983,998.925634846763,321.445830381898,429.438329679772,274.330705318678,2100.30501317469,46.3478732797575,1864.10605420825,70.5288480194183
367.900185516417,-27.588730596394,828.613924075828,247.979459873092,419.342512061158,42.7543264123867,1135.64922507981,63.5103906257225,1082.62572712847,203.812088623577,582.933123235858,114.238086184875,1273.04033261813,166.34979833328,1058.17944824798,234.022945069184,945.218986044168,206.531582666462,229.463298127217,34.0340193539244,197.382106385983,81.513800493184,1076.90959765058,292.65075114353,445.575136520147,264.245057205305,2098.38519214038,47.2668537625999,1897.48623374988,55.9400823105502
360.805518648098,-27.5766078444066,808.777743368255,248.926871862005,419.45853165545,44.0908002422302,1080.68963021069,66.8304588840691,1041.21583799171,220.521474258768,563.771561929045,114.182100576416,1233.0496866967,166.814544329353,1029.00439544184,228.595222481388,923.848125322849,209.774720289324,220.284686322481,34.0886813955386,188.566621573819,79.2316173211673,1008.7303668969,320.772349087626,425.847192551735,268.349502823701,2078.1573161103,50.746083475594,1863.12687794621,55.6962209172066
365.23462628851,-28.4091312299952,814.820682324378,249.320174418365,425.264897842245,39.5316486883101,1104.39157167761,67.4412911145381,1044.48024491533,220.37038362455,574.583481677514,112.093583358579,1243.41059755005,166.101629171982,1051.25078232034,218.348367936886,927.058599483625,208.662042106887,227.12264038519,34.397743024686,195.134065178753,81.1158385818708,1000.86398811268,343.957777584817,434.93874612069,262.335110807472,2095.98217307052,47.6971474032252,1881.95937774352,58.1913747681491
368.687609552955,-29.4164220946783,830.281900107145,249.036437749975,430.362507030999,41.1486666612812,1132.73087342576,66.7229910521449,1061.50530499423,223.830669785601,586.195706886917,113.271448054848,1277.60509685799,164.350279146478,1075.26961124602,230.117720439689,942.694064509455,210.255953681802,228.510391345865,33.4583831992799,197.737628744794,80.9580929277589,1008.95657998237,344.798165186246,424.299559851081,273.404688491798,2084.76810605819,50.5158892099066,1903.34562147247,52.0505836818523
360.888975136183,-27.6389257869056,813.055005055093,246.315960817667,418.968502256598,42.0588585735057,1079.77134885274,66.1079720826094,1048.91328350469,211.407938098518,566.390656297438,113.685181558114,1239.3524283738,157.110629689464,1014.63348374492,231.805450395978,927.000149612976,207.924237852653,220.64008989744,34.1001827820251,190.57961291561,79.3136422285909,976.607355731466,355.904507280527,424.591555344308,268.275023188794,2069.94771112088,48.0182518470817,1861.76134507066,54.8569537216009
363.579433981524,-27.4452706759514,817.226322009776,248.349097352321,414.845480263437,39.4594009652143,1103.61712805154,67.3659774899601,1082.68170038099,211.401769794877,574.694275771214,113.922177244607,1248.15298905462,172.262255996042,1051.39676466251,218.368129827995,927.777268753887,214.004792810999,228.814116020916,33.3961645947168,197.096206551478,80.6719521982878,941.307253229035,343.777151090571,428.695316648331,270.523104913116,2088.87633692254,49.9597469507918,1858.87242249755,68.8634773685438
370.016181455256,-29.5499569471639,831.431655704092,249.024581760001,419.080069374592,45.3488903220279,1132.20210535613,65.0813452639704,1085.90440010568,209.745975177759,586.508195952814,113.114542407536,1277.35459722115,165.189418008406,1073.48271967963,226.384851016561,946.884650693832,209.50301221282,229.178591267062,33.1607516413779,198.354175349443,80.1477837121171,1021.03123046086,326.239718659912,422.821588293488,271.700629375267,2077.3166239422,51.5721522235315,1881.19814588866,59.9113418114551
362.817172834798,-28.7724479843809,818.274579370426,245.636537479653,424.995630948841,40.9405181374756,1081.43272247329,68.1624089194579,1057.72812096082,207.635014625701,568.972540129736,113.453835467836,1223.01916196799,171.332987858242,1018.78135005299,232.815393471965,906.234079342503,224.070977759377,221.16285316724,34.2624996268237,188.469864795828,80.0095077169043,963.133574362026,369.224475516558,425.394598630218,268.553888308508,2059.92783911535,49.7612220716108,1867.57572844044,54.2407686239166
363.800799996989,-28.0301024694867,824.214636951088,245.229147537442,418.546419296148,41.6431928969669,1103.23023845588,67.6314065268912,1059.18414443895,225.815826881541,579.234105057208,112.091638797666,1246.53731736201,162.414720512839,1045.65926087667,223.344888023214,931.753058722631,211.796006799058,228.385738257953,33.1968603098625,196.527858910765,80.6810845047653,998.56881169603,348.03532632526,430.808149970092,267.367622475364,2074.68714035756,52.1173756562823,1882.84377021707,56.2207543141299
368.261644295665,-28.7015128115468,835.835160660992,247.921721371855,423.801230645752,43.277694911831,1125.52171046335,66.2306032135509,1085.55651436052,207.710895592884,586.646954906366,113.057605364655,1297.03828210029,153.237764134711,1065.01162941576,232.288425935194,944.801154894583,209.825767418621,225.579784943429,33.678198922084,193.996608486478,80.2261041598189,937.770591329355,396.816344173657,426.072029137758,267.58909146175,2061.70980909589,53.8385732359082,1874.97924567527,60.8573751526411
360.846552380694,-27.1176680909164,821.347567261211,244.364017138578,414.748113599488,44.0302956877972,1087.18885416673,65.8007571149012,1040.82829716348,217.830260061296,573.194455946385,111.208013641647,1239.17563353938,160.614896079476,1019.72570092844,231.78665572351,916.897452725108,213.578718241158,220.787188469149,34.1639189749192,190.927717600977,78.6818749045,994.766604826045,291.306506720981,423.738999309847,269.658597619314,2054.51747765957,51.3144615138655,1845.48593954666,59.7535932070197
364.403384875764,-28.182566064971,831.10961300165,244.337686984445,423.06093749377,41.7768356764207,1112.7647137859,64.7224507303321,1064.25125759059,215.089113369843,578.028201934894,114.063403038843,1271.66642171632,153.404880490715,1046.82769126396,231.899079353829,926.033304070245,210.304007320461,228.567553099107,34.2862638787713,198.162313065065,80.3550178047124,951.953927382424,385.421438211307,442.481860654786,268.876358547126,2082.85190986645,46.8700627913718,1894.78931950655,44.5810248128121
369.716261671493,-29.9416633761362,841.782990233373,245.100512142119,433.222615569326,40.2492224303044,1137.24266068095,63.4973001709119,1090.53922342278,205.069969453357,592.886176362711,110.531018447682,1286.23001812207,164.540264992705,1094.16972006993,223.958581612887,950.526997666792,211.671160857066,229.004014057031,34.0212042567962,200.177530600738,81.5343317347377,993.32858894266,359.040507609142,441.620500358771,267.58793973701,2075.2959411887,49.0957948147206,1885.90821084964,56.7631437916005
362.592297485251,-27.553196477052,818.950113304762,244.885026323841,420.393572770808,43.2794292554635,1083.02877854719,66.5052887452813,1054.82182940764,211.566954076488,575.652370238215,110.306906679898,1243.18841882334,167.713811922488,1049.61390533386,216.598507795557,929.631412960182,206.623202380391,223.591968814079,33.5239328129052,191.816016755055,79.503433195476,983.885727753952,353.693393083273,439.751659698939,262.267736382955,2050.74195254186,54.3346299126705,1855.36444503265,67.1279106722189
365.91246120418,-28.8199889055183,831.671661680915,242.764323588451,421.530234295544,39.2822998170691,1109.27037957162,67.4490289489557,1075.00178766937,209.318082422673,580.594316333893,112.914895760331,1261.25842522438,161.637450544985,1061.72771967786,221.399193909593,939.328238951809,201.539905705042,230.155934284583,33.1920694358644,197.681052443089,81.5053724818054,1074.62130838207,301.843429597078,439.903041818758,266.120040158418,2078.76063872265,47.6970982585534,1874.24467648362,55.6399239029411
370.107406599495,-28.7746560720466,844.100038667156,247.649941296584,430.548299719567,43.7868595410352,1139.04798144193,64.477675944962,1096.55907241392,206.077506508038,594.691368365746,113.024223058585,1300.13984410466,151.351805808631,1087.7172259381,229.332477434712,958.116988082397,206.41638362809,237.822824431943,33.1254339847678,206.670541759326,82.8050518834182,974.280367532298,348.633798819707,447.45016624919,268.409493566512,2102.05086007948,43.0912001905478,1894.30692443752,74.122412124465
363.149254600921,-28.031699427486,823.702962378155,244.691512096424,419.421940720956,38.8046799947764,1082.89833920134,66.9322281583208,1062.717083512,211.470762095061,577.727139237209,109.434751546896,1252.10277531145,157.547309011511,1041.28971451707,224.359091132606,934.535607437942,206.350090243247,223.176103056791,33.7637594245668,190.251736599776,79.1053323897678,991.994494621448,311.491896098584,435.372010095064,269.770277306242,2071.30324458971,44.9469353532971,1887.85646961926,57.4584842353394
365.290952324451,-28.4559705769606,829.960704818525,244.728795078065,425.01883744151,38.0395103309352,1107.47965793684,65.2220170881871,1069.54572193895,211.124685223846,585.106316569281,110.255448402648,1281.00254894676,150.445920080419,1058.485210034,226.386089333484,947.732674093152,199.675566320885,230.548011254124,32.5887399789879,197.791748845327,80.0518846709811,1016.32959933214,320.454475728707,442.520391042915,269.290703021593,2088.14496831523,47.5809420269241,1891.85275393349,57.446456935169
371.730371538952,-30.066954354549,843.877593698847,246.978673837388,424.898829410954,46.8763156774456,1146.03179202165,60.364183645112,1101.60078781631,203.265619134505,596.232091917147,111.982120571111,1308.64854981355,148.281901089175,1107.19711356791,218.771944668787,956.659664805093,207.994866998988,237.545300677795,33.0213855513767,207.702846635944,81.2490463023311,1065.63864915628,307.283158822824,448.793617993043,272.54673558351,2128.43048563906,40.2582418878037,1925.43664012074,58.7007371824298
365.854189211909,-28.3488597832154,829.273858536389,246.089359258229,428.271637394111,36.7681722904493,1090.8975675049,67.6964711715947,1071.90891388746,204.987063981428,580.126601114105,110.641849867544,1270.75969842649,155.412500339848,1055.07423336037,220.04580201877,928.50057199726,204.929639916,224.751036547068,32.4906397401078,193.333025395446,79.2269049633022,978.489242322386,335.612823843649,456.812836465525,257.831734294618,2085.81148603866,47.2559109859841,1902.86333686458,64.0071448641613
368.446026602959,-29.2613241980873,830.474788175151,245.584280716886,412.40684029964,47.5216114921853,1109.61388016143,64.4539604264231,1069.83726298654,215.967931651748,586.390858957912,109.191016070003,1269.12636239813,158.837442969549,1072.3837836727,213.842100329542,931.756883185402,216.2716019977,229.796080007648,31.9886990776301,197.59500818773,79.8820949538788,1038.59187517505,321.66745600139,461.334642110462,259.35293473348,2098.98597625623,46.5704628740181,1922.5451753259,51.3884273508128
373.679715626152,-30.6162124278084,843.886353282635,247.868036225699,438.54886368744,38.6253839416521,1145.70796610362,62.4002426174307,1103.50660578151,206.72364088414,596.805839055478,112.64224031171,1301.09036122819,150.361674090162,1106.83129990671,221.425624933889,944.55772624567,217.109658576248,238.961238438814,32.2553064920385,205.969675899171,82.4283364741045,1037.39511976413,325.504431741027,458.22478035296,268.749202289931,2134.28393805781,42.160577708162,1958.14867355876,44.502156343862
368.402477825119,-28.4753788939806,833.083121318285,243.594649830908,435.898116605281,37.6160719786449,1093.19552509807,67.7018915683274,1084.34441717047,197.219105000977,582.171386326508,110.075696783716,1275.79014149148,159.825424873836,1074.16976621518,213.153750236469,946.123694311349,201.895387689285,224.287748664733,34.252263792216,192.106552843348,79.751161857583,1050.44239442202,286.50171265857,435.641756985311,278.607240999751,2103.30186608449,47.1330427741213,1931.34591414448,53.6679022681529
369.454730183975,-29.1690434506831,838.756584639356,243.10517157451,432.06771056599,40.4093963346024,1114.45718536766,63.6176444383535,1065.91490725061,222.225398922238,589.202746224785,108.637229923214,1279.73485399442,158.062762827571,1082.94005803681,212.906464927158,939.33094548555,207.617756237769,232.009902234161,33.129117542822,200.118833349638,80.4757871665805,980.405426564752,386.6820814799,455.074454365646,262.5905390198,2122.47817033935,42.7163510711946,1929.00405588327,51.7707310280007
374.713742886839,-30.5641838482981,849.986962619885,244.321713742797,434.267861261825,41.4857096624625,1147.82446337433,65.0896225296343,1105.43993287636,207.721893832779,600.828591951288,109.722165133135,1315.97685223665,145.711816300883,1122.59297198952,217.868987672689,971.903349580118,196.591456792415,239.751382462141,32.74373467823,209.353771746566,81.8637848994498,1003.77678690211,368.166643592747,459.638395906658,274.410393658746,2151.16445990933,40.6547896240096,1964.13647284591,51.8715370698998
367.943323145951,-28.9123976847554,830.38787392811,243.741592732737,434.904573592041,37.7407295415974,1096.30018047017,66.4683510677512,1065.58938779485,212.477829489765,581.105872518667,110.768121464531,1276.78339435102,161.420619067874,1065.951103008,216.357680743834,938.70185369768,213.892468173608,224.177219152569,34.1328614391127,194.729350272208,80.5707445585446,1029.15698801344,338.693276641062,447.282115085558,270.012040937828,2107.75139780001,47.8634053837799,1931.36692735692,49.9275596912842
370.155130728648,-29.6412260249477,834.764568101619,242.374596975403,428.099362074829,41.178547531496,1115.39560473098,65.9977690370767,1088.41463089081,209.927402075333,588.346616014088,111.504902659504,1299.31307177781,148.000257685448,1093.78809077352,214.274230221869,955.150767551837,204.53255865317,230.861141989977,33.7266713041707,199.574948781239,80.7555618267949,1039.4817895523,344.303351906899,453.10875829105,270.965744022041,2128.38328106809,40.8079384188319,1931.57788140965,56.6870307189063
375.974872435455,-30.1440078716695,851.703099823693,242.567579184387,439.686390096809,37.0985412140437,1154.10363731953,62.789276883107,1100.04614398187,212.2685598943,603.841936776467,110.810355317805,1325.56300904829,153.236290801092,1110.57748852121,228.545482969364,975.728376725645,203.57591400546,241.195619637821,32.8773957167424,210.423095451837,82.8341545996401,1022.81358945316,351.051221378426,469.128203374351,273.789202094596,2153.19089713067,36.2296301074734,1965.29034041692,43.7397315289595
368.961178455804,-29.2365764670144,833.934785850275,243.969068451933,428.923745096557,44.2486815467179,1092.77283831467,66.6397210839405,1067.71127306125,205.13153377605,583.082328969294,109.307080806796,1283.71650896414,152.120250099745,1068.95578037996,219.178603636483,933.139778912212,218.260979962593,226.457008057661,33.3773717701776,196.713196050685,79.6961114752881,1006.86591792929,351.156958014741,461.831114868474,262.710051703831,2112.57837813298,41.2160693676008,1930.124186982,50.8435780293066
