366.445942309005,-29.7539197113687,802.691893899031,224.151948088669,425.0203258483,29.6899041077783,1039.62169159926,94.3039381355507,1066.68234462046,176.360591325141,581.118813271151,97.0554903318157,1273.14990335959,122.873776865595,1079.30326754193,189.497616768379,921.131185152022,191.498992565349,221.432885770457,34.1346545559753,191.615254638693,73.7038757976493,977.024432254681,315.600980480539,431.706629482142,256.991175987274,2048.04085364912,36.5235376410165,1911.43341097167,42.4289092701978
372.069331906748,-30.3281248627749,817.394053962349,221.976997599898,429.491984277833,28.5400934378635,1069.22644553577,92.6606460451183,1082.81235746224,175.05416389274,591.710520542252,98.9926961229342,1287.5855253231,130.589152940937,1103.25074767495,194.694108683393,939.022252223936,185.696290239428,224.980798916982,34.9298444967383,195.318771633034,76.4073542255758,1004.14738783614,353.174098395794,442.067694769027,260.485348654896,2064.67826850971,32.1996519186366,1922.66279873186,44.8841187001151
362.920654954698,-28.1286042551244,793.729603180868,224.858892504528,413.748757739631,38.7578170966195,1017.32825773829,92.2183166992441,1047.72360219444,179.709565185665,571.053772738028,98.601874870989,1254.60061514409,125.220111431183,1060.00966772311,186.099016145009,910.567533112077,190.460336408537,214.394633466301,34.4194904816148,183.353000461707,73.4308852605452,962.814967712787,312.526147948025,429.002155655208,251.544648617805,2031.55397443051,41.5652932730178,1909.07243256383,40.3197995670527
367.034745653353,-29.4222232958924,800.816401277698,225.569942163127,428.778386711298,32.8659222389329,1041.52673316839,90.0844457784517,1072.436734366,173.489239149465,580.460728685128,99.1597233220505,1275.65932404773,127.566785519886,1083.11878737756,192.543015965322,921.141781925008,189.957938624604,220.211869984471,34.0089955909183,189.694046138674,75.4152448112167,975.264558650549,321.169454620998,447.229868088547,250.383078817441,2062.68483990451,32.5379881019124,1919.41791155698,41.7477652047155
372.078470500158,-31.232477630421,818.034380788429,223.571553818716,427.240333137289,35.2862821000256,1064.9425038234,92.8394276285504,1089.06214594026,180.248077391799,590.418524227234,100.568551182968,1296.81390803166,127.717279782029,1113.73041794559,189.963643373823,942.705817427066,188.494171091674,225.44014799982,33.4780717432475,195.071486569471,74.8321773344055,1045.14327748331,293.359263012951,455.801340649541,250.424200806022,2062.87652932591,36.6693321534051,1935.97725987842,34.0870232367503
364.096853977857,-28.9552338135858,798.540107182381,222.689757285373,422.952364407808,36.1705796743966,1020.15109719556,92.52613310179,1045.47045939007,178.748905814868,571.550116431419,100.065256698818,1261.0307944791,124.60901450952,1065.52268267141,189.705419854897,915.425143761282,192.009904511427,215.895198624409,34.5244188611811,184.282833480884,73.9460013958936,945.189415502683,348.683976468071,438.570546319296,250.997206182844,2052.65104194745,37.8766590457995,1922.56892035623,30.1030044353887
367.963707941456,-29.5346283653375,804.090196457738,224.961990561942,422.804709210821,34.6305852227995,1044.30350039088,91.6323340116226,1068.30780824996,186.549773317678,581.086907398879,98.1091171489006,1258.02633105693,134.34470876954,1087.56596485637,192.992954071002,926.254396344368,187.703337517464,220.013442148828,35.3667730108078,189.568165801165,75.8540313946745,937.16042655088,333.985458342459,453.039032258961,253.231516152351,2089.31957731021,26.3672051706437,1953.06019660744,41.6180889757933
372.502752754674,-30.99921722276,819.825207715513,223.992066353557,431.379612187755,30.9344798053763,1074.56870157095,90.5706341131148,1091.99993264135,183.863137775865,596.538877546331,98.9857269192461,1298.06989898936,126.593755460988,1126.40461863303,187.513480764407,947.89547540114,184.253565656437,229.761848967104,33.9827121490531,201.227157381156,76.1087534352633,976.698842637213,316.231735388287,445.889250144951,269.089596655503,2104.09663815538,31.9129624310316,1961.76429810631,39.5557755394277
364.242549793876,-29.2699531744621,803.940824026216,221.183812271127,425.437421797997,34.5165068227186,1017.80043412504,89.7401118261599,1052.35742916282,177.424608599597,570.498976484316,100.256836037348,1257.16759939361,136.214806790712,1071.51217864074,192.148779417424,926.439682737416,182.395403326636,214.058423447128,35.1875635150947,185.569128822124,72.5885154263333,1054.4544834512,317.47624713639,439.457944947816,252.18130678254,2067.54101689426,35.6477945161744,1925.11066054213,47.9947555626476
366.941006014256,-29.4291786294086,807.373552725006,221.925557897806,431.988099364755,28.7758960563095,1039.17402923896,90.0779480158648,1071.02229746058,175.169269260361,581.236863670825,98.4948211802951,1286.9607456199,114.405591666868,1081.71475104904,194.51637364802,928.44707386599,188.843020829679,221.919264947276,33.8210378126269,191.083175207512,73.8895824012287,1006.72187006707,326.924204058325,447.379949151399,253.219410240601,2081.82379753059,32.5693122315463,1940.86952789522,46.0242098941094
369.976266371854,-30.7034156978455,819.499470068022,223.475645034228,432.521816871381,31.5863374215536,1070.41629075842,88.565794376743,1092.95050017945,178.587616190056,591.022090513378,99.0161123137897,1289.09898963262,127.892873739439,1122.33332271298,193.221828170497,954.018840247506,181.271925401387,231.041639996043,32.4093547960808,203.266816460512,74.4683583153652,998.121986684304,299.447654463171,472.13436069578,248.516647811383,2117.1181341039,29.1989510307845,1991.74869822543,30.7146341998641
364.940360108583,-29.0137849689491,808.491763675714,221.208357625775,423.018557101093,33.8689261154368,1016.22952641282,91.3438702128265,1051.49564711642,184.023983330531,572.960362819055,100.280268263615,1254.51068391624,134.190009594864,1072.29314934844,191.627840690857,925.617970639132,185.519336265308,215.174568506467,34.2798262100054,186.01432912384,72.6671924762567,998.31734285112,312.188222360491,444.403643329815,253.299933768037,2069.79504857837,33.2443945502293,1927.7054736086,46.2048452488169
363.518021433834,-28.3591399171729,808.790866078708,221.455524597884,423.552754495561,36.0333723875874,1032.24300464718,91.4929185084536,1049.25035589167,191.120328544441,577.106516776473,99.7938447429149,1254.22588892982,132.260991698715,1068.08034176432,198.658625527976,920.539408797495,195.432393081737,220.866618508789,32.6996991109444,190.804911425907,76.0113094224266,1060.10695554495,275.674917553564,446.376192590327,258.197077786919,2091.30917518776,29.1083615371526,1929.96349690905,48.2906179930956
368.674264659095,-30.5300233444003,813.954384552906,228.455084691346,429.932110277918,37.4831913855172,1065.53149282144,90.1853125797383,1115.44665928706,156.741610762833,592.271633691937,99.2112292779245,1303.22612401967,123.061277223023,1124.86791321993,187.578706164541,932.315629217559,191.379340813884,230.501233077177,33.709792245102,201.569256898817,75.6746517963031,1050.50400795651,285.174493591308,463.990345340963,255.238915728894,2114.00145869529,30.0245280209601,1952.88111415828,56.9049927036675
365.31311164116,-28.9520539928347,814.971217782633,221.473012324711,431.31527456725,31.2648126922846,1025.66016791576,88.6741069541505,1058.81780533194,178.115428015136,578.571608436722,99.7994402463424,1270.44342216839,127.505698940093,1082.51466675117,191.97162448235,937.091773493239,180.611369069981,215.599680716013,35.3297447952142,186.20114907108,75.5910682104952,999.308934475726,314.096716299054,451.85867212044,256.320858819945,2077.77366825329,34.2602724630828,1914.68832750174,54.6002516611974
363.143395756856,-29.2284477041308,805.711352546813,224.709489810493,430.315623135744,27.0573829441459,1026.58025591298,92.3824780495986,1046.29917618506,194.42010201103,576.91776163312,99.718670519515,1262.77571202539,131.843346196435,1096.20632502805,195.34571081747,926.019284793081,194.475819845059,219.937556177987,34.5127699779958,192.804323231739,73.8587288846054,985.456628525705,352.776182766051,451.097465825974,256.532318699764,2093.41721515871,27.318175102445,1946.62761948572,29.0565512445259
367.098230712562,-30.11909552824,818.161667394672,224.161901229072,431.747986133738,34.406523689971,1061.78241962655,91.3316238620826,1083.85527990401,179.898149924472,593.347744597748,97.8217880158296,1287.39974202044,130.035922688417,1121.07131532866,189.300901774771,939.184986905859,192.992664002863,227.583490514579,34.9701597576455,199.769081463555,76.4405732873656,1050.45355125088,302.573236648327,463.388791420033,256.12194714318,2120.39259806204,26.0595029142987,1957.41992228265,44.7625686615409
367.235795486965,-30.6865804347249,816.683314560223,226.209955578689,429.973214617789,31.9984604627142,1030.88962291216,91.0497630181738,1073.73851976462,176.233639982329,585.27083346961,97.7906756826267,1287.45773122578,127.454536997249,1094.06279460138,196.079804176064,931.679613860645,186.64238380011,217.874973039098,34.3693583841166,190.239266354869,73.9292214452311,968.598551869082,338.318151819773,433.291605739312,265.99492338074,2083.56003977487,37.3186651523028,1939.74976203681,41.4760432283401
361.462364672796,-28.2216010075494,806.300901825292,225.800322684834,425.67154619422,34.8121944978839,1032.4182528127,89.7395467382551,1067.87395406481,171.717704998695,581.221995350687,98.8909661888925,1271.61868967104,124.049689945369,1096.26671204922,189.24052747541,934.840182741714,187.152466608505,222.266378509719,32.7387405977449,192.876977478024,74.3182621329962,1014.36903679405,300.807824184711,441.933813844168,258.97928604373,2085.89549986943,33.0764161951124,1944.60970011076,41.7562345108495
364.841997500092,-29.5093612915087,818.958844837492,223.291726624784,432.594289200934,35.5084438954137,1062.37140457083,88.7307202955227,1089.6734626464,177.194652223425,593.987130281749,98.3831704578029,1285.07644719411,134.367464087632,1115.71875690417,202.213874204149,954.033127162104,186.275575683943,228.607196117381,33.78302964172,202.474535915541,75.886867354654,1001.40584853556,331.775230689343,460.837871218203,258.299171398972,2113.76563026668,28.9766594149786,1983.32730464221,33.5364157323618
362.179739583903,-28.6401385794385,804.964874869954,227.575994473231,427.800181061639,35.8591683390389,1028.19090011064,89.4388823430895,1063.86157277708,171.513268417959,581.094979244507,99.1690696151546,1258.43990139239,135.403858823798,1099.25969857808,187.12953960188,932.831045125906,186.410212420648,216.938476448469,34.7671839963779,190.857240291321,73.4394791227969,916.012409683086,378.844740082474,459.777752891802,247.971980346498,2076.01280169164,33.6750757494702,1923.47035061358,50.0942011868171
360.166194462678,-28.2252088875477,806.482352598204,225.673191805009,423.722847841409,38.1326374599897,1036.03850856024,89.4976844112429,1066.5342318152,182.127239869489,586.038827114344,97.7151003601311,1272.78180404643,125.358229135039,1107.20950367526,187.871933301068,922.354515615255,201.786590628642,222.528484667196,34.1364555594645,194.637982660712,74.418961483218,891.356167527102,408.921871297238,446.236341602957,257.86059380214,2087.68472693793,34.12784592356,1935.55103434731,45.0049977633552
362.907583750276,-28.6764353523591,821.428952957597,225.973516663099,439.87444825977,26.2474490504277,1066.35885363506,91.089661474102,1100.27884973715,177.912844484475,598.4467843228,99.3140474819004,1305.76784369569,124.839779690286,1134.27330198108,194.422994046715,951.257112227053,186.520450316476,232.333671452151,32.8563233214959,206.525079774742,74.7812092594138,1048.45982680855,300.309078740489,462.443027256251,263.570019394018,2123.35600549067,26.8842055647718,1965.52116783769,46.2768702479863
360.344174268849,-28.5945741811838,809.654817472159,226.221101908643,416.397754034596,39.4753258475962,1021.68602564329,90.9696188862043,1052.96029393267,189.356228335709,580.077492772974,98.7093942300359,1280.38338954415,127.201102234391,1097.53662170796,192.700080189582,935.053561161842,183.682032157503,216.374721772088,34.3434226250269,189.58613534577,74.4267192377624,1001.43129796407,313.126838677559,444.398817886382,260.335450195814,2074.79661800245,30.8111684340188,1932.985352535,49.9091388307862
357.623857188561,-28.1242610730399,805.493417966422,227.56761608926,421.30859522791,36.589905678381,1034.22873778012,89.0023943769541,1063.76395850901,179.843397884094,584.961127548235,98.3054611427312,1291.9315296929,114.072715123069,1105.18267455197,189.67813397633,934.050721644797,183.812850541998,222.499141086656,33.9194464689498,195.630093208157,75.2962024914981,1100.63545743483,261.484440045838,458.434527695355,253.50595428053,2082.78651878706,37.4069009893968,1941.17023520433,37.9694061765174
363.090505420752,-29.8453997144656,824.845046042728,224.778762099741,428.513500708251,38.3044499640695,1071.47518872318,85.5886117523123,1100.24808698175,181.157225587703,601.535096313592,97.4727766408758,1302.41254813102,127.707511436891,1143.33110732648,186.897648018807,954.589446536181,187.020530448918,231.586125384885,33.5878906703488,204.622800095296,76.1805908500073,956.119387056177,364.810543475424,461.514179860197,258.262302838845,2123.6644042701,27.7180861382603,1984.67359117512,34.6674160033053
359.735541324022,-28.45111392514,809.326970498471,229.093844872689,428.086354818374,41.931223297098,1027.4671033144,88.6210878968376,1070.83209732619,178.902029590001,582.502719190407,99.0827971764816,1284.63804932065,126.407312157892,1112.54216518283,187.278712153219,930.172288496785,190.380787297241,219.452028985056,33.225595150216,192.336708294179,72.9652993690656,970.012887800234,341.950028405822,449.109701395699,262.695189175281,2082.88573676627,32.9271731575444,1952.46243704285,33.5215205585723
356.552765813026,-28.7520578662413,810.497585649934,225.198699338672,424.45737263646,32.9173447152513,1030.96171578797,87.7385334787025,1065.92113456094,182.644563310943,584.720485007189,98.638653049625,1290.36452778789,126.812901810118,1093.1936696704,193.432468457348,931.640973337857,187.874705395599,220.971018558201,33.3819493696546,194.674669006337,74.0771490017898,1055.59577152401,303.506076263783,446.183576069241,256.382570918816,2092.80566106886,28.7187935885378,1946.31094090556,47.8569259214627
360.089180814972,-28.9592494489627,823.476874492937,226.230152566331,428.483337443733,37.7900731385677,1068.90568141068,84.9859652787584,1099.3042914595,177.058035813181,600.312470129913,98.470103555434,1304.79033934645,127.325490418833,1137.43168444062,193.383384083472,952.437297444082,184.554672415158,231.279682750077,32.9226981783114,204.563094178478,76.4009433811523,997.551492560514,330.647993357938,467.936157555197,256.556559979141,2117.25975930052,30.1202186071276,1988.63733635057,34.7433412148715
366.459967976478,-30.2638966786174,839.83618970426,225.131973849754,443.356806685475,31.4683095673202,1077.14440101964,84.908083850269,1096.46215293092,189.109260109414,605.260897610677,97.2705752318949,1315.76811974991,132.608275525326,1156.29807396398,199.161175940892,964.815783404738,194.142518469755,225.344355800692,33.3274346569386,198.874570874456,74.638668886449,1085.3515541185,282.226153993082,462.943049370248,257.361497295986,2103.84391421155,29.1495323305915,1976.77288715272,43.4371276361268
356.796787707352,-28.4873316639934,815.622244940455,223.576443267501,431.14707709271,31.4989988674698,1034.87976483086,86.2497126462958,1068.07442814299,183.443811072322,587.925868378049,97.9773338602381,1287.48178216237,127.006389576434,1112.70443951972,194.46922832914,927.347397062721,197.976999739046,220.847360822982,33.5668555268284,193.415157776977,75.4201328430782,1010.94432474697,342.632311400292,454.489767712977,257.369481877558,2090.90007817915,31.9635836204776,1963.15750466699,42.79083898927
358.82106571867,-29.1538133677896,819.907464539968,226.851357498917,431.990371371578,32.4214024252763,1058.59468987551,84.5419778713246,1078.01895121637,194.635731160451,594.991243502229,99.5595577581496,1298.75196694516,133.908483142738,1133.5206930254,194.739212587955,953.392272518945,183.124829399015,228.216113946791,33.7349839764761,205.695263033203,74.5619046042396,1030.98607648066,317.928545458325,466.861441753279,261.818850589125,2126.19956400056,25.1801849811327,1980.76733363469,37.6826026609342
363.76365107238,-30.5677212520581,834.733945102541,228.123289175645,432.851667974875,38.1208738774815,1086.05051818401,81.2271179146665,1118.18413027831,176.158246953574,606.749749141276,98.7573984796268,1339.54176482554,121.121402925609,1153.81467942292,200.252882759065,968.271042232975,187.648393996953,229.160119488637,31.4690515958852,203.079046046133,75.5141072373743,1052.98337266681,353.272837457566,465.561733253728,258.096867538243,2108.81456779246,30.6698128052631,1987.98058067995,35.529922936653
355.208575684984,-28.0583651190436,816.598608733477,224.37500316067,430.713008538769,34.5245488362453,1036.67142126171,83.8582580671504,1079.18804123254,176.500857460947,585.848194707493,100.657002085759,1295.88715076137,122.164749333412,1108.18766119532,194.915737397497,937.300946808409,192.263771588982,222.73565284845,32.8480675335828,196.133119874841,73.9423997362998,1075.60319710186,306.132480981093,454.837768587158,261.585778933295,2096.30576631254,31.1823665397023,1968.07364197169,41.253131641315
355.838289019077,-28.579367925971,822.596269866681,225.241793511423,433.588819827678,36.9306775392028,1060.90219115983,84.3310320316884,1087.30363193386,188.955516021391,599.431817036946,99.8733536587793,1319.79967020704,122.508424123385,1145.77209987969,192.964583606901,950.617073820553,182.205757431134,229.52940289224,34.216470588798,206.421328631389,74.8670455386922,987.108441660528,326.245396416866,483.230664552626,248.784604967153,2124.69661537114,30.1153215582935,1993.13809203684,42.7435922147534
360.827729284933,-30.1106311642217,832.459572454782,227.77244137295,436.600866408568,33.3698286365352,1073.69711654173,83.145093184969,1099.78653768854,185.92460759523,602.193006374472,99.5298830530481,1328.54570838028,122.079781749633,1155.90223040934,192.873841297403,960.070927723506,186.778150926431,224.322876938267,33.7498026123784,200.41818096232,73.8627723563047,1037.69496589373,299.419240056945,459.552385637785,265.800917013616,2104.84133664533,30.8223765296547,1993.20271119736,33.9478896359212
350.663293553521,-26.6506826358234,811.104937121638,228.623388994242,425.404167948123,40.5800464993273,1034.77865378246,83.3246498132953,1066.05359363189,191.25154492318,585.791560532914,99.8866698921854,1285.45736196547,132.842070971274,1120.87408235454,187.197778829901,949.557776565493,184.190576635412,221.837467869206,33.7414765160276,199.329084474839,73.0828161348854,983.28221120247,342.602127030357,454.276889627907,259.303965246442,2093.37933894321,34.0899099692902,1958.50779002752,46.3933788477265
355.03029765022,-29.0895731019913,822.508584564511,228.126328115684,421.077413716622,39.8080848575273,1058.79788839204,83.8991838584489,1101.37656314663,179.312816793854,601.023583227728,97.6735829690473,1312.6208715665,131.06309235919,1148.71792632069,187.778064029694,959.06239610999,187.563009064861,231.316839802946,33.1543901540695,208.317933323434,73.8891609207041,1001.35057711203,355.564090578953,461.123362119942,265.975850021465,2121.15684281262,29.9393739902586,1980.02410670143,36.9365998401981
360.046638303575,-29.6055078283833,840.675634026639,223.806864121099,442.039776526688,36.8278105062842,1086.97691070642,80.9602356418332,1107.04118678662,188.480816002558,606.551747351005,99.8319934147292,1333.56187472065,132.60226908775,1179.00526821531,194.19234866916,968.934520519978,186.171699998023,229.030444525753,33.5239722460386,208.863156418032,73.9478159323742,1077.58385669986,302.307744591542,467.811209559687,264.393521616407,2110.84195420271,32.9744475326191,2030.33314453392,13.7752671968239
350.085505913699,-26.9980402138506,806.974106851208,230.881868869274,435.10379508297,28.4057205509832,1026.19287358975,84.2912370576163,1088.53148831141,173.127094750604,582.788304701238,100.807700532142,1265.63535669486,141.503207070736,1114.78590380905,194.19256570171,947.120299764944,182.835509950656,222.7234297383,32.2375751738883,196.08333722696,74.3468401116762,997.796844259198,358.676980768249,470.414082281342,249.802191728029,2091.43373756576,30.378668881914,1954.04763793348,56.5792118928975
351.764119142604,-26.7478779262438,817.708769991533,229.510528596855,438.837914179919,29.3593166727173,1053.80716795788,81.5407111276939,1091.71270622393,179.544598706223,591.023522937454,101.083777082378,1301.03769492,131.352449864926,1129.47397780401,196.806434539504,960.902461199241,186.742637834868,227.008207449244,33.5481041490293,205.024194160214,73.879186110067,1064.72158212342,345.234445513668,472.977552258717,255.672268079958,2114.57021594381,28.5598469665898,1958.46270489443,55.3870457737438
356.80241362745,-27.6956739251729,830.753831285393,229.752171912517,440.366787743516,34.8258178233601,1080.90690905868,82.2087472302929,1104.14992620362,189.013973969516,606.746282439227,98.4337465736094,1329.26984291222,129.596538299335,1174.65025878438,189.063250555729,950.667646977291,200.797500998122,230.461183337176,33.1233272486448,207.925293621465,74.2443278240869,1025.58795740821,341.764179300051,457.455853736913,266.591772609201,2104.86386774182,32.4419233319448,1999.31702768498,33.1336295085402
348.576675184905,-26.4575282417621,806.527674265062,230.515601142227,418.901460609812,43.2121214746265,1023.82483107929,85.4093148976539,1068.33119576986,183.622148526944,582.008415355312,100.047145449732,1302.76476861945,120.867555090548,1110.29349243704,193.62222263218,928.26953881559,194.411602511505,220.551632673899,33.3173531988529,197.483813967877,72.8553617140123,1046.80423215053,306.041058616426,465.903856375582,248.984958622327,2084.21113989176,31.1712035451894,1972.36343260877,30.1953944184163
350.590701343373,-26.911059782967,814.936010910024,229.578444782902,428.101468000439,37.9365730993852,1053.05693166284,81.4605787550262,1083.90556659588,181.125098228599,590.432183028345,100.769240987148,1293.89951382312,131.681665203548,1138.44661921907,185.455940811909,940.899848078589,198.749683151572,226.254042891321,34.4812241425383,205.303045017359,74.0734829207825,987.663910840057,359.542096618694,448.794781423095,269.452059816327,2103.38749759611,33.3361429872016,1974.63538250334,33.0378840505579
354.981723940083,-27.1885539303837,827.796819986861,230.288604420887,434.08370916318,36.1045525498956,1083.67187592439,78.5851778055655,1099.08845902292,185.761807208379,604.637086318057,97.7668169144109,1323.61529675287,131.943840976173,1157.41751288965,190.769359397837,965.829219656285,190.896227643555,226.995193877605,33.1305445188467,206.659233073624,73.8378919840046,977.054453609646,339.049918600171,462.940143946896,264.413880837948,2094.23240854532,33.0207365259164,1978.91284065565,41.3870748306319
347.214588780687,-25.4380115955432,803.990994995766,231.046169665493,427.582627300216,35.6094655583778,1027.76376716515,82.2263878935,1064.97511893424,184.034860932652,579.995701286823,101.722146604484,1263.11363472079,141.878567620231,1114.85505571667,192.878587345188,941.267353803579,188.498931470866,220.540818722709,33.7870936036604,197.911945427727,73.1103300180188,986.651205146092,291.212799047163,448.647433865508,264.100689653348,2079.08755360328,32.5599374188007,1938.22588404989,49.1161964542887
350.950253619559,-27.3752622656507,808.881764160432,232.155087541188,428.223383588189,35.3343062960148,1052.48063545851,80.9891483441752,1086.74155991323,182.494578234376,590.25496073689,99.774406189359,1294.68667728929,133.912063529441,1120.0939358472,197.799313046468,961.23971052709,188.150099692522,226.788377520444,32.8840114219103,205.752697601754,72.8302976721503,997.006431192538,311.897484417898,456.179166132618,262.187645177141,2097.70874451428,31.7629175266003,1974.56881006571,30.6602624630173
354.481717095243,-27.4391283361839,822.048094855028,228.5450966361,428.825907097751,38.3008579605143,1045.41508701505,79.0675531331548,1066.94999887708,186.927613133414,583.831307861435,101.844476483493,1291.62594517591,124.587027394546,1125.85050708156,187.570708476607,953.134856526856,188.652040787932,219.877807184985,32.5813154750854,195.699700920108,73.2386999644578,1087.73570530477,273.415907684224,463.829691531096,256.94675222161,2074.37742427075,35.7145609745379,1940.00534944655,43.4987589491695
346.980349937985,-25.6829871676136,802.429622556569,229.245824049514,425.113739333611,38.050710033043,1027.81902669872,82.4269147778987,1056.9173291881,185.223099326622,579.083635442562,99.3331559197829,1255.20680834281,137.187709421538,1090.72567786782,204.826491833901,922.336857287439,202.300853334328,218.247811139988,33.60853853016,195.120783996179,72.9923993103504,1072.15569721258,291.472173199493,451.955734501249,256.131288281119,2071.71715343402,30.852657734699,1945.78071554381,38.220475095362
350.693142945379,-26.661042978452,810.910837959441,229.58392448212,430.421808160088,33.2478981966716,1055.46472674547,81.2321117694507,1080.84093453621,181.118381763846,586.781808193823,102.143996591686,1296.5329216522,124.29745287624,1118.78458262747,197.614931004453,955.443317511322,189.350409047509,225.883751841955,32.7830139384345,205.44622802819,74.2188763399649,1082.97728624961,278.514030997755,473.496290128594,249.425806814009,2096.35896654595,28.0911271691435,1949.54839017378,44.0493497016106
347.557725567007,-24.3694993650687,809.871716773684,228.294114448335,423.429540841381,38.0375128986636,1021.49882381819,83.9490646788083,1065.7123508798,183.259259521729,577.620415067809,100.039439899943,1258.75195303364,134.95680523186,1088.6821760578,199.346854406061,917.929298253487,200.06862611629,216.054977230569,32.505145427952,193.833777364863,72.3902190053065,953.134421465802,350.48913093901,438.657097778707,260.859059201985,2056.6006153285,37.5613850885029,1930.66230942129,45.9671246408758
345.816054794466,-25.1906713778779,797.919298875428,228.916198978686,419.442721153093,35.3981251840458,1018.32950285222,83.3987894319387,1038.58758364392,202.253097642563,573.842450315937,100.275513870977,1264.12171044542,133.96051377728,1094.50057921522,196.274911820453,938.209064037328,190.033760037216,217.654427796616,32.617086361028,194.441560094124,72.9155020733089,988.402933546792,322.667218242581,458.331539739472,244.204207003902,2052.07296532636,37.2701727358639,1920.41357947736,36.0464794150481
348.788953927086,-25.5892581335127,809.66086960327,229.72934111642,423.359495972166,36.2284362614674,1056.21515410565,81.077962930101,1067.50873976747,192.772070540466,586.745299196296,100.070705531681,1279.1350372194,143.936599596361,1107.01145367365,203.83959422836,953.9665297202,186.859014086257,225.872738761832,32.6714544160481,203.846549516942,74.1948480665031,1036.56681902136,303.491033134536,454.005327041228,255.112154633601,2081.08304283214,34.8975743486094,1917.33432314703,51.7834867387542
348.520516452842,-24.9614232495826,807.269480856341,228.568713904079,424.022499747851,33.0503925769279,1022.26129854889,83.2972495709757,1062.68192080262,183.895571635724,576.286726780975,100.306442545266,1265.88366242655,131.660668435595,1091.0938955878,193.955786076152,937.593471833898,187.174834938664,215.707336817974,32.4729329208405,193.210945921334,71.1852082415206,1057.75977874851,292.264231230471,443.419502320055,259.268778616818,2043.27164255459,38.527365296133,1917.64704985896,48.520948598962
344.845114868726,-25.1036738313364,791.613478926317,230.216005656937,424.559199683946,33.4089982229718,1021.80072967919,82.6693049906608,1043.25706054822,189.094652164144,569.351553883806,101.910452153381,1242.53581702249,139.616898103656,1069.87886331618,211.692051792008,929.321464810018,196.525717163786,215.781987484666,33.8282641440594,191.954330937089,73.7564902738012,968.864305098104,354.782044705878,440.541343485408,250.622497308152,2042.14738605834,39.1787244241025,1903.34559112153,44.7001655623357
347.620095477342,-24.8789286312656,812.205028924835,225.598887545855,427.147613772711,31.8100385875213,1058.62703149191,79.8476040689922,1057.38427054342,188.972802048273,581.76499125618,102.668225840198,1274.12398744534,135.72557429351,1117.64835073901,191.526950378022,931.526992541776,199.805792464178,223.569885695607,34.0375602814964,204.864834603489,73.0665901626902,1034.37233200526,304.292784617465,455.843961470901,255.742842545497,2078.18526159351,32.3472610513822,1934.82664881425,40.7410305827262
353.387085444602,-25.1821435852452,818.283961755655,229.850716771298,433.49500426877,29.3528631896425,1058.72027316848,77.6295192287657,1083.12499316165,186.502389416917,584.916106103284,100.768027641004,1287.78726147851,140.937107865892,1110.79735349182,206.57388611605,955.76808208248,185.948074210113,217.027412443944,33.3719301655794,195.731971515935,72.9071092424186,1008.37318361677,324.750961085285,444.370749033477,257.275204722001,2052.53492388693,37.1097228468288,1916.90408487232,51.3167702962092
346.190925094466,-24.7083269690558,799.887435527935,224.936510323116,414.771104176166,45.5927487021005,1023.93306290236,82.6213616756338,1028.59896812617,199.569560586724,569.965213730339,102.432446493126,1253.25598084155,137.366354597069,1089.02908301694,191.315647256832,927.06563784056,200.352582040176,215.412020750169,33.2782492902413,191.375312332411,73.080417693678,927.29833398261,370.925912447125,445.391718031294,254.366538731437,2038.08815034798,41.1926765037332,1904.10628566963,47.1729388111408
346.878486660634,-24.2772286856985,803.792617317774,228.171183523219,419.862473369005,38.2267273726462,1050.33606193102,81.8596244626799,1066.10609311683,185.795970979279,579.278643977382,101.92419899104,1282.33071693839,127.888251692399,1088.50732078269,206.129185459868,925.842739811755,196.042383346194,223.760796961888,33.0052869327467,200.722947941889,74.6264370418916,933.518641171809,365.673623565561,468.597839252203,244.380070364257,2069.95462050717,38.7074431939106,1925.07291466467,42.0489356094513
353.90265387578,-25.2202947222354,813.906381830368,230.722717413296,420.656363400952,40.0128753037807,1051.44444392308,79.768029514843,1074.811081422,182.779275299046,583.979326050773,100.027511264154,1282.08644570343,131.738163945178,1105.22490756228,199.479812624935,938.789754936494,198.290654314249,216.143153260631,32.9735066798966,193.752675534055,72.6323130781783,913.957768680766,382.514412278189,441.871048348801,257.665916973967,2048.92238482814,38.1090757082048,1898.33826874755,61.0900920136303
347.312165183112,-25.4056477323199,794.689399353455,230.447854893924,416.895667060533,35.872535033317,1032.77478088733,79.288197403534,1044.39097387872,186.230441667704,568.532946882625,103.971820564152,1272.08221143827,126.694153173034,1081.95902923384,195.205321542628,935.278937302589,186.849617121252,217.851755669335,31.6103143356991,190.718399014196,73.8096706075463,917.200715207691,361.46223290652,434.667402953094,262.996732373707,2046.52571256872,38.3631990745602,1905.58140738198,46.8468723198339
349.520123182517,-23.5140576101924,799.776567581498,232.243851463146,420.792052680896,37.1992766665645,1056.34763623465,80.7874895735229,1063.05315733376,194.842245520004,582.07227152436,101.518307873076,1258.51868147528,139.229256139318,1106.23273816888,199.877667344017,942.272331559377,190.182401674805,225.76946043572,32.6077061415131,202.117223655728,73.7936189386791,1034.51989338188,272.40645053295,444.772981859095,260.5253402176,2074.65064239505,35.0214948163288,1896.70763335597,55.7418215137189
355.22450576808,-25.5168592363297,813.369619366341,235.089774625772,426.244885016516,35.200564363598,1081.1305687091,79.7399624132062,1067.17975225855,199.104010375423,587.940821732905,105.066221370639,1290.80352678403,134.006092189804,1111.49394785105,213.051874041733,939.802496619532,204.210274033249,221.692110678088,33.1611199636232,200.241812356852,73.8494654508537,972.209885461012,373.992160124472,445.894645391907,259.489605465114,2062.83142709557,37.4557868742537,1904.39386950291,56.9710136252936
348.057386615149,-24.9005537615808,790.956369302364,230.934469812619,418.687993187789,35.5822084921983,1027.53512118162,80.7993671097999,1034.29473598705,197.704502915902,568.350137447536,104.561861921353,1243.37407223917,141.174884370027,1064.71214783599,210.030999715301,931.614043565962,191.314000787712,216.949264165718,32.5326143808255,191.449595056083,74.0619295570695,935.675066185897,358.718118207711,447.855748099117,248.722132453522,2044.16383162665,40.6725339610204,1907.15107254622,43.0961689624498
348.44535237011,-23.9213020360989,798.176444750503,233.86025012014,405.988594333897,47.2562896202129,1054.3521955372,78.1115533227961,1037.97776711371,198.995772895088,579.168109849775,102.826411540967,1271.38340074245,131.825906724193,1097.0206454114,198.871482894676,943.084142753121,192.697361849338,225.189908453476,32.0906327204711,200.857615277962,73.8746798093472,996.691615577681,341.852438976828,446.712489285585,261.515382562513,2074.60004814808,36.0324713257572,1933.07472225554,48.8753375484298
355.939462213239,-26.6731442519668,813.430911134398,232.823428672423,425.554103663257,40.7457667204114,1086.51247518157,77.9020171027425,1074.96302253136,193.50416462138,591.994665196519,104.504053834913,1295.53572069045,137.976880871884,1145.21303791966,190.433585608182,957.520856971898,191.457132871679,229.937711653653,32.7754602280952,209.239428475523,74.0743178862661,1013.6869490226,355.134285398278,451.173248819937,263.113638439321,2081.25187788464,36.4028010015408,1943.50690131302,46.9597747636877
346.202069538942,-22.7548711269582,789.52610912604,233.948308687166,410.889610006013,42.6433496669646,1022.5590643403,79.6578119305371,1023.99262709111,196.908470430177,568.428172811701,104.221414952833,1254.14749176401,137.816491050339,1074.40996473448,198.832899009626,933.061823417226,195.670973922118,216.750233523317,32.2967656494132,193.879091400835,72.4150059437125,970.279345015293,319.121801373745,439.041323058331,254.113945987022,2051.5744431485,37.0679402333278,1893.10809372349,59.0696378057416
350.184769517268,-24.2935654133335,795.985141664658,235.847251502751,410.838044536957,42.3094326920739,1048.999736315,79.7156394732759,1061.78028796674,190.299031199564,576.773485668411,105.268961997061,1271.19621812563,137.917468389063,1083.18149420731,206.677452394045,937.366866461259,195.160690564175,221.378791317617,34.0816933409117,199.694673949665,73.3935626460926,938.398690474985,364.824803796195,452.777355132146,251.236530414753,2072.25416336751,36.9573712532365,1923.4591780935,55.3742098929548
353.877632948603,-25.2358825559384,817.575061909221,231.015449452962,424.273858766273,37.5035871083249,1084.99397724089,76.4159411051913,1084.60361430742,190.65469598391,591.243001292298,103.412536195433,1300.23963749549,136.041679507216,1117.56388644234,206.528961725113,954.970895064387,193.295854296064,231.983530284208,32.9264186524905,210.550251054631,75.23583597192,1057.99116839353,304.08664269133,440.926480510487,272.72556333788,2108.96319209861,33.3575756629497,1962.56419887095,47.7565479516555
352.283425281079,-25.2202492482817,800.21290694869,232.587773736294,418.97909412188,39.8645920477627,1030.64328358803,78.6508207941141,1048.0805998357,191.507602349514,569.925355422805,105.951979664012,1262.81251986312,143.504190611326,1072.42827050062,206.977327499237,942.518748097225,192.963084441204,216.235446720606,32.3452449113232,192.840217746814,71.633782310938,1032.99976079354,295.832689498127,441.895600922404,257.754248121136,2062.79052824013,34.8181674451511,1942.09123938266,41.3881661003681
349.87976161087,-23.4310609325779,799.176070936176,232.74835357566,428.155148273045,31.8059145741609,1043.36936553986,78.4480320614575,1071.1819612961,175.953903881542,575.582609963174,102.85794656762,1265.42974981345,143.825367077403,1083.21078263829,206.169448653511,939.530425180601,190.213362847528,222.111754247009,32.3180424257507,197.826540045464,74.048116874989,1082.23669367651,292.924052537666,444.084155389853,259.014910886152,2070.49652691718,38.6426994431544,1925.36362175501,43.5960707142623
356.709436960752,-26.1131395591728,804.608352750805,237.948189118954,432.211567737897,31.4441243682497,1078.12219679432,77.6096145792459,1065.31251209456,196.426646048535,586.410911979889,104.364223762903,1293.17602987563,136.763075473076,1127.27437330088,202.446751091908,954.322042676307,192.371373904558,230.868583690082,33.4316641471419,205.849964236397,76.1212680943949,1019.53486790814,356.862519041983,456.836219817598,261.59921511771,2111.59303651712,28.6625798598366,1966.22158091479,44.3562181617024
350.361371868718,-23.7936539631167,801.735338212648,232.778190338504,420.789730776802,34.8557014015339,1030.28930098319,79.4868077355379,1031.41181287876,195.764844346651,573.049669059253,102.6919165573,1253.25163956388,146.193442026431,1091.15424984628,205.945070090826,930.16070683737,198.10870049879,216.905616029807,32.8492074028367,192.110371488883,74.0833147250194,1045.92425521235,295.762683756838,436.957622481326,265.553066212023,2068.01017857696,37.7875774848881,1939.34888228635,44.7350146989807
351.686546192116,-24.6614921527058,797.620769026683,234.627395321862,414.408334738925,39.4677293974889,1045.71778098447,77.9873943378371,1053.98777493183,190.932329485671,575.600670322278,103.776369208234,1270.96327635796,132.93798924454,1088.01264921314,205.498064810637,924.495846714106,199.178270149702,222.203732241918,33.0366647998363,197.787303635296,74.9064849220016,1035.37243601171,271.901926928984,436.464734136323,264.446676556799,2084.57222161648,32.5175999059655,1932.25162499711,50.4060934363698
356.170039939534,-24.8464259969731,808.613758456846,235.648843748044,426.29559331654,36.8785224558033,1076.27040517105,77.9912058482724,1084.84240038735,188.063106653281,588.289524791793,103.800848653781,1293.06047160127,139.901496299228,1134.29791091707,200.116312333554,951.802112635966,195.442395971495,229.987081218389,33.4566194475166,208.020214617615,74.7258171238047,1030.4638351421,343.771257946719,452.308884421113,266.782765413657,2102.80793422428,31.8372252037767,1956.73084389047,45.9726907746437
349.989903614472,-23.308371534161,791.734452096109,234.346248731282,416.206183823697,39.7796535786337,1021.28605464962,83.392509964755,1037.43857166294,197.740852597082,568.480781965408,103.503391768547,1239.98464747317,152.565547493404,1070.18618753645,209.814160147644,940.895791106625,191.645263955298,216.926981864617,33.1423333477051,192.423323117662,73.4177302708389,1034.00276823205,303.07307777445,438.06914302835,257.491990677316,2064.39207708158,40.34044226151,1894.54983718601,65.4244529725207
351.881158111973,-23.9062726426841,797.711616788708,233.946740954827,410.274102974216,41.6523299674808,1050.65775563533,79.8666849259668,1051.4811839942,194.842566643519,574.386148863234,105.099594269267,1257.19025532208,145.355279400361,1088.69950197018,204.368646470517,933.056192772728,201.800677203221,222.73808820856,33.2167111169787,199.863442866066,74.3455950879044,1019.6631594855,313.790067847093,431.34194126072,271.266036705251,2075.80589279985,38.7235502046343,1918.15264262433,56.9071851148238
356.407944637329,-25.1757940117771,811.346843618752,236.537339453858,432.365637427515,37.4173667330328,1072.74225544657,78.333153303707,1079.98990278925,190.272222292354,582.175839809301,106.270138693236,1288.1735144726,135.420395823075,1104.92906176642,217.747438093026,942.920874173238,197.095715111705,220.571036950282,32.6542674429384,196.632891935163,74.4930017904814,993.48119266822,330.671144324948,439.137791005973,270.74300412791,2066.5861842099,36.9900589919966,1909.49532720945,74.583904053319
348.132564074943,-23.3276650755931,787.788140776986,233.077063248504,408.633561419066,43.0909957152161,1025.20299949834,79.9741608824996,1047.75912542798,184.133928018146,567.824467402326,102.917000498638,1248.92607065848,142.353044759286,1067.7146712407,205.205789500372,926.565886194593,198.583574888443,214.042402406056,33.2315431769264,189.937847319609,73.9326725597486,934.635915655162,401.407996027431,436.727620667015,258.384824100704,2053.32819228638,37.8696039859891,1878.55367844578,65.8368216095733
351.897884126856,-23.9597082299515,792.009101794514,234.675299639117,415.334647393962,42.942965965828,1049.38883070706,79.1844331102734,1049.48705963665,191.853131444427,573.199088666595,105.592057581198,1231.32016683156,158.170068808741,1069.64661589208,212.868475957571,940.242547568603,191.361390346525,221.865107992082,33.3115392447957,195.682242091108,76.7028017932971,1006.94817222773,341.885206948021,441.621954255479,259.372485277942,2072.99564820026,37.5934246152608,1903.51132299827,49.6536746196614
356.082528057405,-24.782840656789,808.430776558452,235.889875514409,417.090232086691,44.2433368687303,1074.90859892253,78.5377082835002,1068.0036033531,202.793501379721,584.42619861788,104.708766603157,1269.65370871685,145.713653317636,1100.58897963031,209.860859279926,948.14559346788,189.587776541746,220.25982617174,33.4770244999067,195.847252278457,74.9061977669775,976.603596284386,338.782333707633,434.016755653714,265.86612960344,2061.02979163814,38.7734435552669,1909.30063837658,44.8343082793155
348.107904432456,-22.9750271493128,777.964509181027,235.95829222376,396.747314555791,50.2471295945322,1018.80183840006,80.6566029850773,1034.64537008773,190.307017728023,560.579769253696,106.165225409283,1252.91720867556,134.118489948671,1056.94268734047,210.43492518882,918.41936834224,192.401171120204,212.636333748149,33.89466417096,187.562684109236,73.6860623630338,989.892500942829,345.434763244755,420.137465109638,262.135339698887,2031.85910277509,44.1680691296794,1865.16717658314,61.8540681785472
351.512964311286,-24.0282601313277,788.35864274878,236.306738692833,413.141852673137,40.1706199604876,1042.01591467725,80.7827174350298,1047.74142945586,195.761632341878,566.996595640626,105.573229014699,1240.40781472453,145.669456302371,1076.42305182235,206.289202519712,921.364028244185,200.402082928184,219.387853678213,32.5189020540637,196.072691149763,74.4456545644408,1007.92938971529,286.150436624512,422.658186005706,265.7151947507,2059.20933099684,37.2732169061471,1876.11057019213,54.4391314281439
356.70907842128,-24.2526831543093,802.491444933707,234.667453273578,417.523745304884,40.7744046374125,1075.58008026111,79.1630564099684,1076.60136860115,183.744854266706,582.788436768888,106.1560591404,1265.18682709674,147.791830902071,1090.26552063062,218.840767652798,943.379755912385,198.258866569509,227.46878990988,33.2628915111161,204.148641180293,75.2692615477445,1028.10854395464,305.700664620047,453.014489260783,256.77930281886,2086.82945137457,39.774913370045,1910.91159355606,53.0612059522774
352.357450964491,-25.0583015647313,785.110106544091,234.498764684796,405.71346889186,47.4380411673008,1017.61759844747,79.8518047054157,1009.94111399332,205.600095891191,558.804060219276,106.43552835612,1239.29104242784,139.067677559259,1056.1989941358,202.039177432065,913.45465330906,200.604098967806,213.161470550261,32.2494161887232,187.172159481064,73.1758959396237,995.878055122683,345.08977967436,420.599602685037,258.06963082289,2026.66298520271,46.7955520036208,1871.43644708537,59.5601118006978
352.184070195997,-24.6147056629191,786.598639329186,234.646882422899,413.645330646618,44.9073840502081,1035.94337929765,80.7600869793429,1022.00545996591,204.45170913712,561.2881033933,107.81715866232,1243.76777892018,138.167627438038,1050.78709983959,217.299311285592,916.680300582526,206.101505871691,217.208622538565,33.4115992265018,191.224849756679,75.5037244244516,955.458925412481,352.815404220319,438.995928730625,249.908456065499,2038.21033450955,46.8438898320726,1880.38784750118,57.5203524687855
354.743252281086,-23.7799741896649,795.298280609266,236.709062451006,413.578693048156,40.4351317360888,1069.63640438439,77.9168716666349,1047.25399838463,198.766184011975,578.472197317273,105.033160414218,1257.25380124654,146.389641701557,1087.18753129114,209.574064041538,929.507834457123,198.174765325567,226.724348656512,32.9508708867643,199.553706062284,75.3414400304685,1040.86592536986,291.687144738634,438.69902761054,258.063748257926,2074.18905584099,41.1225059992288,1897.83811152255,58.4728649248895
349.068382724432,-22.9140081510056,779.275001372448,235.996314321297,409.3541933009,40.5157235142999,1018.68897630698,78.3376425775392,1009.46057260883,197.394366673385,556.489999570727,107.069187315713,1210.33580303501,157.398455065072,1035.64274397373,211.315849917846,919.036060647599,192.372550689964,212.617656971126,32.9183852003291,185.73819554821,73.1900373536689,967.968271733217,340.333026472301,429.608226480601,254.938154244093,2024.34334544992,45.8767239314704,1854.56779429544,65.9836691831797
351.071819126692,-22.6318853927394,781.013427234696,236.709223778571,420.708758338702,33.2253602699343,1034.18563166887,84.0230163624275,1020.82595875211,207.97826353201,566.383310971411,105.77951560514,1238.61743347237,146.000735077758,1054.08756117238,210.395201305669,919.285159336809,196.537805512274,219.068561654552,32.8117843525082,190.712222206828,75.744017210637,966.789629835519,322.615322498339,434.821426476454,257.864603426575,2042.76680057098,43.6547729374425,1856.84052397522,65.9110874808906
358.305143224939,-24.8855403092199,795.613554849954,238.595346037544,417.439162703238,41.7302596136208,1072.43292611791,77.7880243549343,1045.1574823531,189.392461419615,574.222908719481,107.546281006332,1249.05535956404,151.982710098317,1080.05722309992,215.719463438079,938.873052139241,193.935930627382,225.773558206119,33.1388878986559,198.856490913375,76.6721237222256,1029.72541160256,295.756189654377,428.140500084431,270.188920299311,2067.3573760202,40.5732694996554,1888.50528206669,64.8005470217949
349.570475524972,-23.8012491201962,775.896840304255,237.302577047752,402.568659080789,46.1358557235165,1015.40901082564,79.1685963239691,1021.60705729736,196.746829474305,554.697981723075,107.348811968023,1209.18898113385,157.445839920165,1038.93147768718,209.257817601611,894.499154199552,200.228177820322,210.857721479347,34.0887923117136,184.768067410045,73.5634355170761,998.559053777989,289.419790814179,418.309637225062,258.990798532877,2021.77249722568,48.1571359342951,1850.2227997386,68.5037897181874
351.858921311674,-23.7028186497995,778.965848443394,238.972417273468,410.484789851366,38.0383767376072,1035.52994144889,80.5867260064491,1036.46379993147,194.33793364167,560.907859286997,109.216807639831,1226.92382202801,150.25860787182,1042.48314281348,217.300557683515,918.455569951616,195.905372727154,218.28895955756,33.5689127617839,189.803269753177,76.1509362113206,980.723289583433,300.446554531855,422.324684673053,262.805900670233,2037.08961598178,45.0570642086363,1871.48401856648,57.9528596392597
355.17930245651,-23.7007704760746,792.444629693115,240.490628167529,409.085355460697,39.5545124033542,1069.97699054028,78.3489456184698,1039.1872329611,207.960640604424,578.320769648787,105.615412623684,1246.9207513393,157.13268821547,1082.90985234701,207.587073713211,922.403998321244,202.449633517873,226.25881681075,34.1753331051108,199.277381401777,76.4000510760417,966.426080122786,380.561998784674,437.519468635585,262.559471681103,2075.77715202521,40.6390676835639,1893.4482740239,65.6644252217188
353.299427498792,-23.8861290235779,784.656931852402,237.647382317421,414.678420823277,42.1857510359096,1019.61649502414,81.3698617278677,1014.369710215,200.370830137138,560.595199027045,107.355035204363,1232.91180379403,147.761627028387,1037.6420316049,216.117327584993,901.332679413651,205.663616196776,212.39905871527,32.9411735241772,183.451871765227,75.1826636337404,1036.11797816741,282.119613717836,414.898636689245,267.233376188885,2024.55883449133,48.5059903215458,1881.11806500946,63.9742102358259
349.823839366859,-23.1646798811349,777.791649073785,237.721995183519,401.153338856507,41.2149641650803,1024.79914835413,77.0694172678604,1028.10821132357,189.832040453955,557.326224109913,108.620364946318,1217.04245214276,158.618129638333,1042.6300495296,212.357432799319,909.771889534422,197.646710669264,214.524542165307,33.5175434707027,187.044721452051,75.0201380021237,966.604968032319,327.562646236961,414.860799628987,261.151974094663,2036.65935380619,43.0355808635438,1864.5732081638,64.4562837272904
353.664821520165,-23.1119497274525,787.797515630574,239.828323224977,405.430158556043,44.6832194066304,1051.63543878155,79.8908836449084,1019.00326925208,206.173838367713,568.178840929122,109.354282430585,1247.72113591681,150.25867137205,1057.73302721249,224.872444302198,915.924639802788,203.59024175263,221.051880349469,33.814658706259,195.304433715402,75.1083395981238,971.77747371142,383.261550475795,426.947884004055,271.336676880051,2065.86924195884,42.6146265768501,1899.48198069556,61.4723947933922
360.892323797865,-25.433024898283,804.9835287549,239.193498575213,414.36916943523,44.2161660406318,1084.65106086602,76.8842950688749,1058.03960297446,203.181386262257,583.475943294889,108.770673411491,1276.08834230436,153.010167765082,1102.65973090823,220.825727341472,938.43255876675,204.874106078537,228.205554267157,33.3500378967609,203.319677433096,76.1116523988715,975.569089774309,341.333717960063,441.810414094803,271.64319245688,2073.96617419052,41.2092034214645,1909.26238019465,63.7230046091222
351.225044164234,-24.44775987167,778.209496508967,238.03601362506,400.861045533048,51.0365002885893,1023.66552815077,77.2647955023016,1024.68891483414,197.875096079636,557.91085816383,107.574412677226,1219.69877249256,155.817222583209,1045.59606184865,216.950902276493,916.513083742218,194.39976752252,215.520513207073,32.9522181575195,188.103318046211,73.5869011311709,966.007959414719,343.459624767022,418.899271209577,265.542773875882,2046.20163380845,45.4758399555668,1866.1440219373,82.61647285089
