358.453497844303,-25.4289783876016,773.073674651507,245.611149233793,409.904570100905,41.1685037113023,1059.03046902513,77.4387459369259,1011.73116802026,208.196344879875,560.251097100745,112.990310942516,1215.22506910474,172.328093975196,1063.65882074219,215.149735294107,912.020954392187,201.778185934907,217.561917276538,35.4451816853101,190.464927000318,77.1102937333605,857.772915874907,419.064474713238,412.016047713549,271.365406101968,2006.80170571338,54.4608188113571,1847.73375040509,69.4989553254329
360.363603852913,-24.8612402700606,790.475992562622,243.066709451506,407.311190640063,47.9443936851623,1089.34866998582,76.3548611533684,1033.96083998302,213.988350445247,576.770053803828,109.991558123814,1257.00774393612,156.860909583155,1065.05136798324,236.763827588926,923.318319993001,209.263986870829,228.720417247969,34.2197967316438,197.211860268294,79.4433645678243,919.443307121129,393.046835984442,422.143257374207,279.411191318176,2035.31822790044,50.8519012856561,1878.49155624084,68.6731429352553
355.171348806943,-23.6680938325938,771.117659685506,243.309901466479,401.291371745878,50.3032376732614,1038.55056941263,78.5519287003151,1005.5623163981,209.924778829073,553.67413809172,111.982925548774,1221.02486320565,156.719967936413,1036.05938868215,221.155808452009,890.681310841453,209.983235588173,213.349702175722,34.0304871519819,181.894718107742,77.7986347091976,986.992591851104,280.658607099462,412.491848152187,264.214185861472,1976.70206562894,57.7989958507252,1828.20035322589,72.5528006921007
354.365596827269,-22.519677824562,775.206305249208,239.193430826699,417.376923438557,39.1855717273641,1057.01817095798,78.5795320578483,1013.26994555547,203.883299158039,558.745830906093,111.198697922727,1225.74312550371,158.66834656092,1045.41884258113,223.302329825802,907.177329704976,203.341938962901,218.869232162697,34.8043310147732,186.459727774976,78.2885748647669,904.818671909283,350.033436628095,410.156733237999,268.194074137246,1991.57324647121,56.2489088214494,1822.02380021325,81.9456656345691
360.923305615343,-25.0062956382976,785.429279097726,244.831796837424,407.885991647773,47.2575686101125,1090.5612588143,76.1471371486313,1024.12642267081,212.941628433099,574.451646117686,110.130519717932,1231.00162683944,167.49116600513,1073.82120586821,234.27804470471,923.641872898525,207.995531506445,226.484542137291,34.0392654708617,197.137447294576,78.8045677709843,975.172752076482,335.153054679246,425.836584231086,270.214118668065,2013.53566779249,58.0606725665404,1851.96293759872,85.4947410536327
354.782944374315,-24.1879458632304,770.566784698437,239.605979172499,394.071252668183,49.7724422836086,1033.88277590857,81.0523843105395,1001.94874291788,201.654324848272,554.612114031019,111.067862006182,1216.73831198875,159.014172661713,1035.53251509277,224.290054386926,884.159401866557,213.31355111595,213.043939935298,34.9091127366436,182.83715696748,76.4573845349559,943.127866930046,335.942679713151,397.757767019196,268.89690492677,1965.88198855303,61.0767694225838,1839.54064361234,66.894958386536
354.719204254887,-22.7106206071458,766.773137133348,248.09504291672,394.483166875706,50.3002828733061,1056.55150731483,80.7867064040201,1008.69125708009,206.381446548226,560.139705326632,111.761810906321,1212.17732176212,166.64519648547,1035.19978203303,224.948744904124,882.014222286026,212.467320539789,218.562281229765,34.3745937618175,189.569564175314,77.8845724179356,905.880768743648,373.318998369371,412.916234152812,272.398775094467,1975.94496569874,60.5048843831937,1826.49729990625,72.3143899637427
361.591599595471,-24.9150874721198,787.671349398957,240.963989981406,418.343998072448,39.6716216345489,1093.10180311175,76.2942842858586,1034.22589462838,201.631140654007,572.137082474621,111.216525879542,1255.5465511173,156.578934780921,1081.53066013464,221.777903202361,922.836755159255,206.725705221272,226.19676542952,35.1012462320532,197.669290066156,78.7610383132509,932.609998049695,369.565553376755,426.418623217442,273.485352274519,2016.70007115039,52.369475692946,1863.10415867951,80.1869139434746
354.985486277147,-23.6677161135167,764.60008039908,243.033870228592,406.661036455124,44.8892817604288,1031.03631865042,79.9711915518816,974.480862648074,213.953894988757,549.686709800832,112.056139389654,1216.45737572957,154.884293240232,1031.08521001883,223.706625870855,895.796948183915,203.054720581073,210.830281394883,34.9434767826295,180.402899144676,77.2664105765562,930.009348860257,368.132509143746,408.578728611088,257.912912195662,1956.54078395756,61.1929548921825,1819.65232782299,82.6987231192839
354.725719742844,-23.3173129551923,766.101888865788,243.679241667947,400.414540552091,47.2472281642483,1054.62327363583,77.6402467053228,1011.97747582112,198.831734768529,558.833317918154,111.234720940379,1220.72802818223,154.64651844654,1044.23385272189,218.09348533391,905.899336208375,202.198532228112,217.650955469271,34.2691827878196,186.646254083931,76.9205523389815,917.193541849109,375.387097124218,406.790292970906,275.515202213195,1972.14542660315,58.9492782206279,1813.32136873998,94.6771910629236
359.808264411901,-24.4133503517303,778.788394456687,246.113681201389,416.20458295745,40.3177460847642,1089.55611967384,73.1158561767842,1023.47848673599,203.446543855701,570.824454494454,110.418085533678,1240.55268418334,163.079671402246,1076.76505346491,225.206857213108,907.337361154315,214.001438202892,224.000717793568,35.1477214517874,193.944406307372,79.8719919857489,916.437477468509,370.270308890335,423.620307547477,271.261593626275,2005.00641408038,54.9131774765794,1858.73566255199,76.7524888545235
357.035246519537,-23.7380106237847,769.178779157089,243.821492248775,395.171924779456,51.5379661901552,1039.51287950382,77.072910849535,985.812847224143,210.368974807615,550.800572499881,113.396001938544,1218.21494395843,159.60147666725,1030.00084762062,218.330223207638,885.728131713314,212.532944713455,212.828887117494,33.4470200804608,177.969481619256,77.7621984602926,909.336412707348,351.150754497119,401.234812373023,269.136925450264,1951.47052982794,60.8085875696165,1811.49125084998,80.4368571912619
355.938830702516,-24.7384844226191,761.675328187724,244.267076038938,406.188522202199,41.5136308035281,1048.35936853687,76.8944403530877,1004.60379298546,192.984785912466,552.82063412225,113.356831276497,1200.00404207553,165.413854974338,1034.92611074522,217.591150606711,878.67832385224,213.356985700845,216.632283813014,33.7917988993692,182.681619683992,77.9159248578465,873.281946443443,381.86454417871,404.672676594984,268.768775719342,1963.14248555015,59.7840045179338,1816.15567657728,88.4822567842098
361.680346996533,-25.6028776665608,776.110943318713,241.896787324292,412.654670151656,45.0501111991265,1080.93968698367,74.9926527238958,1024.12636175547,202.096363392436,569.353542150837,110.4215887366,1224.64355250301,172.944580719407,1082.99318930581,213.189827857342,913.911047015123,208.598306049486,223.772520029704,34.4632089058282,192.214425851494,79.356030604904,951.631533352466,324.82204209463,428.946111999742,264.859295370117,1989.7514970451,61.1456581220673,1874.57833982168,61.9733348668207
362.500699864024,-25.5674752706641,784.998849286143,241.695548180178,413.84773320623,44.7122606012285,1061.37252936245,75.9538591254992,1001.39033244416,208.420606652882,561.521261805797,112.038846160365,1223.49028201452,164.318885659058,1043.5836413778,234.048841208296,899.982250529124,204.946482657126,215.344577278932,34.67338784205,181.780884460337,77.4577483426999,909.405212023709,361.403820354622,404.33656979949,275.075866920606,1965.52998252419,62.9820940477089,1843.63197991973,85.5211831056635
354.570003048101,-23.9770032666266,766.95503514615,241.62562015782,395.155015024859,49.2232190241743,1044.91360070102,77.272214338931,986.631994588401,210.860297056969,553.655152138725,111.654419402956,1209.55610785012,161.842185121388,1018.71216546351,233.779333536028,903.959411747917,204.474972069217,214.246669151057,34.9365885693402,182.48303751973,76.8332688623463,917.748868027569,353.069903838017,415.614994400876,262.936849484718,1961.13602390858,62.3353585624553,1825.36593091297,85.2995330001288
359.478193242243,-25.9002709476571,778.822623285462,239.557405753698,398.768534760478,50.2630963461274,1072.2051279159,74.8142739500032,1005.62446353015,216.889096293444,563.016443103459,112.052551092148,1225.94169126582,164.07306258538,1048.83997850222,227.578537928031,893.948972248846,218.081565942528,221.956765699336,33.8113901190078,191.624538111616,78.5678177056527,958.584923286019,317.106224734903,417.552311715031,273.965783271984,1995.27226274056,56.7432189961022,1878.81290017861,71.7249158466785
359.446990243481,-25.1645000267917,782.839284793086,241.819952352247,418.960686178511,42.4645166748414,1055.91857217661,74.9035056704359,1005.77145626659,207.131267455287,557.747104848421,111.969884483031,1217.87444316224,174.090206113745,1044.58595766448,223.345151232902,896.029957552606,207.623137935709,213.617546813918,35.0370215717075,183.921632264818,76.6419032259457,974.559573477042,309.942152577723,413.000178422816,267.414517362417,1973.58970601833,61.008014160216,1855.16322459144,74.3167311281723
353.38931432947,-23.5766379927787,765.11430121948,241.325946954335,414.906157227375,36.4843267286053,1047.59643773768,75.1506182050125,985.687224270611,209.010028769089,554.030449063982,111.769252406332,1212.95004146171,163.020900122083,1034.94223350842,220.456935743565,905.397629020445,201.36599396921,213.961687994026,35.663826999157,181.215855436199,78.8901392828221,930.461743314739,337.444923548865,416.339408661579,269.767589570876,1974.01535039258,64.0286488113203,1845.46052948641,62.1078945876415
358.742127341405,-25.3191769117593,772.768014278447,243.901134365776,396.905796502265,51.8885335721543,1078.85254623273,72.1687164658498,1014.495234057,207.823866999505,564.389376948403,112.749164008667,1218.74152783395,169.394691445329,1061.70264778143,221.642125484389,887.253527284158,215.254116432702,224.160442646495,34.4970823029553,192.150172838297,79.676255287908,954.814925847755,356.459874899093,428.375281617592,269.956526355207,2012.43117509357,55.4303234384698,1880.05904663732,71.3028941989014
360.159006054174,-25.4759063332666,781.956704520461,240.929602512348,411.745581966054,44.9680427500035,1056.70389844216,74.4831262373804,1001.84794671021,208.454598606346,561.102140280226,110.535088662758,1221.11277494231,168.122581931349,1061.64406864525,217.610171931966,905.896148526765,204.82839510661,214.377596037057,34.8361946645052,182.020957286231,77.4192035489483,858.730995202025,359.14871848683,416.109492097104,271.67883701208,1986.96090312302,54.9210023659038,1858.54835926398,73.52706345831
353.784903022572,-23.9180371404603,763.650205853641,241.38132989185,409.621856645095,39.7750060959546,1044.88521198034,77.4935836237202,985.645311818147,201.98059326643,555.567903499538,110.712892299888,1203.70983485639,168.884071129937,1025.28509031833,231.032476271815,889.565196839032,213.886298816251,215.906656892861,33.5235730484889,181.827550934793,78.8307639849221,904.572331434757,340.338760054872,404.926206122348,274.83252309458,1982.26466345582,63.3268971099424,1822.155591226,86.1680182848147
356.570857526523,-24.6062904644671,773.508259875984,243.819769986381,398.237570731633,51.3527047115024,1074.65213153836,72.471773130621,1016.98669136112,205.196593515701,566.009245749638,110.297568511402,1222.70408200719,169.550626415726,1074.21553619033,213.980719095942,905.305491302856,203.948723855482,221.214206476995,35.0492809133567,192.342318270779,78.7574754892611,963.295291461375,335.919310651284,424.478787289962,269.740621810326,2019.38787911542,55.7094325159416,1853.63729670457,78.0738726180307
361.853139942859,-26.2296639647456,790.013215133096,241.854821311581,420.243384153126,42.947996728868,1084.76398302133,72.1360151302597,1014.52542188779,202.274073222788,567.923767629421,111.943418143083,1257.79511028232,151.119359261507,1082.66259483249,219.403240598738,905.434522192224,215.911806915346,216.528695297485,34.4817976848775,185.074167497105,78.7559624998224,882.684457067269,394.409923844338,413.456461067394,278.223835391047,2000.12904029686,59.9256248436254,1848.07013688592,69.7349627475788
350.560972214182,-23.3959894394,770.96093851601,237.373456494896,394.981751492156,46.8105414346609,1040.20805394556,75.2511704984262,986.055193469079,209.026076863857,550.273718874527,112.236948276723,1209.23934526579,165.535295850127,1026.1402349283,229.991987596113,882.861500992279,217.101598750765,213.181376389251,35.1637935579277,183.510842144845,76.4747033867336,984.311794259676,306.896561212169,408.581517071955,272.476011572757,1988.3746856938,60.21794792806,1821.7087890083,85.4795814383829
354.636297521733,-24.3310980374326,771.851772207186,241.821828238362,394.006004835977,47.8752040810756,1062.05679064185,76.5373368680228,1016.18732041453,205.061475361187,562.506626217777,111.421788983112,1224.67361227179,162.07692858087,1055.78232804737,223.153236160406,912.357848195719,200.071680755298,221.68735743169,33.9269050363675,190.169990924914,79.6302079123741,865.036447173504,375.80884487683,424.618463821509,275.193058708214,2014.64393735898,55.010719697129,1843.21687646738,80.1712834788375
359.135368581758,-24.6673874900381,785.399821640459,243.632768453084,419.595879826955,44.0691821883587,1095.7230021215,74.2248746506826,1025.87768077498,214.369710882962,576.738844886134,110.504818936983,1239.3044603001,171.582647243792,1098.20581239074,216.384973933781,922.937114373485,206.25974844472,227.129598118254,35.85786922602,200.723921075314,79.2039816769936,1041.08320254451,291.52313719751,424.052874441755,277.560019815239,2051.89765699365,52.7038152946368,1874.77289787568,82.0231003162807
352.163251998474,-24.1262123701075,767.616465167623,241.193787050191,407.727043986498,41.6659795393296,1038.3858139011,73.4940321169449,989.726558757567,205.075981524348,549.607951633006,112.327133569633,1212.11616361308,162.063593960192,1028.61635918295,232.898466913234,889.520173820473,203.241680652034,212.01569287055,35.2553314522203,180.757591138881,77.6142103658808,952.243524407701,325.089946526338,408.307477282381,263.993629100899,1998.6460699284,54.9351454560015,1836.02935803263,80.1660831956419
352.476781401627,-23.7574295122406,765.131980522791,243.998100389619,397.534769572944,47.1987471563943,1054.72103134185,76.4660070811034,1007.67956486028,206.323458452483,557.855357154061,110.338494944117,1216.14143027987,166.684332724833,1041.11867371985,230.37843271396,888.353750445972,209.440912622625,217.58684036256,35.255277252637,185.898092297284,79.6554601926925,926.61099654504,362.677554522276,413.285605020112,276.84165807537,2010.36943852339,59.7044856392732,1845.5650640811,79.9962944279333
358.243660711125,-25.2193441320214,780.545509224652,242.775042581623,411.926935722286,38.851195440954,1088.00331192606,72.8583345220226,1013.67811328035,209.160714006514,569.445840513318,111.51530750358,1243.0350490356,167.578762754996,1076.78547227584,228.337557705835,898.525826205547,216.540866491281,224.917200864227,35.4809646528935,194.407660189372,80.5740437573175,974.487119853237,330.941422595239,411.584880100255,280.456155502858,2037.28808667119,55.2609267307947,1873.39398154006,66.1277117029711
352.399908639277,-23.4485090033703,764.830977708266,242.176069131356,397.788866325488,49.0553757631787,1036.19594220021,74.6222443371157,981.216741694249,206.460561454322,550.73901289255,112.512685303844,1201.59739867554,167.080951740198,1041.38877130891,217.026393431667,887.989362094796,213.305120551751,212.011373432245,35.2354509444037,180.971422527919,77.4652490969244,971.596241509221,347.88495939889,421.884732710376,259.906935859044,1997.95804933546,59.6737332052542,1842.91168701313,76.3389030089849
353.967426807699,-24.8056179057996,770.462923634144,240.586049570565,402.499508933749,46.8863867855346,1056.01576513682,73.3060137088183,999.872954910944,209.307790885398,560.645854344957,110.356743670132,1228.6380659614,156.990666851013,1047.95634398713,222.011636291224,900.887249328029,211.303693578579,217.640439458056,35.2537695645395,189.888975261555,76.893890097797,933.366509710145,342.668701579199,425.282991799,258.527474601691,2008.55833631535,58.3819172904415,1836.38587641192,81.8921216234243
359.510364107966,-25.4195357462758,784.202101522979,241.630567838605,415.195395843854,41.4138920882498,1089.45871791975,70.3617047472011,1027.91022855587,199.961361098176,571.108946800721,110.827116171429,1250.68080719187,155.227746313913,1075.74662109533,231.818241463264,915.753392262934,202.712506510195,225.578414912205,35.3122609829008,194.907550579494,81.0535572385761,1006.22181619535,338.393607641149,419.763868506939,273.925912704954,2028.52361763824,51.155621268359,1865.92146653856,74.858194462248
350.709497845816,-23.6821128987927,764.995183416387,239.435536826193,402.752564559352,50.7675278794849,1036.22653476799,73.7512202351452,978.706416322944,208.672064259035,551.716891491194,110.513640123809,1211.06468628519,160.554455619868,1033.06256218176,217.528307369694,885.719554517035,214.045735492931,212.475479476587,34.9746294613577,181.986708697151,77.9422967457807,900.838886586287,334.064122262116,408.970970225717,269.255960495941,1992.70313193599,60.4084224123012,1819.64266769268,79.022399307148
354.249698378221,-24.8667338928348,768.745412970826,240.885569603497,400.783041218061,46.81016961105,1059.29968173075,71.9575559655035,1001.83270800062,205.80437797092,556.04552118037,112.43033983057,1225.3580389896,160.659138849116,1057.81457512274,214.681917592915,894.269953010207,211.098909826914,219.678064796342,33.7835056919296,189.089519445839,78.2750897724275,924.254806956747,356.011703298477,422.567313546062,262.733481813708,2008.40198518527,59.3932813584854,1831.25976583914,81.2540590803174
357.116842901417,-24.8385631979887,782.650217967861,243.179810044562,405.132311025221,49.5536852259907,1084.82928915933,73.1047526163739,1022.6128256676,203.105519533026,568.401830504593,110.278502620812,1249.9619600782,159.652536411071,1088.99509818245,214.835072537616,915.621237457304,212.929363393077,218.881964742218,33.660548987209,188.095871785192,79.7961812318374,927.92541408158,346.589878806489,413.898462683195,269.084776314735,2000.05805158334,58.5170100839405,1848.6429216238,71.9189955368471
349.55482111136,-22.9488865057305,759.39467583729,239.290739898201,408.265432993316,41.3990347666556,1030.29302384987,75.7039168752886,983.844841921991,202.927252883349,548.741622891977,110.757380304423,1203.22602960625,163.609432440149,1016.76149002958,227.427940234764,889.049067068369,204.452573164873,210.539614701569,35.5197220533335,178.392027655745,78.5371451172546,902.82977741608,338.686248237446,393.516633439745,265.973872852454,1967.90985687345,67.9551846195887,1808.92999219801,76.42930489479
351.235100656952,-23.9626650437486,766.006587330039,239.60469625582,395.182786532438,47.569144922669,1051.93507159089,75.5939158759419,1001.88463360764,202.635038180578,558.078355717915,109.107410854793,1212.92699249888,164.191983122077,1053.3314846561,214.645266605908,900.554683939634,211.541668921819,215.218748006367,36.6583656919246,186.516134588968,78.3018867960019,988.947044046186,305.001621441974,413.202142176941,266.840683595736,1991.72904063664,64.3086434260144,1829.53934494967,72.6346453240463
356.09267063517,-24.1971519057563,778.415122874654,241.692935670586,407.887000733309,48.4616380310156,1087.35727495857,68.8642348413868,1035.47319143874,195.224665530636,571.489576034849,107.810505249338,1238.65177935701,158.069631115069,1076.9299655246,225.361881562288,911.793702317813,209.158033423177,223.134660551944,35.1261402852208,195.088121348077,79.7741143848169,954.683638321952,315.242606260844,414.743042279502,275.469898849765,2018.58939878043,57.4405125292291,1846.47455427484,74.3719317872888
349.512471016873,-23.7006550292843,756.484975315587,238.451847207337,397.424856938786,46.9143652103497,1023.03831472108,73.3044377485661,971.078420679411,210.667594279457,546.423369509256,109.291556604115,1185.41989917619,177.438192237498,1022.86547153081,219.587633800227,887.868703828339,204.444116516405,208.935847247788,34.2520763589822,178.516935581716,77.6197949257203,818.273505131044,402.966575827045,411.497812505925,259.319282301813,1966.41372748406,65.0308788133032,1782.45364373697,90.02570257168
350.79556327363,-24.1426455830687,762.388044745266,238.799916188034,396.537197358239,43.1382564750519,1049.61402340269,71.3262200025373,987.842695047005,213.621392272131,555.795754276317,107.555559736902,1204.36242955462,157.631592417729,1039.65608264822,219.786911817411,897.33271733192,206.886480961723,213.202780512795,35.1753379013595,184.317121956414,78.2262176778223,1022.98426585592,259.966744595666,399.51646149218,274.327270536987,1984.1686800053,59.9208214185018,1809.44388302871,76.7279768661819
355.648487901213,-24.7929811806744,773.278155586947,243.59331865191,405.342256650652,42.7814487055264,1081.03722396546,72.4811816411222,1017.45832599529,203.108427153495,566.13037452928,108.243714508314,1219.76345055556,170.036751891575,1083.10984114579,216.14390714575,907.744941630686,207.36452480393,224.025794571485,34.817643472783,191.038619690279,80.8842902030134,884.287696102938,391.186203972628,419.526336814613,260.168296258157,2015.81873136809,59.4341417317807,1851.312954938,71.1231143900948
352.519826408603,-24.1899891707389,763.827382665089,243.272415239296,399.992730612241,47.2785352956751,1036.58154789818,73.1138910905437,979.676974367469,210.52559823261,550.489402934553,109.774076250408,1213.90098926219,160.928435841132,1040.82631669914,213.25039475385,891.676646636815,205.326196286356,209.48955584851,34.6979473008864,178.365820334825,77.2322521500418,898.964643688945,337.874632701145,415.950348997532,256.190741794074,1975.69401109374,62.2380813498839,1816.75355883792,82.0097813212855
351.347188761193,-23.8214019683336,761.669045843084,240.225248400883,393.722548474509,47.7315612253822,1040.54465235116,73.6778445435106,979.157442423569,211.102745695861,548.973045079904,109.869441408877,1210.60318236284,156.24609864636,1038.42054752053,217.245903961961,881.869989954741,216.33233002569,213.193205476822,34.856234918462,180.658049098793,78.2144082275684,913.503648848078,361.697490391975,403.339685525336,263.242274287811,1983.08615772437,61.4901296132862,1819.71829850672,79.1606606101285
353.229442063745,-23.4276055832952,773.648546212133,241.123927909265,404.676210166328,41.0021631592864,1071.80002768582,73.5646195712098,1024.73114821386,200.050512220453,565.978512027469,107.980305933245,1226.64878226763,169.384522856318,1059.11290563253,227.967376176067,912.361146132544,200.694989818826,222.368663688036,34.6109344844932,192.45955468009,77.6674656294969,932.912502232762,361.080966850667,408.257901951424,271.878938706224,2019.91860983417,54.3356840347804,1853.66367527271,66.8638595921846
352.553130099312,-24.7535656664093,769.138943429563,238.346611106513,405.174520624836,42.9842727568852,1039.92938173684,70.2758860037738,969.555404921466,214.196963748135,552.426709068863,107.604621468436,1212.26144188081,163.382114659072,1036.14628343553,216.387243155315,885.588597650726,209.897240882829,210.418783922645,34.2973264667743,176.060622973773,79.4617986867678,948.662707277309,316.507156697766,412.834377230389,256.98762655425,1982.15389235427,61.8623681552218,1816.08406100768,78.5556412838754
350.649282243065,-24.2499886127989,759.937026203295,242.104940215604,400.758939936559,44.7814027118792,1046.15144530277,71.2310402134273,984.877955562291,210.384969606269,551.082841502743,110.239104683531,1203.77349298597,161.756495730281,1034.78330859946,214.027540790046,889.486835130723,208.838446814709,215.004662095704,33.6476889195287,181.253930424229,79.2133024503722,860.548024865047,378.741359787159,400.921550784348,263.991978212357,1986.55323291488,61.5748108598014,1835.56534032886,68.5360614480207
356.260159271322,-25.9107818073946,776.200669727271,237.867077833505,398.953461360414,47.5575227789461,1077.19972251833,70.9274975687818,1007.92195908327,206.265517111093,567.950498887197,107.953113082249,1252.31957575256,152.410831855705,1077.79608231901,213.153773517443,903.315625643368,206.149987548937,224.168181377096,34.8734742453487,191.214850228322,79.9350559806843,953.214039578582,325.907388757342,419.33116654161,267.948825648981,2021.14454094603,56.4489335462524,1851.20428236692,79.1978005756225
353.467567325318,-24.8895395001413,767.246890017027,241.794147645621,400.837151877017,47.1799512124838,1035.86746548685,73.4061685378298,984.234615083911,206.757642842651,554.092339253082,108.66433703821,1214.36577446164,165.091415986854,1032.98512818891,223.272423009831,894.315478604223,209.274416516341,210.76112002171,34.2550407238049,179.212009632404,77.9566761992333,893.953946384078,372.60942248034,405.108369564313,264.304178546615,1990.49596988636,55.5669023917335,1822.39928788787,78.9662207530843
349.919603321797,-23.6692402460698,760.82349190532,239.765691649617,394.120715969443,46.8836446645185,1036.79097774573,75.1965789017487,1001.03073239407,198.980209660272,552.843751083773,110.465721610219,1218.38990669362,160.364064398436,1025.53618778513,221.860807135051,890.376746163814,204.304991574894,213.353307417896,34.7074496792142,180.443727366852,79.4729662073339,865.22803374881,358.516281728195,398.544997113092,268.981907786567,1994.01102322853,61.3802965591054,1842.85299646861,70.0086399155647
354.017435732869,-24.5277411730894,773.096232722449,240.485191972374,401.862487462926,44.2567091872311,1071.78988223056,70.2800840745313,1003.40292706824,214.732325903824,567.302381532452,109.371209838684,1242.196636116,154.893486662412,1071.23429024888,220.417579930687,909.681647634371,206.630433281997,221.788487890403,34.980692767058,190.848352790784,80.4617145143987,923.11663441168,353.399313519187,426.2252234329,263.625949077903,2034.84433645364,53.6795003308157,1864.68751360721,69.2256840930368
354.248316449936,-24.7927789809908,773.538666514858,238.642392282481,408.877006943699,42.6201405829868,1037.4618302054,71.1993698479003,990.459529619197,207.111898069853,555.489940833516,108.962203360953,1231.15968654464,152.359229901167,1036.06875398684,225.855998298123,886.957126251671,214.353760783439,211.931743941496,35.0093413579198,179.053886427689,77.9953192242182,856.491886582166,380.550608067299,406.397505353102,268.620137971741,2001.80147108348,57.4393685159155,1829.43009867823,74.2356959742711
349.876736371358,-24.2205624341081,764.916127376148,239.503979366081,400.107304206382,44.9964792365107,1034.26512448519,73.6462810807278,976.235948960134,213.43759052282,550.817675617607,109.990052505567,1222.83711731941,160.642911867796,1034.40048367305,220.779091125541,890.34919940487,205.124632872952,212.057421565976,34.8648969515486,181.841057601453,77.2484986822626,971.687754707167,347.006192310159,413.013699548912,260.113879926532,2002.31692776881,58.9262564301384,1837.74149767453,82.4242460457946
353.222611130857,-24.9614121747451,771.986048796963,241.004380331351,414.580044478042,39.0197077761447,1066.4353165967,70.2466117563515,1004.9352091117,206.002319929572,566.065782967704,107.313358314385,1254.63716010797,144.465303366126,1056.04492978623,227.957711301038,900.993068813715,212.107260552435,221.062141948176,34.8162386464332,188.903002178726,81.3483418596945,904.708805339592,374.321469194547,423.661952640688,271.183308745394,2030.57234221094,60.5827575374271,1864.76375563401,71.8136984772523
358.31293813517,-25.770475363014,788.630391600822,235.721293193363,421.453938740225,38.9208306084601,1056.12295141257,69.9012207497267,1003.15929084955,206.264257052434,561.302101088938,111.221469917647,1238.75989362128,163.416544398227,1063.57339659598,217.362121428993,905.099964735335,207.393029993012,211.089880246079,36.3112042727606,180.66243881503,78.2413101072734,925.804669057053,359.431710833263,413.400082475963,270.416605834974,2020.99571984969,56.2128297892793,1845.19755568225,77.7107565020906
349.0058314586,-24.7471833718306,765.883709180789,239.132498175616,397.817050871816,49.5770540795537,1036.34824346509,70.2387685158283,1000.63889275134,194.223875340658,553.03663176651,109.162686842838,1224.41409328892,155.769851411668,1031.92170190486,221.354051139273,881.111668015063,211.705508922525,210.568048507705,35.6403911329196,181.782181532956,77.3559223030758,932.718152231052,324.974774735707,410.861655933968,267.719527064246,2010.2583970826,56.5436179108133,1830.13873334203,77.358057106206
353.35558862369,-25.4982293461414,770.706921475775,241.426631669194,405.191430004485,42.8041859797122,1064.08304231795,68.9009336981867,1007.62600809589,205.001979774286,563.353071933572,108.574467749811,1241.81671785353,154.397461137244,1056.65023624538,219.273801847414,916.119482142326,202.487300272118,220.233170353568,35.3388130734744,188.894340372443,78.6546844991026,927.166649649149,347.548209690506,421.437418024982,271.473229335014,2040.84386418126,54.0432707480997,1865.60320257203,75.2774966107997
358.058151069279,-26.9179238329746,785.311626629285,238.879213897873,409.016236196889,46.0677518027127,1052.49460480354,70.4348407628835,1008.46111714594,197.211080376379,561.052823294871,108.43029143984,1245.01978768225,153.541545386281,1062.61463009149,216.590745611027,899.628078505449,207.083332957394,213.105870198079,35.1310289869496,181.230950533885,79.0055925074069,1020.06529968138,306.603115727115,410.123764218902,273.05808074912,2017.42693458475,57.1671384483534,1835.00741705746,82.5393148754576
349.795016753385,-24.6811439483491,763.591882934234,238.076567568407,396.724114212272,47.8240307369916,1035.29675410851,71.7488097567282,979.32487595895,212.565541039759,553.828714918343,108.202202248562,1207.56643945186,160.212938982492,1047.3424521744,210.366666335514,889.319554392506,207.685753866158,212.955929084759,35.2057443709648,181.817047320298,78.1479518284107,931.093036668902,329.453194947371,416.733155657255,268.273344203879,2008.56399578467,59.0041283402027,1828.75695708996,76.9972330156828
351.161252838786,-24.3119682693542,773.198896894815,238.602972616933,405.142575081643,43.2858414942388,1064.38887933922,67.4976865881181,1009.55297785713,203.783812245396,561.653339124043,108.30094703038,1212.14281756306,163.110554963577,1066.52400069302,216.690435703078,909.85326034117,202.27327819912,220.734107780082,34.4521429618139,191.13908936674,78.6460954341902,950.222094569487,345.009009379154,410.419435705722,276.673799689115,2040.37365750865,55.0294864299428,1872.39191871919,68.4574478479893
355.620843512847,-25.8432407366361,790.588789846259,236.995069261079,415.52399862821,43.1237965985273,1077.59965725485,66.6488477988084,1009.09228870162,200.899247058834,564.646221977213,110.252666793248,1259.81724874278,155.011149595228,1068.0429608322,225.871531517799,913.189920546805,206.299072619108,215.197339127355,35.527770943147,184.307637246529,79.5959217852563,911.245996561942,385.577260217074,427.196121747095,257.990621554049,2025.20936821898,55.8474127144413,1851.3659052661,73.421794817198
348.170715440142,-24.3985471534802,763.792752502273,236.785144485552,403.194683817285,40.848982246832,1031.23176935637,71.5883029835807,992.10308052204,196.89208158661,547.946495248345,109.985820012126,1215.43499809403,159.528749447661,1022.65433006039,223.081467652192,885.199975939843,211.302273696333,211.535217770116,34.5730105494711,179.733578614024,78.7974864412818,905.228126781707,381.685258957422,412.850918231776,262.295656701208,2001.44232232446,59.9540376180071,1821.53742122593,78.8561694309018
349.384668084103,-24.5594663873534,772.067167890484,238.423137698198,402.004216129009,45.6313135804462,1055.16758930701,70.1742982503814,999.95002828343,208.278578089634,558.080624668792,109.887333721143,1230.51837271143,159.001245981906,1050.03140889087,216.140951808904,898.948425572433,203.498432393233,218.499270210515,35.0346708535597,188.531874838163,78.9459458171691,912.623404713488,379.449811456566,432.662583181059,266.612805237378,2027.73796967384,57.0656649650867,1861.17020008442,62.9405483536063
357.009644106343,-26.2683059183953,785.913773574031,237.647061474959,416.915765036992,37.7660397935096,1090.37038083046,66.6328957713459,1032.65972503797,199.633720641799,573.207790348981,109.078656154707,1266.07760485879,144.518910602336,1088.69578594194,217.768128721827,936.610133844677,199.038942092978,226.421871565256,35.0655048790105,198.891820950664,80.2223142617685,1007.49847988312,328.159165876308,430.918047304639,276.131726153962,2057.44973544082,51.9998489725971,1864.07208043266,83.2222319551197
348.240442395195,-24.5856286772089,766.21323215302,237.475432056862,404.297581879247,44.862730430044,1027.82880086365,69.3184996648251,966.418670654494,220.670140785635,549.334496940985,108.352094648256,1222.05964277391,148.290017573112,1037.10814894933,213.810704493269,893.856878686366,203.334182099795,210.429816413938,35.2673442948361,179.399296840493,76.909017936181,937.639631420773,369.315147568258,413.931431579937,266.200918062696,2002.10885700988,62.3430102012587,1828.35208346577,76.3775018896388
349.295525056288,-24.5994984009029,770.510831005747,237.473594463385,405.510428382917,40.1652440368184,1047.40525984033,70.0008128426935,990.250324852585,208.151120145135,558.196954977657,107.441116287125,1219.35639499732,164.554453980114,1051.11522773415,217.949173311177,902.342158403561,202.229821164648,216.350334990103,34.4022962930807,185.398210638319,79.5182453232449,941.17208705596,355.437433500683,413.090301941895,268.58436267777,2017.55700300117,57.5332028020677,1846.94709222862,72.3565758551999
354.014234822943,-25.0113544898017,782.808717651411,238.072964208472,410.976458765291,43.6619836749207,1084.64384052213,66.0725524240444,1027.48778100892,201.388196572902,570.011953974713,107.787090555121,1258.45470980851,153.674467402972,1089.89100758139,212.367539243232,909.425816714924,207.541997042554,225.278758538417,34.8599854289425,195.889678722799,79.8669376461248,1001.99534647453,336.940702403097,433.513862008749,268.524156907066,2055.24879327774,52.0925852796853,1879.39612949862,68.8301646248172
356.707258305306,-26.6671640075474,781.356397036242,236.364611558181,410.283634898491,42.8134432419481,1049.34942988768,65.5421801162507,1002.77404985061,197.055821293413,558.072343939479,108.492450467961,1244.04490790227,154.614539132083,1061.92604544934,217.467455906573,905.357190816838,203.190520205828,212.922171080726,34.6249164667667,182.685273620878,78.548296418245,958.021706635588,313.000057658086,423.807116267143,273.213724690051,2022.0821509734,54.4483332652916,1872.34968589237,65.6938506161514
350.490778609107,-25.2173191147748,771.821537255282,238.828356289202,398.994233117084,49.2599774855152,1044.38833869075,68.887583897319,994.960132676995,212.147745877967,556.710529314059,108.012046640777,1220.40139105985,160.121003905469,1052.80711794274,215.668453285135,901.805390994023,199.452594777769,213.977396268265,34.6747362874092,183.586001013447,78.3143219563679,1007.09427785138,287.726323407157,413.538470467025,268.019943462134,2019.91242143754,58.5068592208369,1862.33141039906,66.7667907303333
355.289693660734,-26.0988491594565,787.156591181029,235.920466800839,409.615989518481,44.4085700737907,1073.31984957422,67.9037153968165,1006.37631493833,209.83792617385,569.653281007702,106.429197148008,1244.07307502639,159.116764659482,1085.69118339619,211.577834564679,915.167300504581,207.501840737207,223.46636200815,34.6214958522016,192.254092400242,81.0720868474163,1057.23790119717,287.348466255165,429.268761706213,271.404757339251,2045.88416367529,54.9387283514233,1895.5016801266,50.7356302731295
359.413718065719,-27.0282657944443,793.9989206407,239.782265791129,411.213855542577,43.5054584330139,1069.02367910303,66.6257666411526,1014.49855661753,210.14532488169,568.948948105247,105.555679860241,1274.39917585185,147.22469516822,1071.22129799165,222.090772554246,914.127127213958,201.978522960033,215.213895673733,35.1421850398686,184.901559580744,78.3340723738387,934.998014710054,376.926055885623,424.947036361391,266.001647477415,2022.94273946772,56.6327084919492,1842.03812020459,89.2422103876833
352.368619273563,-25.7237496170328,774.666692430722,237.009221903024,403.576815466006,44.3263539367462,1045.18241329959,69.9784618307795,1007.80701512783,203.438047839483,557.646330415381,107.630075867009,1238.78420309146,156.167642081107,1046.6048476332,221.59589139437,904.556460451705,203.182706042852,214.171280839783,35.4874932695669,186.224516645835,76.909679969005,974.244903304583,339.827212005077,424.581702652972,262.667354052484,2019.83300527124,56.6112157850513,1847.7018630487,77.2877692241854
353.83618202688,-25.0399908312221,788.035403983706,235.537105149364,418.122044144164,34.93059334251,1075.77761411669,65.9505554401805,1013.43035006075,210.028814574639,567.646965068442,107.329509180952,1261.10934425499,147.050318619258,1088.19279640369,217.116788450605,917.373443872138,199.13721799936,221.508307302887,35.7971193798229,194.852425596289,79.5337409576423,1001.89853020118,340.519360927659,436.390928501701,268.466571802966,2046.5348065601,55.9462917944858,1881.36081353502,72.0588491722854
360.205582749623,-26.2769622462626,800.265606138711,239.711684981249,424.883472483409,40.3489265670283,1084.49866038256,67.7352841370602,1024.82720730518,209.337353104474,571.837968665273,108.839918381097,1280.7070140959,154.415096241509,1103.15314304636,213.776053168752,925.275738989167,199.653533665343,217.690672162063,34.5806211442028,187.602405969021,79.3045942182184,1010.07208057755,316.441155194724,440.256062051199,259.823239933794,2028.21990342226,58.1774490163718,1899.16972875776,63.1725427868502
350.263095459379,-24.9814208821952,775.080717508331,236.887911957407,411.433169502393,37.3082214011608,1047.50677949667,68.0212111337407,998.789483781523,204.699875275343,557.478970021792,107.759389702285,1247.170881315,149.422624778895,1059.46457951153,215.299813879379,914.059694386976,198.922206220758,214.734894399242,34.8795189251859,184.324125007246,78.9565648419414,992.029417544809,325.8762734744,425.438944994905,261.75234443319,2019.19783842311,55.2503827103148,1848.80250389643,73.2385679960086
353.677722380163,-25.1031026382052,783.67292400586,238.983349708447,404.683977942757,48.6620586645468,1071.89533343629,66.1519518714989,1015.23869899268,201.107303927207,568.27373241436,106.117432827125,1253.20238603172,155.629134902105,1078.63811669302,213.573687632664,915.961451454811,195.147685203949,222.144544810295,35.0356452714542,192.824301189298,80.2581181756643,961.96449561762,340.822761078563,429.131043795539,267.135229211011,2047.50652662903,54.0036284161682,1868.06914136719,71.225856478522
358.54035207238,-26.7891672694444,798.199618444715,239.742392505095,417.444474598257,43.768459375758,1098.31646966574,66.7393108250469,1043.52058105821,200.29798762565,579.679235361878,107.083809045429,1289.15377545448,151.343688041861,1116.34456289958,211.188005239815,944.072910961299,197.029670168839,224.751017961477,36.0907502365983,200.52106196427,79.0584299456141,1038.5325624809,305.277977413942,446.719257470908,267.366651111216,2046.58291664966,54.4452943827258,1888.08985826326,67.5617559045163
349.47587249826,-25.1410118067773,769.98521437319,237.002767894072,409.179353019451,39.8454146982322,1033.73914823631,68.7893573800043,984.391750728812,209.010167877718,555.870431957851,107.195269694843,1243.2516882802,147.185394298631,1062.15989253802,205.802237468159,904.291611434854,205.91533431537,211.874280083468,35.4430143731823,183.167978100348,79.214060658427,982.39717724654,312.764467926884,413.040486115041,268.993253056973,2012.29493513901,56.3335067086473,1859.91984766634,71.3688971720119
351.786253379841,-25.4658829341771,779.346279271488,238.639793821076,404.895969214629,44.0829559097157,1053.54427201568,69.5565164863294,1008.02381506011,211.537721061926,563.490993355439,106.414820225576,1241.14861327331,154.156926542313,1074.32143524499,210.890093240212,901.051406928236,207.515173006025,220.383132606403,34.6891956622968,190.033748700019,78.6402143530927,960.103747859303,378.448021995554,432.45043647632,258.302065325469,2038.06586082554,49.3349128819233,1853.74701050492,79.2715211112138
357.63855772978,-27.6100541890898,791.011723921453,238.568856595099,415.133399687239,42.5811711772168,1088.52521667275,66.8729520834004,1063.13150334433,180.220794206899,575.369382365713,106.611911683392,1274.23972599192,154.800748745781,1104.81833439556,214.394561302298,924.041437755836,206.600830629344,228.115147358756,35.0841431592271,200.039133881624,80.4115256643768,1048.4059992688,317.487798873177,441.414690147635,265.249983151049,2064.59157756959,50.8648232239674,1938.08348806707,53.5372442554386
349.689531678657,-24.9492523388323,781.108377506861,233.969185652369,403.315193207716,47.0787014560441,1031.52856289297,67.2182562849971,992.036044000671,205.401255979606,555.809842719556,105.700991049743,1238.35698205383,154.085301062404,1055.50181731354,210.127470683604,905.64656491388,198.090005560722,210.384898829818,35.4911410861003,182.721795184751,78.3858386347127,976.968120708239,321.121990139319,406.183647746873,274.149610368213,2005.13699308506,58.879759349591,1860.43817790078,73.9980675020426
348.879131717236,-24.6514627127959,777.071575698295,236.866688319205,402.503420809762,43.6355173327898,1046.33477085575,66.5432118523057,1003.91633875966,199.672261812997,560.553042455903,106.213565547296,1246.11324445626,150.305327150428,1055.55864826792,215.21253620208,917.86664204636,200.326801160623,216.565849776294,35.1756642734629,188.456698758535,78.0937606267408,977.704206770843,321.616156216448,437.094926604921,258.445762642962,2019.34012094527,57.0367759850541,1876.47880340587,67.1004982037885
351.511559719857,-24.2052615393752,793.689597492938,237.645974779729,405.201941972477,45.8791441198666,1078.58642584721,68.0356141404425,1045.11275042848,194.340361019902,571.918292838568,107.600251070455,1269.6290703112,148.129769504605,1104.23752278793,213.540376407179,924.4641659277,207.519531430898,226.56353896285,35.2438163060872,195.97689100235,81.9790747860535,1020.63981145823,317.703284299628,437.683294788887,268.04346080672,2053.07505863773,51.6315500915187,1915.51460888663,50.4890652350824
351.923681725671,-26.392658388235,785.997545237135,235.411185359199,407.534852569787,44.4408245742833,1036.48974343066,67.7099796161345,992.895244406417,206.471564889144,559.354803845552,105.490261367455,1253.32748079199,150.474151598476,1058.75846106752,211.818673545496,917.569146171557,197.760068842384,211.419231843276,35.7917470768589,184.055161160291,78.5604953667614,1031.07755230877,296.383843740684,429.512927441804,266.080714298505,2009.42552258142,57.8140922852508,1863.35173437453,68.9977783316012
349.609024312391,-25.1310640857437,779.28216644624,237.18681658912,412.515678953064,41.2314777161032,1041.84898944625,68.1283680924854,988.675607408267,215.858908005635,557.242920215054,107.997449498692,1236.81813765169,153.451898669395,1072.63664531398,210.966231837345,921.206032513868,194.950343593711,214.907500016372,36.135975677707,187.581801017491,78.9548985660897,996.276138850027,309.63015694812,436.512641163519,260.439739856693,2016.47680357117,55.5292840115783,1874.34394891462,70.3818326271929
354.654741203631,-26.4507663823001,794.562167149949,235.572732484206,414.704465252887,42.580834973683,1074.20445579811,66.8882107396653,1035.91717226645,199.256799943518,570.512536768134,109.388916781592,1251.064967197,166.194906092248,1093.50004917569,222.520818703211,932.183391010684,202.343296930786,224.807384286334,35.1030445507333,198.561664221876,80.1670521112102,953.753906056201,366.54544265623,443.67293385905,267.197224539456,2049.84112928592,51.3004776773885,1912.08627684003,52.3670076324017
350.353285408358,-26.4324737712521,777.0553772053,235.304813621074,410.151046165025,46.2448906539803,1029.96048096236,68.1161050649135,1012.01958776652,205.088439731429,552.961529035389,107.199948827949,1245.21191987473,148.685390957703,1082.82234067861,205.895909332268,914.655386216995,199.924611229462,212.029419490564,34.6215888137158,181.533972492705,79.2317676377989,940.337967284099,359.460002339807,424.043703368446,267.308529003844,2008.99792814036,55.09689705676,1879.67264511064,62.2112908994552
349.698998211427,-26.4556173289012,783.040638651975,234.819957444742,410.143207502561,42.160884472676,1038.36035840784,70.0937162447726,1005.00556828596,204.58146747272,557.795665877435,108.304114772491,1255.73013311286,149.63397107621,1060.87556594959,216.209196616664,922.728009232332,199.32725537271,215.113728276172,36.4375881362685,186.778527520277,80.4452457054567,956.312017062271,340.914213022475,431.341710965621,267.39541975869,2017.50062553362,55.3736997561125,1870.65245745827,71.1969052240379
355.106481121399,-27.0246233475291,794.645531084821,238.523091907339,416.548378808664,39.7449648312411,1071.4921645625,69.1506151057019,1032.90950024551,206.072865320838,572.730363536584,107.136462709163,1272.97842071067,148.869453109079,1105.27470534985,217.314394278171,941.034614167615,190.343530408117,224.538371568253,35.9501234609346,199.597957519583,80.6366049454049,1006.34092422946,325.298307312474,441.190984871165,269.939857501724,2050.98554055337,47.176773445095,1889.87786092512,75.7436907515471
347.813122054355,-25.2105569197116,775.562635356833,234.484495125682,420.18653897627,35.1064429969553,1021.38933421163,68.7519354330439,1005.41045125783,201.062277369352,551.211351647465,108.038747952956,1236.56977242649,153.711475850119,1061.61963644071,205.026021516489,905.816624033032,202.840767994859,212.264537212228,34.7736233431495,183.710298914321,78.0307749883473,1074.95697876462,255.105606653782,426.95132651225,260.572360858584,1997.081820823,59.954664057054,1861.80748606706,72.270140591298
348.666023358982,-25.1157101660316,780.4631966153,235.482430965536,403.838222424886,43.0757328246749,1042.80832620438,69.0626313679026,1007.32137312055,205.728873347414,559.505051525826,106.222783984718,1252.06632468282,148.345565521737,1069.28588787303,209.749414027723,922.864655047896,196.382541463499,215.594889499702,35.9117973079527,188.845034904481,79.8124997241478,1032.56276560658,302.654019650109,429.065150353541,261.337462502283,2012.14974895679,58.132326431429,1873.07181761838,64.130309371696
353.708916858013,-26.6629251974159,794.992123152442,236.620021417232,419.303721626487,39.1033962097056,1075.40506959928,66.6805061912279,1043.46802417509,198.735408488592,573.043561872256,105.98549709515,1275.63888193398,149.822239209147,1106.91483794386,210.704174269113,928.476550792463,201.500431011591,221.369673360321,36.2349828786536,195.902619691777,82.2816228728345,1002.48742194893,346.589831313053,448.612910663775,259.565918161825,2017.73404441141,57.5266469650323,1887.27595783011,63.9510683174932
346.347923282142,-25.5519042170179,771.807821036123,234.781131428381,402.705939265856,42.010535877105,1013.7983589994,69.585125798684,995.728408981546,201.440302470855,548.573129808226,105.896285044822,1236.23701888926,144.58465664513,1035.48294858724,217.295157074796,920.364334656814,192.332185496656,210.0859729758,35.3899132124456,183.228591911345,77.7002947361346,959.277462592147,356.320805994575,425.804717305844,255.062754864194,1983.36833811367,55.3715504543184,1866.71826673306,58.7326577196452
347.467685950556,-26.2697132617535,772.324584084396,238.311920468518,398.838202019382,49.2958818982261,1037.28724561514,69.1583232211566,1013.67495176258,201.740591246244,554.164207885421,107.625640258354,1252.95904594104,139.131465999004,1061.29333222758,210.366399854946,917.017182857665,201.514686706311,214.35989817834,35.6653432450835,188.012968736231,78.8565917175124,912.790877529849,354.17159074237,436.589364529517,260.008667163825,1995.27688712356,55.4250148807683,1856.94324055881,61.457647096571
352.192142883287,-26.7065288460412,794.104199216897,235.084065170725,418.69324375795,37.382129103167,1072.69711927787,64.2891007873447,1034.30576620846,199.58496354839,567.32545010124,106.819810794824,1277.03285901108,145.265664968105,1077.35985598349,226.656403566433,924.669878429025,205.952572175805,223.153785098069,35.0898376392803,196.192138287248,80.714617678057,976.224928727732,323.465174833329,438.068932355395,265.426648390974,2021.31245727311,58.294861236517,1902.18635035133,46.8478140186085
344.482127657875,-24.5750961711982,774.549320042342,232.969464333281,410.223772609458,37.848502146525,1009.88916919217,68.2126664650874,976.702961220441,207.302338359997,544.07390116242,106.3393235835,1219.1494368139,156.14761599007,1031.91879328773,213.796080193596,917.340706899449,192.760922158627,206.06365788779,35.854013001182,179.879369810306,76.3744010734504,959.737045965561,334.967257649611,421.302546621377,253.743714632022,1962.79354149565,63.3547624500034,1841.18753946743,59.1073604997022
346.37737443627,-25.0388694200305,772.609339391348,235.177323606149,406.154415990962,37.2399981218533,1031.13053968868,67.1052126197504,999.390742749088,201.11096827553,550.015541324393,107.679587659096,1235.04888835242,144.945649465828,1051.57009930907,218.243236061501,909.249083187091,201.052730871857,211.489629644861,35.6994255539169,182.458869433525,79.2580856127771,937.994066247426,332.572535911783,421.623201920351,261.29665183965,1972.67058350116,60.0978392828423,1840.54155576585,64.0064065818944
350.062889625704,-25.1557540934215,783.145027946221,239.668976000718,409.377416470431,41.9719182977097,1060.54080282891,67.5790382934838,1014.46945674321,198.804781750166,559.590418429839,109.727450618604,1252.76647207773,152.357925260079,1064.8928080276,217.672175322281,932.391593986751,198.985667965718,219.969605096325,35.2818001459118,191.707621951736,81.6141829905669,1028.90265228142,279.034440322848,436.308309741572,261.13239250824,2011.92126379972,54.0500816397615,1886.88225832341,64.9911635459169
