364.262939878455,-29.3613242749908,835.119733628147,235.19720972101,436.927321310612,36.5860893308321,1074.47625832532,67.4106769481222,1071.51181923638,197.836376741647,574.425888632729,105.176843047317,1290.68832418366,137.958448059344,1105.64420564754,207.973190396163,937.337811334529,202.752868924033,218.913872644315,34.0677512951732,193.623379646304,76.0405855281977,1070.61704099686,293.368960422688,460.433164742522,261.824087617243,2104.76887718107,35.2506106986127,1947.66428600924,43.2440868658581
359.630094709183,-28.8966361774652,821.637074702718,238.203219903543,425.206451315876,43.14132417607,1069.78560276292,70.1898352813917,1063.13738683893,189.545590582081,569.072060965609,105.910762028222,1279.21060474655,139.130686036584,1109.28166510678,197.405802441664,935.665975625617,199.29296610376,222.145989989325,32.1204711851559,196.734556989787,75.8578487060923,1042.23002229446,316.265343035096,465.657350592718,263.567421159196,2105.49530049068,36.3674712700972,1926.92346049595,50.2450814926926
362.287735985415,-27.9746171982891,833.816434738311,236.955534037865,433.502120272779,40.9650255836756,1102.08079172889,67.3843630514873,1090.34368773171,191.872455999556,582.382061787724,106.515955994166,1314.23447853096,132.523563225299,1129.59746465315,206.159586948431,950.81475389343,197.299957080264,230.718477675788,34.0774605716006,208.524089645781,77.4142762245934,1033.98765930356,346.930078871338,482.177450746936,260.782829661477,2133.73946890869,35.7465725074951,1982.80086646508,39.6025885581552
364.751879114699,-29.3906009433762,835.932240135273,239.917835099595,438.859701218769,36.3517531763752,1078.64237370189,68.2575902052066,1083.8659581979,189.167042139678,575.197743476294,105.503265658654,1297.73975104403,138.755548486214,1119.33171101043,198.340815607111,939.028411207452,203.392780197513,221.281241645823,33.4283215598405,200.082201510925,73.735122239206,973.799874586261,368.904029179913,462.879637635627,262.773496714529,2107.99759343404,34.1681178049605,1951.86925907613,43.3177050949115
360.108311328085,-28.6100198878063,825.026065522708,237.206568113287,434.935050846497,36.4368226690622,1075.92102667925,67.4330728591888,1064.22378771537,198.752855365838,570.153476902988,106.437936233526,1281.30893768027,142.502918985514,1117.05468556335,197.486724028292,932.891812340166,207.363429478415,223.681149771534,32.9623964365325,199.829563900557,76.2426681921591,1042.34969049282,311.337223100682,469.15986849059,260.150312539699,2113.5567406642,33.7293747022173,1961.99323752873,39.1832597859722
362.572003771893,-28.7595828826836,837.021685927895,238.762655411592,428.865761635355,41.8849461513187,1105.03992512065,66.758934747961,1098.3953366496,192.931263338393,584.585038400951,106.215158398182,1323.45914519323,132.674059197886,1148.8665330597,199.462046933031,959.456209993075,195.838348982764,233.406028993715,32.9487703592623,209.44109135402,78.3137547281064,1071.65949657081,316.634417025995,489.201586706802,259.118533484738,2144.17345555029,35.1581428209671,1974.5493496631,48.1455637753195
366.646496335569,-29.9262983815866,842.591776245876,238.373377887356,441.697084602068,37.0785943875281,1091.02938102994,65.4256488558831,1083.81658931513,196.835737396987,580.630870854884,106.762848095284,1310.86080494354,140.700855153469,1134.10785789919,205.744301129292,964.02529828216,191.005657996054,225.243315867028,32.946260062775,198.953207800347,75.9906714971846,1063.34878408472,325.15294531938,483.259050708757,254.838636661663,2115.61206330725,36.6373865614002,1972.69104390487,51.2221873037412
358.152524195789,-27.5918736688208,827.806194500573,238.271243037078,426.403002954966,44.2960014650441,1073.59411747542,71.0048669331272,1082.85803970467,190.063618994512,573.493429696034,106.47420747935,1285.79741933763,151.312687742734,1115.71782898997,207.348378313632,948.399525644929,191.158217619211,224.828535621679,33.4231437377341,200.151928763434,76.1411441564665,1109.24684434022,286.411205584068,467.848517311454,265.153706621282,2117.55758639537,37.2642977702657,1977.98433132355,35.4872225210873
363.475326452129,-30.0490899705489,844.054635276104,235.531350151001,428.804728495644,46.6291333817659,1105.29595601665,66.9006820137825,1093.56541561235,197.86757824913,586.41468474877,106.330287094548,1319.0570605419,133.320078680354,1146.78618066199,205.673750543098,955.499224755794,202.145102450457,234.333291928557,33.1151009936316,210.620242736482,78.4501652436641,1042.23956233845,330.994010952089,487.310148038392,262.834524757332,2149.06475484986,33.2421248750929,2012.17013402934,30.7866095414745
366.976205871512,-29.5779373561666,851.85901995651,240.257664138937,450.551120408852,34.8134228697794,1099.63236281491,65.0206640593827,1088.62651117621,204.791827618267,583.899469884863,107.956215613686,1325.57199563504,144.774721813193,1151.76824178974,207.877390728006,961.221100482628,195.392758675586,225.374952656821,33.6339720621515,203.045027167366,76.8443383801237,1036.83891794419,346.989681467096,480.681295515338,262.632992640547,2131.35406855833,31.1861522346566,1999.29770985341,40.0987621041772
359.215187183747,-28.4352727125804,835.044243131029,239.797883523016,437.592458912218,36.6318265512337,1081.43816543078,68.2650663417068,1069.19036720715,209.050753926519,579.769458049368,106.053065402118,1305.19697568772,134.35767607239,1128.67155135467,206.550198975788,941.395657844086,204.457718180137,227.089866857017,32.7662451243386,203.053094638136,76.8083560508948,1021.38393208955,333.028379160446,478.854721658025,255.646685878486,2127.89559729973,33.040012745899,2008.31656031746,31.7768934516725
361.040250237165,-28.6126350596483,844.294498333018,239.540272630297,432.898878770783,41.2517013793577,1110.0894504067,65.4006810786008,1101.36862874062,203.254182019393,589.465198764338,107.5808982529,1335.90535553887,126.885674784082,1148.55126290838,207.915225196584,973.192300937241,195.455629675982,234.573528490428,34.1227286340534,211.818457648806,78.0219270955572,1072.80850028142,335.88754295851,480.90361699102,267.31648231687,2153.69529067849,31.5767565759746,2030.2786538762,18.9804255083257
364.355123274682,-29.2651805907259,844.041646227351,237.236719147667,446.520538331391,38.0678637039294,1080.61600583761,66.714866229794,1081.45923047811,195.010390910603,581.539639626095,105.047492009887,1303.2680506815,144.805555557845,1140.61483131458,201.590250798117,963.188121307942,192.06204311774,225.216959395,32.7805051521522,200.602449785034,76.5890365468132,1056.84489013541,339.235429002754,475.26509098051,260.011361923286,2131.38325990873,35.3633840349725,2005.19491025186,39.3179457446849
359.111750047823,-28.785539281243,834.606902640191,238.325365942863,431.130729352104,41.3105020026215,1081.27051382557,68.0380262939585,1076.26471454056,196.520198429298,575.724567404067,110.10812166881,1317.58333692551,134.329249563727,1133.27131250155,203.211509725968,946.080350935875,204.835187065549,228.352621231951,33.1465177904528,207.200852224181,75.5871339353763,1110.08165867025,254.862087601811,478.385899302748,263.941201720636,2142.87519970522,31.5673015143343,1998.94902910619,35.9642037195908
362.305217220311,-28.8743762576037,848.040859959379,239.119348392947,428.304965421233,45.8167729484157,1116.8486906187,62.4783429827399,1116.51059252682,192.759352586982,591.238332704079,108.331157532034,1333.81611047583,138.371839260023,1159.2976994916,212.56421325463,970.71626025462,200.358854451779,237.980295327242,33.2093659827446,217.345833478002,76.8389671876608,1106.66719015326,300.907360427973,491.302847925255,260.659714977014,2166.43776194152,28.3506707573606,2026.75970952736,42.4299598566324
358.781406990906,-28.6762977558939,842.57504273448,235.4117885249,443.162100203867,34.2826760150853,1074.10164867781,65.6482890004931,1086.60561756991,195.476214913852,577.352219268132,107.382593235133,1308.08276996141,141.140093299597,1116.26158194727,216.439674794498,950.584084741261,198.368099151932,224.736575091453,33.5448729813047,201.275188045292,76.7292438137631,1071.29012765401,315.322815800217,463.567307857519,273.256789406926,2126.43466146128,34.9784338192717,1989.75507384725,49.6019116995284
357.37189671987,-28.4123090371395,837.72019074141,239.146132167565,438.479429683798,38.756170865809,1084.56707319555,66.2752804359424,1091.6795817157,188.955178158663,581.858509601328,107.530024306049,1308.44856316003,152.287540279611,1136.52903616563,206.843020330713,966.296128709652,195.421338482783,232.163657870521,32.0211027095879,207.128876440465,76.994403950899,1087.85362067455,325.256502048644,497.896489130129,251.262367069675,2139.77242102882,34.7999422368561,1995.34971049771,47.223534479489
360.214335697057,-27.7181778270593,847.568440597574,240.306558853367,447.30037630545,36.806023309123,1119.13175643299,63.014006334946,1122.35262979391,195.052038841178,594.718184346085,108.509363551093,1332.6827247273,147.550159930971,1168.05643210192,202.938350981305,970.068805769582,203.17548347966,239.7928429787,32.7575112726092,218.937588502624,78.493360715204,1059.51422223646,338.694092569961,489.973886659584,270.873448114002,2173.77821533834,27.2692945053063,2034.08952898532,32.392215524908
355.382171909406,-27.9248767473151,838.608998103984,236.885755560721,441.76856676847,34.6909983315376,1062.2247348356,67.1663834389056,1092.98989362284,184.705528837478,576.781869691431,107.101915590795,1291.26436451413,147.107879332748,1119.98976235523,204.157191541985,941.487489678716,204.092724417342,225.474277370001,32.7013036199693,199.059548437804,77.1515334895774,1087.90249274919,317.521257998847,470.331310346128,265.535214818423,2118.41335035101,37.1275993767866,2013.79899294866,26.4154227161094
356.28505800277,-28.2940139999801,835.568847002604,239.248658780991,440.765341593385,32.0023255535265,1081.27540646483,66.1582467326778,1075.21967038243,201.681001958233,583.660345042074,108.229493450083,1317.32280403853,140.201249027793,1139.77955994034,209.512681733732,957.294801468489,201.733787942483,230.472788226408,33.5622000678881,209.450555065265,75.9715499880521,1031.25773662247,347.236218018689,483.622946657755,264.087483451347,2138.10233930775,32.6506578612106,1994.03737456287,43.3444184686669
361.053786745848,-28.8027740775144,849.157786425449,240.075659681664,445.665832683836,36.344875585249,1113.32142833239,66.0861940694033,1113.67550900684,202.737176238168,597.654784854435,106.678679502614,1346.21969507128,135.413838408757,1168.09402942011,213.207215666333,969.750435479155,199.971150056238,239.082574703524,33.1536484755619,219.087520679953,77.5902826080997,1076.64438540513,325.631614163356,487.456813289137,267.547907842414,2139.42847340114,36.5286965874065,1994.12267708998,57.8251505676255
352.033242535227,-26.3246058613472,827.452006011848,239.999807629532,430.284648483366,38.3724166121789,1057.07777471547,67.8039695777038,1083.82432826102,199.907416580503,576.097726488249,107.099701207355,1289.76974188593,144.659416299689,1114.72976239863,202.491831138281,941.676246006552,206.116659335656,223.440409828097,33.8637892021708,201.256521314788,75.6662845512224,1051.69762862985,283.773236840004,465.893209168646,262.453851974143,2111.55133776682,36.4488946603186,1989.38680366554,38.1311264882691
354.461840084391,-27.3648561134671,831.271902913209,242.438587826136,426.668431578851,43.9659633290654,1078.95375332684,66.8553956595557,1089.20895607306,201.780357073628,582.944101215477,107.401093396402,1313.98718107174,134.902280128689,1146.24298017952,196.623310247291,956.599036842348,200.639676201016,232.685187802795,31.8021603887368,209.039446013606,77.178772553702,1082.84544029265,310.020333855752,467.124236766831,272.038693327903,2127.68802919126,32.3117708221495,1968.59172488757,50.0570280165698
358.928874005677,-27.6916277500926,843.985068967368,241.793694931469,448.067602851679,31.2094138905274,1108.91349340273,65.5965859159591,1128.15899659934,186.130247282822,592.008627712602,110.473523586283,1331.36907970436,143.320105368957,1167.03124043444,205.670324007037,968.027911316756,199.128181296603,233.562290684565,31.8189602459376,214.427869313094,75.6346863047833,1075.88745824794,327.575554452938,481.974254132994,268.424473918565,2121.35195556478,32.1864559521229,1977.19860798952,48.9650191004836
351.074163810731,-26.5274057676203,830.853669914209,236.213412735478,444.955664984931,32.3049356052949,1052.26328882563,68.7535077586028,1073.02935834725,202.527877012372,575.13497565415,107.303038992505,1295.90085810916,141.506869558746,1112.34214117783,207.251212379398,932.644566668912,206.945071362444,224.455064536777,33.041029963795,199.775444654408,76.4950185195739,1070.83305771239,293.017558364382,466.801111832856,265.143522138962,2088.37345945675,44.4935937946348,1959.58812011387,42.3069568857366
351.981668584506,-25.9750794609871,831.489237636021,240.56458235493,427.60514117611,42.9686607479283,1076.34036865538,67.1347601105862,1108.76293394757,188.694773924385,580.30035740907,109.415948850861,1301.10855932079,148.185779700696,1126.77523831843,206.697955813032,964.571658293,195.351203868542,232.092651647571,32.478943369362,209.841114672894,75.3984899894742,985.260360689055,376.271936082099,480.445669572853,260.821859603131,2122.06918521264,32.4346091739585,1978.12723234768,43.6750411906082
358.541087562403,-28.0286348857247,847.668834360888,236.713827958529,443.902502744898,35.3671905011436,1082.75973117735,67.984006413156,1101.67090663471,199.440165126468,583.603242748931,107.940441472389,1302.23875658808,148.84101270306,1134.23249086106,210.862548384861,953.978551652152,203.643948622198,224.804958749269,33.3585002471724,201.916574404768,75.2309344618195,1001.56983604195,299.819724914933,460.779318511244,262.185176321589,2095.58350075416,37.6088037871715,1957.94885222227,59.0529076953941
351.462422290426,-27.1422527198378,825.16048816378,242.06560438601,422.14296630254,46.4925433013202,1054.90281755947,69.5911087176557,1086.57267717763,191.96396369512,573.855262280548,106.992571829519,1290.84232450944,143.208820467655,1104.30329945074,213.490508561191,944.944705900472,205.026989617008,225.706117349215,32.2704637494857,200.736499068462,75.1760145214648,979.760667230033,334.594694765907,465.194409769183,255.84926435861,2089.60831685847,37.713529527972,1947.21903700222,50.6673598042397
354.219174871076,-27.0419719125851,835.722478490917,238.238295507174,429.090041538003,38.1617523943964,1079.02383920625,68.8378255875043,1098.88899473101,199.3633881304,580.976815865737,108.651868329758,1300.48013625235,144.684762298879,1132.2798484696,209.721900534346,960.102594001072,197.912332131134,231.585199249926,33.27246369448,209.191221881533,76.9295820737756,1017.43023904372,330.771192997388,473.860011544731,259.086592666033,2106.36647711126,39.9918643907999,1948.52988046416,54.9185643938508
354.839881029807,-28.0808060957172,829.47847023779,236.062015198907,432.615859790532,37.6362100287319,1047.18660823282,69.8676515776607,1068.7340582649,197.579747488418,569.047197807629,109.191092826173,1272.72383295896,150.275696916868,1096.60706734212,206.982929170912,928.945923248521,206.69360767238,221.868518370813,32.300709633948,197.445182196079,74.5659355114788,1026.64346139126,338.827281245509,449.893120125862,267.734576524315,2067.46834450293,43.5184095364425,1941.34405958803,42.1936006435851
352.239602451353,-26.8944045698552,825.799408571492,236.665708613381,428.985220104366,34.4190227958237,1053.04694778039,68.9106402535381,1064.53530191447,202.02377331597,567.386122762161,111.005119075273,1273.58517402846,146.294943402406,1098.7353667554,207.352099228948,935.939647633811,207.63641696696,225.851234635862,32.559187782071,198.14380591691,76.9149874253886,1049.58287913503,281.289452411381,452.89881508974,261.382461563858,2078.557399252,40.8080360860914,1926.65543812141,52.5477776009747
354.81024180816,-26.4498773748943,835.135077220996,238.261368521204,435.128992942083,34.5174783551114,1086.34214841215,68.0702741481083,1099.25853687673,198.567878793169,584.251450115787,108.893941896593,1301.87555621289,147.85066162016,1120.97581305281,211.309559052383,950.790596323493,206.069840209885,232.521823993205,33.5226482995623,208.96855716991,77.6466888098598,1035.70756717713,317.199946781735,471.616055936036,263.380880497063,2107.60169450082,39.7349795915459,1988.1820526696,37.399326626912
352.324254478208,-26.6550281671158,819.687599421482,237.94749418687,422.431521880087,39.9970422837027,1039.54882394795,70.1157082772724,1049.96518173545,204.242686204534,569.39568837807,107.335638342877,1266.5801501343,141.265373908146,1081.66943865854,207.74389204421,938.289873493491,195.075577592664,220.803101547336,31.6815898080838,194.773993283772,74.6935106987064,968.525855587148,361.168110223394,457.410999915463,256.989864974221,2061.51299126622,43.1458490658015,1909.98029164436,58.8302108922697
350.65640287692,-25.2883477525249,823.081606441156,239.651065695367,426.158275553333,38.2182985375814,1057.76047217022,70.6833885737012,1061.28974699609,207.237909900307,571.73579493518,109.281191314055,1269.49408425909,146.420581493732,1087.2117297547,214.532653456918,948.501285319315,197.605278158959,226.311436397283,32.0596364318717,199.561102417268,75.8384946402259,1053.6074733109,285.032982107707,445.640155394537,266.42399556648,2075.1201453595,42.9234995961408,1912.12286467927,49.2896093263989
356.739859206967,-27.2390939510612,833.645530029921,240.817650925029,428.02099624314,37.8633438452786,1089.00863585004,68.7949141846384,1075.48690834061,213.085268963281,583.263803839079,111.79316462592,1299.44006343748,142.602089454058,1126.68309255486,213.133872902514,957.163607872467,199.173423179288,233.223145427391,32.6079887176686,207.091723866561,76.2050591080166,980.709781537858,341.949703659038,457.657441915028,265.08967498549,2082.71592174412,41.402548203384,1964.89022177923,32.3577095040493
349.537589845613,-26.1816570614327,813.587291775843,238.410564570942,419.388250448065,38.6604134752786,1032.03590746455,72.4850938539424,1058.35658682866,207.468284949198,563.306321199901,109.890141628618,1251.23704446892,148.918455188883,1076.22759848051,213.085380942841,941.844573985429,194.763937065159,220.426129984867,32.4042845341381,195.881564320344,73.2975932439801,1001.96539883021,315.223803859492,446.092314375124,257.994314187945,2059.43218833003,41.2838977241299,1888.05214122308,64.428380366964
351.24980220833,-25.5217920696077,815.916845882928,241.27411322326,423.907579855738,40.531851077003,1058.61812133635,70.8474269859002,1065.90092687574,205.128849152677,570.327610265312,109.287859693421,1274.42655302028,145.168433715337,1090.00107020926,213.126661187953,949.985990143786,198.057225972323,226.391673379783,32.9774736531091,200.37466798002,75.3338627472598,939.357272836746,354.238855404167,449.740525448121,259.335527217269,2068.87798219963,45.4426197125123,1914.73147566695,48.8801576222408
355.81511878785,-26.5382250448006,835.862853833658,239.58021887627,426.798903059105,44.1859964603193,1088.447491566,70.3722498476767,1086.06105143706,211.10359881849,581.97559317686,111.414654293976,1301.97053161679,145.991109127075,1132.395707679,206.223211925917,955.020510740285,200.696503347876,230.819757144761,32.2939388810559,205.91927344419,76.1321534857209,1041.94487851204,320.017956059364,450.957038359927,263.943506076451,2080.97742994914,37.9239312435786,1932.74220452934,41.7418652285612
348.53237027086,-25.2307050694331,814.755488133147,239.542448286594,422.738213138632,39.353034415958,1035.13343073883,71.4949315612883,1053.63548815522,210.227795518901,561.006792717949,110.660222814548,1258.17963349594,144.479592842113,1071.94443101793,214.478621202682,938.508022820593,197.775947106953,220.848854848757,32.3325130432763,193.950152569529,74.7704922318529,1017.25684856606,345.541631599657,437.622395146511,263.298253366934,2059.85496706601,42.9195562027767,1911.40130377587,49.2460554589261
351.31545259962,-26.3683521404548,816.256596755439,241.614888475963,417.218531000545,39.0688376526529,1061.42967982169,68.4626619528645,1056.75270440024,206.604930813668,571.63962235739,108.846358202397,1259.41775116151,155.150751322977,1095.66936513954,206.034647582013,932.362868364211,204.648030934956,224.953221930747,33.3113471131461,202.298924700295,74.679810868322,1012.73915172442,314.510756991846,444.05071230336,262.865519362676,2080.83634941235,42.9124436001542,1906.01119228916,61.2713337290165
356.623104552168,-27.1059106407641,827.470562012654,242.998420988507,431.484847360044,40.8677715249971,1090.04426277222,65.8605922911729,1089.17441869063,199.858303345916,582.298331722938,108.639771642856,1288.43502723868,150.687699450902,1116.90967238695,214.705268794496,953.269578999562,199.842660227314,226.704198808649,31.4058679702593,199.719686308192,75.974785222301,993.156253273386,342.083984683615,451.302101898713,261.269146849244,2079.55110556475,40.0046923943584,1921.86056177051,47.0798685793794
349.471430182957,-26.4020396145532,810.440964849634,241.129973161296,416.034333741477,43.4010564039111,1042.3125086692,70.3229740968485,1052.17422598082,207.431428281522,562.787581582616,110.183245647921,1242.22246111218,160.156947387479,1056.57250851206,220.945673035202,934.916548426128,199.971343977816,222.656766314848,31.9202312443382,195.201291770176,73.9880201486356,977.560160120957,339.48735585103,442.350702132593,257.344736676122,2068.95108064416,42.5603487749745,1902.61059229029,57.302558601785
350.725596108708,-25.2445747931271,822.199831596401,239.2010655631,417.86521294871,44.7253554580768,1068.02805341308,69.14302436946,1059.61892509526,214.047831601792,570.67390514319,110.266133759524,1271.83421583999,140.84794242516,1107.69080834091,202.405713469175,938.686411959776,202.965157248328,229.373747256767,32.1713721448538,203.941208030099,74.8454499731471,1043.89292084302,334.118883027055,455.318820872485,263.783216490753,2098.76162638069,38.6125945990533,1947.52053845535,47.6226451464983
356.265050671284,-26.7382913120312,826.401961558688,242.781794548088,435.260144899122,38.7477507795351,1059.56695427985,70.249472687587,1059.6748555762,203.980771400622,569.875519899276,109.638579160419,1260.30796816308,158.856208677234,1088.67531938386,211.922772399818,934.08999709719,204.392195777884,220.180485764452,33.2953724991354,195.999330853924,72.3848558084091,920.423506086962,382.49766375964,446.610534460555,259.535651796362,2078.96485538222,39.5286220469849,1920.13793672558,51.2778471457099
349.085477427366,-26.1071166934093,810.291221514258,241.664105845524,414.284026269392,48.4723848790449,1039.78146867138,74.1617844996613,1060.60271586061,201.926662794303,562.522032724813,110.730188950065,1246.25032744418,147.949588350448,1083.97329536642,200.441050171985,930.285858850471,202.788596676306,221.101035844309,32.2770378401129,193.552060449289,75.3224788895357,1022.98743504708,287.692310816314,439.025532606253,264.814905818585,2080.99485009927,39.848980611579,1912.97847113835,54.1345208912895
350.800242775035,-25.1573631330617,819.603646505046,241.984131473041,421.424013638624,40.6828022976195,1066.90428147963,71.4097786081506,1072.52865067152,193.264304403489,571.299974059271,112.961804898213,1278.33828099371,148.313569102841,1093.40130322141,219.556668950578,948.656425630302,199.037809779113,230.436752809583,31.8164098451147,204.064800959677,75.2050206055664,1069.01540348985,311.379759930071,455.308567422632,267.124215432498,2100.5789451409,38.9854440279243,1925.03445774481,49.1188671933806
355.570877198953,-26.6122390224443,829.147211272195,241.082210005661,417.546996049771,47.1763789978603,1054.21944126802,73.1088040165667,1085.87791087125,189.716844078891,569.299289448687,108.988934392095,1278.70051720877,145.744837489483,1094.06240520496,208.637415628185,941.023063894846,205.864347906832,221.60632900439,32.3499497036302,193.960011503862,74.3986253334627,980.858135967373,354.129762356735,453.983135972371,262.796908924296,2092.71803636754,37.8216023941857,1907.66227314574,63.7358036954547
350.76949788189,-26.4975713301491,813.084607643725,240.783314210711,424.287446596655,43.9287103527373,1043.91835312608,71.0609393466148,1046.43556124785,203.950868625152,559.631518878841,113.057483281721,1260.08932002777,146.231052977443,1065.7245601036,216.449539578054,922.674948384599,206.322094980254,220.849621220796,32.7450188559719,192.722478393589,75.2097875617217,1035.88075118332,335.055526491788,450.294408809094,259.197020025076,2084.49392318665,38.7708168036532,1903.31616410575,61.136131152202
350.957744867815,-25.4611155522584,820.203965273132,241.29437637333,417.682851844201,42.5733345519704,1072.47786231861,68.4237767211441,1062.17484597679,206.161875602844,573.359587002978,111.531019213674,1259.74366364578,162.449311461333,1092.86047249964,211.947059458067,937.119060405821,206.861216636229,230.403568753967,31.1915995664108,203.910937828815,75.4307132606913,1016.59676428688,330.191785576323,456.621400757991,262.406541532659,2110.8323554209,41.737844259925,1948.66554793744,42.6472006102171
358.282096300281,-27.0223815319494,837.565750113786,241.566553196588,435.499593913606,37.1141853019004,1097.48449611417,68.6193749614324,1080.96107203438,213.950252766981,583.752680427113,111.110967330626,1304.84189657288,145.501909128308,1116.39196387049,220.769147648445,957.953364893284,201.924467801325,229.927609895055,31.6730596662431,200.111459756887,77.1910964614851,990.756705298417,381.62090597654,461.199912194757,268.630055991677,2105.09066218532,39.2649745676146,1940.29142143449,50.1971655376935
351.080800759451,-25.4869029756466,812.555989833562,242.439303150748,416.083745412372,44.411213458453,1043.9526500963,72.7474436642348,1034.81999607411,215.014622911735,561.743184419189,112.237941830826,1257.8147441087,151.280583565872,1084.69813053974,200.455129966236,926.339708847713,204.305930180986,221.8038905394,31.4875477490213,194.831426933976,75.303074565829,989.063827043302,316.240832880937,443.373140153844,265.83695378513,2093.84038107384,37.0774562592447,1902.27874713086,68.892010721761
353.325291304998,-26.0421475019463,819.94491980676,242.328841804156,422.787428765789,42.1879832274022,1070.73921404954,70.5300583955651,1050.20030215101,214.414508286769,573.424181480861,109.454033167224,1285.23163726191,145.854954371404,1098.90006309859,211.258546975391,940.579071176484,202.298475175885,231.958416942547,30.5303742153864,201.230155069438,75.4816877321353,1035.54070320995,326.505872916842,454.55826858003,262.815651018261,2117.04749842953,39.8620957071133,1943.59382048684,38.808986274575
358.071938251874,-26.551237475396,837.225882695704,241.863977104087,429.595782877834,39.1446259280815,1104.02827873747,66.2092741918696,1092.77456445166,201.76757485696,582.775233416228,110.817138938329,1294.66145090144,148.065324895817,1138.19789655013,201.111420811484,941.913015713473,211.677445241776,228.022413714265,32.870908546809,201.986174495803,75.9926272125076,1037.62474403231,322.80384102684,449.900105088303,261.558710116434,2111.92664709182,37.0882687091671,1934.16092992427,54.3916354684051
351.39139958946,-25.0983691520011,818.335964966775,242.466471437836,416.017235962866,44.8957344102855,1057.36652108388,70.3488127038834,1059.87984874538,202.838334763215,565.966500024644,111.778933732636,1261.94778593571,155.332098786071,1062.15509403685,219.19102028414,933.322032812225,200.751747478903,223.803831048404,31.3026726349525,195.007785277707,75.354499758723,1000.69989080897,329.30028878861,447.185690460712,262.216988440775,2102.15610532301,35.3718711332001,1910.96055285826,59.362871077825
354.962809366164,-25.2971549331023,825.692476895297,241.619869011379,420.91439433476,43.8198881012128,1081.06606203258,68.8194701725505,1067.28887650156,201.765513624953,575.416391876719,110.664044587647,1280.21302661595,145.059234058959,1111.44756685616,204.060888543022,930.843041216191,208.27112378725,231.306803429517,32.0313851927533,204.085187454081,74.9676187874236,987.624273647414,337.882945302274,472.311904377895,254.187803649784,2124.92170679624,35.4808730825482,1939.15773456993,56.2500205650593
360.726909368017,-26.9867994216452,838.487675469682,242.103041897706,417.935561871735,49.2465512161376,1077.08739756878,69.9399447721093,1066.47560238443,208.258731732843,576.20631573851,110.199442482667,1302.21127623285,144.578780842708,1106.5214036083,211.553237927199,935.501699111074,204.833628851152,224.198234059341,32.0936700785405,196.165283846375,74.7986724882601,1001.72314850289,340.825110545514,449.159344624717,265.793555310524,2105.66562172783,36.9163469606869,1926.14571473855,59.1417426758047
355.950701666396,-26.2887895014509,822.839484055131,241.291387734863,423.204886419661,40.9287393487357,1059.56424116945,70.5089720431129,1061.97328637799,200.246837402053,568.66624076265,110.902864462564,1261.99991427081,152.988331810589,1076.25102142597,219.272697251787,927.329727014088,200.922322993899,226.210715173949,31.74876641601,197.261798432209,74.2560988956263,948.821013298097,345.943159230192,440.954450726994,263.558676162865,2103.09857119234,38.7612102644478,1914.30257559765,54.5171694791148
358.467406806482,-26.4671000895249,827.794179752492,246.353914260355,423.378168083191,39.3910487453941,1086.19122031729,71.805175725151,1058.36210765571,210.259169421033,582.901023861067,109.195714017992,1269.95214535718,152.40035260732,1109.87062520148,216.038695807206,951.373195582027,194.755904179168,233.391527061247,32.1413618523879,207.776462355835,74.9087515506005,1011.93564249693,348.044360076721,462.666442233737,262.322304299047,2124.65139694165,37.3685342416417,1945.51774527551,52.448971621975
361.162586106634,-26.9116638650094,835.498631123833,240.55253286251,435.576918676679,37.7042774962405,1060.27177135338,73.3027119106666,1069.43390402185,210.989484720103,572.63892701975,110.405974094197,1264.70722981655,159.640944946537,1082.50511725742,219.28317369002,930.535035548751,204.605262567961,224.347413619854,31.5977608396553,196.607474662924,73.7796292119338,919.795456247018,405.397697534094,450.62553522778,261.513357810934,2104.44705028565,38.2702322851811,1934.10288407247,45.4797587305033
356.241514295863,-25.8419870985975,824.782372590175,240.719905226815,419.772863316361,43.5993408743446,1062.25296647767,71.8368982592167,1068.53764009024,205.883983509109,571.099037087394,110.58788835564,1263.11995076582,149.955150321759,1092.69180581918,207.461148080082,942.304631586343,200.114394174282,225.837033089902,31.4732388912426,197.655990763346,74.7313112195317,985.527533167759,344.877907706832,455.646857764065,258.08223703136,2104.20795898674,39.4584369234959,1914.54230542822,57.3632622757232
361.259238280314,-27.9619212395637,831.097072207882,244.359304651631,426.180153658763,39.1208435899988,1090.96724635426,69.9215222222324,1094.10205979162,201.83821452655,580.080450263044,112.826960128767,1272.87791306412,159.683396239992,1117.49487572902,213.635999062972,950.42167043831,196.319296944915,234.239951980343,31.3896599456594,206.827080868896,76.1120878145245,1022.29490381484,340.090426251674,446.233377693831,275.341281354551,2135.90170656948,29.8349154347318,1935.80526656636,64.4031277032202
362.952890390079,-27.4040112012517,839.182100005445,244.379340311707,431.447702418784,42.0544283524658,1072.149528701,71.4482668030799,1081.98899521427,201.828472112411,574.53013967984,112.512375713497,1269.66602717136,159.301621953468,1097.91534616222,218.758079790633,940.644928889884,201.749541344647,226.182002268486,30.7622537921788,195.742413820434,76.255769725799,1062.72096990804,301.586418451494,456.275857958511,265.837881871799,2112.91367884271,34.4208330831509,1937.44477089973,43.814156842922
357.339764038845,-26.2454993042854,821.681145124761,245.841335573304,427.39852874417,40.3374341970363,1056.47797818355,74.3345816674832,1066.53348616601,201.76713386529,569.492009037541,110.909546953093,1263.39398449441,144.632872562154,1081.67530030366,211.6801076904,937.503584953584,206.461912437741,223.915031068142,32.8828431943604,194.339207809223,76.8457245827379,965.793230958649,364.569801747938,449.969266442192,258.677666713195,2103.28754817622,35.7487610006097,1917.06951513024,53.4486470928567
360.228399314307,-27.1437281902264,834.28185236142,241.390671482957,426.940436972938,39.9233680910902,1092.32938532261,69.7253984480545,1094.8236111855,195.974463349128,580.740603404336,111.616041745464,1268.88526700851,157.765297390118,1112.29481474067,214.302926042389,937.655811412202,207.281035685101,234.206840199787,32.0972214097477,205.976416019257,77.5313141702617,1027.95643312763,345.49798638179,453.532721255451,267.006961107799,2135.10802373115,35.1979599586304,1936.63709761425,55.3159011492546
365.721531724826,-27.9169996852824,850.467452116719,242.669050824295,435.805614948115,38.3850615312124,1119.40622747506,68.4480605346699,1105.69690905458,209.267487479163,593.971745809507,109.900389967076,1295.56581592529,156.772356695147,1136.9786551565,220.873560122498,955.342130476452,211.46035762569,233.591073425268,32.9065406616824,206.651888899985,77.5481384392016,970.846787877459,371.194485536419,463.30076614721,268.653100456166,2125.9868845165,34.3678457954784,1953.38779015245,54.2826849885007
356.207297897596,-25.2325627895142,823.699166159273,242.837219403579,421.031667251665,43.4559200712951,1058.50741958096,75.0034274514655,1054.45762068291,212.116275388654,575.810125779447,109.48975365011,1262.96858099158,151.456678255736,1095.81882178802,210.820418480406,931.318584149948,204.809857529381,226.06376674012,32.7293241333075,199.980024374597,73.9212432415235,1018.02535441048,321.62810289865,461.215818730176,260.502423999463,2105.51131759154,38.1373659319483,1931.05565716701,60.7760647881707
359.638723057984,-26.9969513559692,837.72889448592,241.527461397595,429.570161864705,38.048824252007,1083.78865765361,73.3145757633924,1079.91855181857,208.951200441835,580.796404053944,111.235822038643,1283.94310867093,149.281203352637,1095.7593682531,218.613520912615,940.829461041312,207.35384821308,234.090190584787,31.1872169511931,205.388265121808,75.6866113347438,1048.91001803421,294.612969948536,464.280187337775,266.27001361669,2127.13836067892,38.2027395432159,1932.14505383224,65.68128037339
365.54936077493,-27.8639396356847,847.132921608242,243.474840548867,440.158639073897,38.2556669146269,1107.27205524962,72.1520625149701,1091.59172444221,209.433713247646,589.100574260724,110.282579463858,1289.61885167741,159.884502323458,1125.56068611313,223.657532261551,954.19071154349,199.487524394155,230.367808496512,31.5148292686609,203.428349248493,75.4241297120528,982.758210502901,359.912738101285,443.672965716713,273.094169408292,2113.19976745894,36.4756962359604,1946.30458494738,47.2089560969963
358.188745092649,-26.0651799756199,826.852656378327,244.128177763349,418.456097446047,40.7543557416704,1064.40372901124,72.8776800701912,1068.49457814258,209.056404661404,574.095181842612,110.037591300611,1264.68234540202,157.933170403745,1092.74748766317,213.444644465492,932.905240098791,207.443569120469,226.565572178832,32.3889559523117,196.37779573866,77.6758938693202,1001.50989415559,360.561318462073,445.343690778808,272.250258115956,2106.57447562131,38.2012294331999,1921.56646999102,61.0435542054723
361.967353096978,-27.3219130956754,835.059501428725,243.95956054842,425.598576145956,41.3356004088125,1093.197253275,71.3387547768848,1090.88774928313,208.958336156523,583.081392325936,110.862527919191,1282.84813912902,151.765137143773,1108.00826724625,216.547557480487,935.449458968534,207.438635131222,236.157937423686,31.1362413202428,206.179796313243,77.5220278920371,1048.88111404564,314.028587798314,452.241018754159,269.877059387374,2130.52287861831,39.6036575629742,1973.46535368223,44.8847301462063
365.598650708229,-28.8333322388325,835.989382390673,247.608296352918,426.177867599715,38.9487673723664,1075.05478617575,72.9064954910362,1080.79666413669,203.798405952714,579.768687592739,110.586418870521,1282.82542165877,151.053313891029,1084.43168154875,229.854335663544,930.824740980158,209.093395748033,224.694665429828,33.1483377554062,198.188129567312,75.1889787598225,981.237993551222,377.516153495881,451.428304048372,270.693204891512,2107.1729961149,40.083116404377,1940.49751712324,55.8888105814551
360.528201382615,-27.7935216241991,829.1367999751,241.292763097675,425.690151247847,39.4105356354769,1067.54870532746,73.3544158504227,1084.98723509296,204.12656359304,575.702947405944,108.785713986158,1259.67023046185,160.947037773813,1105.92352421849,211.862617441864,936.65399940157,211.912516037461,227.691054118155,31.7613237714669,197.569345638954,76.2070803869768,1072.27250950565,302.408124884815,462.615052556786,262.182686393757,2108.10807103614,34.2251464642987,1943.62868514297,54.1043832399373
364.190283531574,-28.5369689176186,836.473141109052,243.895301875802,420.5310235323,45.1256215962935,1098.37316308582,72.8056705956254,1093.53000087199,204.690151139653,585.689965445993,110.824897298074,1284.91919086303,158.989877944107,1111.23603686669,222.390995527213,951.388007260815,204.413736466998,236.069153405185,32.3619895621374,206.344043326149,78.5775615586691,1010.01503911116,342.826214809558,461.750902336174,272.218808757209,2128.86195950454,41.7047036436809,1949.3288917602,65.7376117889769
362.951784614545,-27.4460215834902,832.639975287333,244.731805695146,423.465633336431,46.4046656550767,1060.62438299895,75.3009076414977,1061.86054955893,209.451648832938,576.584076203294,109.256125400053,1272.0045564469,152.444973385063,1098.19026178537,208.092459210008,933.013691491549,204.902426967288,224.704293420304,32.4749200151589,195.463416219534,75.8257467390263,991.201879542459,365.872874360774,452.32985919795,270.222290860906,2107.38872552353,37.7313416721884,1950.9618688886,49.5941495649011
359.773091694709,-26.8173478645239,825.379491534761,244.193398736769,418.46643720034,50.0833851420471,1063.16887742976,76.9841997454653,1084.18393603808,197.883096076427,574.175670701722,112.994977247293,1261.46740394662,153.346752978877,1100.6665052463,208.702073819138,924.320299836664,205.381128261371,227.096265183262,32.2158570820588,196.895239227785,77.93008454747,1049.38799139097,306.572656186877,459.789127318993,263.640143411241,2108.4592277082,36.8027011508781,1925.57958195381,64.5093111203338
364.586939416148,-27.4158122795515,841.32133382197,243.609226864047,426.383823359912,39.9060708983731,1100.42410887673,73.5226534024066,1090.40888122729,205.2624097908,588.668211812592,111.965276760958,1301.88479453423,146.674588613881,1133.68744335847,209.590842312304,948.031469464883,204.448614983873,236.71230810504,32.326738354552,207.746467421311,78.6860602403759,981.785109118623,355.184399930365,477.550162985701,268.359594859887,2134.89373329718,37.005714680448,1974.98489752148,51.8659580730292
363.542832140459,-27.7123853514747,830.46154559741,245.304635016465,424.438279296152,38.5865113974951,1064.54931384611,73.2349853876371,1075.12332798667,202.001086487965,578.731279431389,108.157170964282,1258.05288136684,160.334234042939,1078.81889170409,222.354533866473,937.805263582119,199.431562945716,224.639271177014,31.7747614087,196.157438752842,76.1503817759639,1001.4120550486,367.79071159135,447.240014282759,271.072407146752,2101.65811073497,40.6560888473952,1929.71553633803,67.109894849885
361.83144670565,-27.5213138658559,831.77788768043,241.646037158195,416.507924866403,48.185045841695,1070.57990263722,73.8307892303515,1085.64200316242,200.300972015612,579.076077687955,109.033422610435,1277.08202766247,157.713680896806,1092.74938284989,218.289780692775,943.625458818827,202.674939816919,227.751331622535,32.9273224263462,197.804500136646,77.5752628240724,1019.95681406249,333.893500843418,454.612634378967,274.343942789224,2113.38810347188,37.8509268333369,1955.64625081634,51.206267568864
366.156012538731,-28.1248495496296,839.756008576455,244.508077669677,426.651044073616,43.0312779270455,1104.24122169569,73.5308333865734,1095.90936903759,205.919613788956,592.032955339148,110.655788061115,1286.8820816676,157.541207430493,1118.95834663676,215.362761207361,958.444330869793,202.988553982884,238.115702052108,32.1011454260149,208.89261042742,77.7129976337227,1046.62822991301,364.629678472475,464.886482082204,272.324594323407,2144.9523405733,32.9191177859292,1972.71073455104,45.8328224812509
361.144346097708,-26.5678029152044,832.525050297033,241.567829542341,430.897685923148,36.9193870163138,1064.4717965412,73.8257913132633,1074.57014114009,204.042963732395,578.690332481899,108.420071323706,1282.50249965048,147.961975599009,1085.98558043821,214.924029715912,923.053416019587,208.212259287894,226.20986204566,31.9429923844943,195.456331061098,76.0134510917588,979.598414725515,340.801774604069,466.878880293325,257.331271489,2105.05253852951,41.3540956003503,1940.75413441879,53.4987108868656
363.866249034311,-28.2254540441767,829.112207944219,243.420892112499,429.155205340156,42.8759337719026,1082.69913336546,72.064090322667,1074.43790498927,207.583705283383,582.998548531935,109.143909375851,1293.20537798429,142.624900361577,1095.42083113499,218.863218977398,938.493264413581,205.740803826457,229.614045277275,32.8988793911793,201.246670060767,76.4313909514925,1027.87226255237,355.380028934473,463.851524330402,270.577937932089,2128.18906456544,33.4725564660003,1947.47848812903,57.4649394189035
367.591216056765,-27.7875860147306,842.338286751312,245.099693495358,422.912802213133,45.3599015085235,1115.15816421362,71.4604652613947,1103.68028672197,202.062514203291,592.822866090387,109.966942911782,1295.11187208376,156.264330481741,1131.08281254964,217.703392414548,948.186404616676,209.234728017402,239.426590925906,31.6279894406592,211.106227970098,77.9344149457486,1127.85648757407,283.765111712964,480.334645233843,269.787849548774,2148.97074071287,31.2453665877294,1962.02412439897,58.0403104899912
360.259570605474,-26.2299742279946,825.863327944144,245.370430832628,427.500553047728,42.5754300956822,1064.79069024884,72.7217938474458,1090.43594253874,190.853816998824,578.406272327838,110.133060154741,1266.16335045509,162.911322029992,1074.60319996133,214.322892844549,936.319332959472,202.658376305761,224.269690615386,33.1981092494852,193.39757555584,77.6696235184049,1023.78444489368,334.815276363025,453.585213012663,268.696392436452,2110.18511591659,39.3961899087022,1944.08852949384,50.9077897405804
365.073803003002,-28.6063190462936,833.482105369269,242.446868099382,424.688534758761,40.6911076080896,1086.90971679851,71.7674018543572,1071.18250337723,208.866352066816,585.752997831048,109.383616329738,1273.31796531313,156.802395510994,1105.32147198157,211.866735865379,938.981167977115,205.798295053163,232.404888392342,31.9681678392134,202.623179998129,78.4781577185042,986.308370662008,382.001695014988,447.82533324432,280.26633345617,2127.1951573754,37.3426244240668,1920.59335431443,68.9966568485304
370.622492674518,-29.2725933485886,851.424339426414,241.505749924775,435.724536716302,41.1851272471244,1122.42985814445,69.5977426743386,1112.16731868849,197.872284276729,597.522420532254,109.712953751293,1296.41747144369,151.716766645381,1137.17512551902,219.324232477274,965.055904281774,199.895550146112,235.296621054848,32.8606000545557,207.284062024155,80.0298578017881,1015.20852969414,349.186764895186,470.748393804655,272.96685046403,2127.34159415267,36.8352622954517,1961.90712260395,52.2552727394746
361.087863430007,-26.8006005289006,829.034582090974,240.979119878674,434.205240333226,35.5235636807334,1066.80024863812,73.7015882843737,1090.2362351088,193.029848642412,579.013349676393,108.76003616085,1281.13673908656,146.171971893128,1089.94994863858,207.881839510464,935.994020627206,200.658448536671,225.60433145813,32.2865984452376,196.430767182545,76.2606244047301,971.81029213814,364.798821970434,450.676781413832,273.012875722998,2097.28774628976,44.714219779311,1921.90848193743,67.2649335276367
363.798898816561,-26.6273605383706,832.876928529704,242.642048623029,418.073377324491,43.0471430260233,1091.98161950573,73.4186631167453,1097.27090677185,191.157563672246,586.594623738279,109.184483884732,1283.04453735247,157.492402051739,1097.27870305435,216.853955298857,932.731400133186,211.579106904191,234.173947355344,31.1887961223323,203.806830837107,77.7618864047931,1019.70661427969,377.953848211156,461.810169438752,268.022703930856,2124.41474744242,38.1815252191119,1936.68005455598,67.4867927333755
369.526037055202,-28.6810018769987,845.905106644598,242.317789506422,439.429525401817,37.2086849495947,1125.58277844207,70.0245623563049,1120.15309142798,199.420609878053,599.381405376044,108.417771204266,1301.67969020261,157.450469878008,1146.0565587165,213.450626521343,951.702833554234,198.574400922562,233.740137434954,32.8387052687287,207.252000450686,78.0374823540288,1037.15346103004,341.694022954576,472.155775344007,267.839327962692,2122.99267101151,34.2602786839274,1959.12158782309,56.7383924897202
362.740212124815,-28.0239715401578,827.375814945246,241.203087403072,427.063806455581,38.8815849908649,1074.4843332412,71.7609611778356,1081.48668500713,198.8081909698,579.129229197767,109.394121662393,1253.12386797173,166.901812246378,1087.56854593905,217.202244054992,931.639505452003,200.996153022196,224.806349577695,33.5278897180837,195.594916164873,77.6500480895964,970.107375770376,384.643634668573,453.234819387849,268.852087811873,2107.31360227497,40.3706323311812,1931.63173647455,52.820384738301
366.029069650989,-28.1636064466679,832.387798033906,242.364569288976,424.664529438996,39.4553461089626,1098.39943535453,70.7169648013484,1080.58492455304,209.07688941713,588.485147222034,108.874818706131,1262.15982511247,165.338761141802,1102.27151508954,222.098408521265,947.079711581063,203.824273026031,233.513629671148,31.2042163232685,203.141279658186,78.7706693145713,1063.46585945393,343.579686506822,454.370688084699,273.370676698447,2129.14473574499,38.805879660865,1933.3858366284,64.6271132097502
370.164303187568,-28.7008392600695,845.85808447644,243.673877979563,427.625694393817,48.482397453557,1130.56622707362,70.514244058837,1112.71299713624,199.894341716222,600.978006093761,109.877951936328,1310.35016645041,152.958279097385,1146.09667487444,213.420122673457,955.916991023966,202.855906064828,241.824883987937,32.528149039928,212.997284310793,79.0478269119728,1078.79241527949,286.002499987255,476.345552051289,273.740243030407,2164.26469956952,33.2421438486686,1956.70401060867,62.1834979224983
363.808042373512,-27.0975378958555,830.366883634824,243.939638180173,428.738663088933,44.2961601931066,1073.10785033205,74.4466939960241,1092.44537724201,194.43934017643,582.510249274308,107.63312751274,1274.11575880332,156.596352872615,1092.85314383378,211.295853292951,921.713879040865,209.98940259367,227.184168775679,32.1702309331953,196.38597963857,76.8954085699092,979.032408860577,358.95997582264,453.612916648963,271.99668199846,2113.83505217963,39.6274270989794,1946.72360097266,57.7722874034986
364.70433546848,-26.8139165107224,834.095553899092,242.34230019377,420.408338638375,49.2802553079511,1097.42575350533,73.1878626580733,1084.02638301342,214.187091460794,588.797397946126,108.807906782011,1286.3356146856,151.359575713872,1125.66209213994,210.507542394354,940.097307050368,203.259270001924,231.314311632342,33.4610349516455,202.603830359521,78.3667705816468,976.024101717032,382.009108573706,461.729773763412,266.059896924804,2136.27564147352,34.7684887136556,1917.7719620972,79.8453426271385
373.25661900346,-29.7301343165495,850.35921438059,239.864072008661,435.739672495245,44.3321570930349,1127.62470671712,71.8179255878191,1102.07816651705,202.818195758811,598.258753736313,110.973819020852,1306.32633597922,156.384213998356,1141.85099033774,216.700361863747,973.152723364865,198.836285064502,242.297896970293,31.1213183123876,211.899708982982,80.1784368827133,981.017729864332,388.287778309214,481.228514461772,267.406551813873,2142.8563140423,37.7268184961119,1970.66321452636,53.1110504752564
365.827636859566,-28.6910712534436,826.929828157919,246.561550540923,430.530266086966,36.1995277568637,1084.79017261145,70.3294810530713,1083.16010283659,207.621620754357,584.355602256479,107.410708015394,1292.25634443138,138.617758546171,1097.78037259217,216.113483723046,936.37375833521,204.748299722292,228.077768614489,32.1034137540842,197.741956049931,77.732922811411,1035.0786882601,344.689418757576,453.563099557772,273.074313882225,2116.85770077317,39.7128389836876,1943.05909817841,59.906008410104
366.732425838211,-27.3965823345345,837.127052300728,243.324211130901,425.729541678761,45.2490087098326,1105.73668040597,70.4141559371377,1104.16973041992,200.531259712751,593.590648692001,108.371430788983,1298.17239742157,145.663638868847,1124.41667365779,205.683261686737,933.212488137932,208.715780192056,234.929250524016,32.5297649593915,204.177271075322,78.5631916998951,1045.4612639516,313.107937331549,472.466820858392,269.551004142099,2132.21671612109,40.0828097167404,1957.57886022751,53.858893617105
373.916280751882,-29.4384823318647,854.711081823331,241.675863498191,441.96576855104,40.334218599792,1136.61059107011,68.6771843307046,1111.43300259062,202.11564715776,603.675105235029,108.517352179348,1309.50989670284,155.339612979948,1154.59258300661,224.230291934648,961.244555128539,211.383475737858,237.899979267046,31.7387811076494,208.828230499469,79.4391369696736,1081.56201778068,341.169298392551,470.060213796719,271.098528164167,2132.73999194768,33.6038570326583,1970.00399783309,52.7018018884645
366.368187311681,-28.4021186764855,831.958194210394,240.949934997018,428.309603701017,38.7653156435912,1079.59700989933,74.9438824092412,1079.21861207575,203.708274913083,583.378559534667,109.729803334195,1277.19667225617,150.71860824128,1098.44830066886,216.925814237301,951.018939066699,196.976219652051,228.487918950213,32.0366680580148,198.982067707236,77.1680281127736,1006.52183811316,354.884760926307,451.439739190921,277.49547383454,2125.23863136754,33.2855034462646,1941.09547746591,50.6435609702435
