728.342542273272,-83.9570918804538,354.824611169012,-38.0912239066109,248.176188582118,7.9620783244093,1257.3665520282,-165.45123330498,274.535459852699,-27.4886406491796,389.098874222477,50.6917627674163,1056.82531989586,-28.8839420829664,853.994203486535,-98.3133206752999,843.006189219672,211.858870743873,1019.05737231406,-215.803441424843,301.484768115488,-70.3025473820504,428.853707518001,71.6838551937067,288.347310033069,-12.9094123004522,454.060136261309,-3.67482799585372,1955.26510810896,94.9451674832765
726.52388179481,-82.961572057769,349.971125865131,-37.4336783538239,247.562008662735,8.81377082174038,1253.88503186955,-163.847083440464,279.738596103777,-37.0580086571835,380.357077582375,52.2872904980154,1038.51525813634,-20.4161096632949,830.383546976562,-93.1687763091356,840.314323006209,212.61285494222,1004.61681129653,-208.310394178806,291.406876578146,-66.0757398785955,412.58477561583,76.9992895147112,284.701352475047,-15.9733148345275,450.535221524374,-2.79570446408021,1931.4163631563,97.4889112559715
724.564556439887,-84.1822626227634,356.48625738188,-37.7116892531426,246.640330121392,9.0995192455931,1254.30254378616,-165.42276403522,278.895549099763,-35.458216903675,383.602575968466,51.5683930630887,1031.03412781979,-16.0201732581646,838.539223593651,-99.2666494254058,837.567062356461,212.684238608123,1016.93253103008,-217.25649382546,294.813986408976,-71.3005952171341,422.630885747172,69.2735970614708,283.860741441684,-13.8242882353874,452.87164285139,-3.60208579421002,1940.83801462178,97.0299491703634
733.627389534705,-85.5281159665372,359.766643912291,-32.7041511830148,249.179256158151,7.54043826524663,1264.37245636053,-168.137013801792,271.437654460177,-27.9686912514994,393.761860900241,50.21016633322,1036.23807733521,-10.1793686562203,841.419019366795,-94.4113234429567,845.333340314479,212.037392553637,1024.24601076782,-216.111162663058,302.667050058825,-73.4065910774192,426.134877549632,75.6727230655851,294.420763944119,-19.299517410151,454.966808436168,-3.36509681105653,1963.77473956736,94.0292080762128
724.443961212687,-83.5524446717285,355.825840017161,-39.7475978122853,248.517302583153,7.41643977787115,1253.40446174873,-163.877467124564,281.48619161435,-35.6529801435749,383.202047032276,51.2629539637643,1024.00565890525,-13.8628059694589,829.920627965533,-94.3466806443827,838.691658026869,214.335297824325,1029.92604934712,-224.177420842139,290.107454542365,-66.8569715069356,421.096907030817,75.8996583679014,290.990223617501,-22.0989299716106,452.518179353317,-3.38323772690777,1941.7811931439,99.5668378067425
729.854763607178,-85.6745332041786,359.320942652096,-37.3903548784093,249.268308437884,7.9854998790219,1260.37045788415,-166.070617968775,278.062767385169,-32.6809175534986,389.185849478275,50.8883755147454,1038.28652457381,-16.5945531495613,838.091030987644,-96.3006970327392,841.765004745287,214.437468839088,1012.79136479034,-212.198779170162,296.203583044778,-70.5351130252851,436.426011016707,63.1692980181464,286.600225829145,-9.39655735695126,455.415626470386,-4.02367274079517,1957.80700812041,99.0743972527821
741.375202243987,-87.4331771182109,352.091401426879,-35.2185004287592,251.124065806747,8.16253832749931,1269.9855087714,-169.221883801039,292.154725695333,-39.0426853184818,393.454363320163,52.2935115963009,1054.32700010839,-21.4387265600058,865.798033383816,-109.170439194938,852.776258116897,211.769854539372,1027.06005051921,-219.800709183935,302.215794231047,-74.5210710227504,434.632922115706,69.3025097321654,285.230060873357,-15.6424229344601,454.691515156318,-4.22661566377953,1957.37383494634,95.7228413568641
725.911784845547,-82.694124801521,356.367959267833,-37.8788585984891,248.212457298645,8.48476171020867,1258.50311088964,-166.09238849879,278.530962834592,-30.6633254432706,386.551251116096,50.0676386773671,1036.40027039224,-7.00643321013329,837.936023804815,-96.8921871151196,842.280368262738,212.867837443006,1025.91204621323,-221.996194355741,293.157090817697,-65.5905406364825,426.410811275791,71.9094946334554,288.968551413902,-13.5535821666617,454.320889940651,-3.86775753639888,1957.57508704873,97.2243779591563
737.075056773139,-86.9418478280105,355.448413276007,-31.9636005585551,250.93825135452,7.13780912028382,1265.43654059218,-166.44960401793,277.623971903751,-28.6205619825964,395.782507485873,49.3275881826758,1057.45621048489,-24.3412840135298,856.90422862296,-99.0867935125552,850.003016589667,212.844606193897,1030.64895303522,-219.882436282457,301.502774042201,-69.818877120507,429.935049188402,77.4887568662434,294.999923061229,-15.6817259094236,456.358026989745,-3.92897406829198,1982.5350471691,95.7039305018953
738.114525947178,-87.9748495990231,352.460313367104,-33.7378618636722,251.451821778973,8.2014119131791,1262.53998226408,-167.450879919852,287.518115115186,-37.093088659467,386.174304219679,50.5495517574912,1050.48233267527,-20.8196694462175,844.241723600273,-101.73904786611,850.040002091208,212.883734736263,1030.49471870412,-219.186768858182,292.794596613603,-69.4214458862987,432.029104347525,73.7606229587578,297.96772046248,-17.1335937877837,455.066858403575,-4.18931330252768,1967.41998233622,97.0608693769868
731.038582098363,-86.0790896327971,346.852794251835,-34.7710586525902,249.423487332534,7.65678864298795,1257.99104415019,-166.995840906742,281.108231514865,-38.1549817855654,388.205505997406,50.2848971240377,1040.07092637065,-15.381927957047,840.8482898331,-97.7150814193598,847.20592455994,212.532665269682,1024.10772651157,-219.016489708663,303.410110706661,-73.3752281290508,427.058668744822,75.1695215705594,289.949356210394,-15.4295015900384,453.994472516073,-3.46419673108293,1965.67899810787,103.856098932701
740.941518153887,-88.1716915783522,359.042108932345,-40.8204487808387,252.879018053552,8.4295649638591,1270.50637894327,-170.05087331645,285.539705034024,-31.8578747127972,398.340295431117,49.7172324354094,1062.80204530751,-21.2236091614924,853.226650739259,-98.824397504382,857.239135754604,213.05870010554,1039.2025087502,-221.601172355359,302.607332477619,-72.6207946665088,440.081474709489,76.1015360917173,302.848493680558,-21.9773077937113,458.180483371292,-4.73778712655859,2006.38572258629,87.1944684535462
735.838391980076,-87.4894144715512,360.543640608987,-39.058268916437,252.996988240755,6.93379085897475,1262.25557406034,-169.214199417993,278.694567069217,-32.7482376640653,388.641014849861,48.8330896563037,1050.83009589655,-16.075793473045,849.987913328902,-96.2923487833639,853.361246656037,214.174837660773,1022.45270138429,-217.946921005817,301.906127450144,-70.3359229284793,437.274441431552,72.5558369702237,306.800429667124,-24.5727445336195,454.64090323593,-3.81818673655642,1971.72384219829,99.6945166650423
737.152539608011,-89.0459060216997,361.436609203123,-34.0755859408192,254.087663875291,6.1842923625809,1262.3113192146,-169.053699914232,279.698720340171,-34.3668583380859,389.855526007757,50.1587022832216,1049.71060002154,-18.9013595703263,848.670757688967,-97.7609747605802,851.359472907468,214.850800388036,1023.03090154167,-213.641810688699,290.142839858708,-67.3644850017104,436.999512466526,68.6580067245198,294.295439402822,-16.7478312558551,455.086622760788,-3.74571296435529,1993.14400705983,93.0359548832833
748.992519965793,-90.8306593684087,357.922333929017,-41.1267001611214,255.212070993689,7.49044038370392,1271.21988844569,-170.370688269179,286.703711174312,-37.2130943834762,404.673929918779,47.5154677956958,1067.08011276968,-22.5223443005088,854.512702313169,-100.906871572279,863.159133143894,214.467175187402,1037.80882022351,-221.078976318597,303.482760384051,-75.1439758335886,445.847461697859,71.8916035644836,303.814373733158,-19.5825056727141,459.684164163014,-4.72222350660678,2016.55825320294,93.6601545913781
739.995540649978,-88.831867672429,365.33067440438,-38.2028720984102,254.514688886042,7.4399844404692,1258.96863507782,-166.227008558667,287.449990429556,-40.9563261488251,389.768203185482,49.0417315280009,1055.29514806435,-21.3236551635103,855.194211340177,-100.387673531418,855.821310018006,213.989761857579,1021.83198076115,-217.444021027495,297.453504808639,-66.0426912365735,435.44008063467,72.6109945553189,282.635326429501,-8.46454875178335,455.611715671194,-4.49854868601375,1988.70404044654,95.0970870081936
742.899590867506,-89.5455013356476,355.476761624388,-39.2630821911934,253.885320199207,7.71332270450939,1266.56569285949,-170.020207622911,284.273647295141,-33.1241157210463,396.982031841183,47.7651023798092,1056.42132813605,-16.2309801242337,855.306416760429,-102.272938317923,863.189429231886,210.485907684547,1034.0097414628,-220.543737982739,303.693566013518,-72.6926444172682,452.176606332315,65.1545446821764,292.511832971893,-17.4495980085149,456.595738393356,-3.68464573273164,2001.90704105519,96.0006804864295
754.940597412444,-91.1109299440126,365.732884653203,-39.1735016617269,256.261728538934,7.48613556199952,1274.94767335312,-171.293719914698,294.903926730221,-38.0009843004967,409.401445795334,46.9749717980436,1080.29208124835,-24.195493899735,869.043423919286,-101.257728739323,874.387647057469,208.863247396099,1036.76596470985,-217.388848368755,298.352221892164,-65.5903914620746,441.983030769424,75.2646532142399,300.62628883429,-18.2985494277684,458.152788376618,-4.52728090076336,2007.11416456759,93.907718763449
742.681496674487,-90.0027171061089,364.774836849979,-40.5249388255101,254.549359519272,7.10934888705861,1265.56329150686,-168.632012419201,279.016067574715,-29.0898296459285,394.316849878221,48.8136900153465,1056.46956808481,-17.9453982449556,852.633147691525,-96.0815657321935,865.722838164572,210.891503323327,1037.80698102525,-222.680887622911,299.735750533391,-69.2371524418115,430.921266476619,79.9671293345103,294.4696299504,-16.1864212977989,456.409328235697,-4.39810506356334,1993.14132546189,96.1169602425982
748.054818097249,-91.3870598728168,357.467370857822,-33.8978328727455,254.669763982538,6.83775829814177,1269.91470857212,-169.535549707932,289.655009856317,-38.4140645840717,400.050104298919,48.3280667685885,1063.67898809701,-21.6024620098281,863.428638745083,-101.913511058836,868.356399257977,212.127074334623,1042.7180701185,-225.33776780611,302.538146442655,-72.1719887256918,448.722826994241,64.7843035609188,297.685974317943,-18.1833760473973,458.004241644402,-4.096034226752,2016.75748833493,90.8853449219692
761.891792402852,-94.6987299196808,362.261571344814,-34.3601643675035,259.132406870593,5.88122154116126,1274.80214005393,-170.853406326965,289.669108606284,-36.856468537441,404.301615101155,48.0011618120705,1085.13785306862,-20.7936557324879,870.268490489638,-102.291335867002,875.526152951413,209.990905432445,1044.75632209458,-225.469923002331,302.177098513001,-70.7824046726258,447.82780597694,69.391128109367,304.425802926751,-22.4826249276478,457.911170102222,-4.88048552461172,1997.83113752151,97.9459591324118
748.232145716311,-91.856003057129,355.393047740117,-33.2979952324019,255.20325550373,7.47959271627535,1267.95466317224,-172.036815213345,284.438483970647,-30.3464027006733,398.537077187409,47.1698221467348,1064.22875558577,-18.7911629389582,861.852430691198,-102.543781086699,872.184961309504,208.534099406206,1038.19035906572,-222.999558519348,300.263656064639,-71.6437404451099,438.441866396191,75.0214580758352,299.869207205315,-18.0313581247663,457.106638627312,-4.38108234452098,2001.57723166424,94.9157435845536
753.3505137157,-91.6092773251412,349.457771101857,-32.1499604069284,257.890012467356,6.62045083184493,1275.42741620064,-173.003541858844,298.743690298405,-44.9580202073854,407.25678255078,45.4595477901767,1094.44264566375,-35.7738688341681,865.973206319157,-96.2758908664944,873.148536526251,211.930677317031,1051.21386814324,-227.224340523473,303.785175954614,-69.1014405102345,455.032843059925,65.0053144737018,296.041840873927,-14.6516466850742,460.863727880278,-5.11782038672252,2024.67407866012,90.7264957743978
753.8352912898,-92.5589209761173,364.549482619992,-35.9319727198435,258.522069786766,5.85157418034034,1267.07366530509,-170.112998777109,287.91182968441,-40.6945498763276,398.385740514539,46.780128291128,1080.51980471679,-31.3556137017524,861.370059768493,-96.9836063045022,875.862321017872,209.790133313152,1045.35822707566,-224.378663726948,306.766819558263,-75.7811936204632,445.761929289984,69.1885952677606,300.12834387161,-19.9939933804045,457.735363411433,-4.68910995103655,2010.12718672999,90.070600782956
752.797357427188,-94.3117695619553,360.635532500236,-35.3798703653452,256.815816563517,6.2381428366632,1267.16299623982,-168.181952080685,291.015836612721,-37.1512787801895,402.524156338211,46.2525326752076,1063.35379291304,-23.2627418015072,873.89013365949,-108.787737888572,875.954293523685,210.057475909201,1057.64788187054,-227.491725693511,303.484316905917,-68.8372222507153,433.361348278642,78.6570474820755,295.510081816671,-15.1648097313823,459.466850921143,-4.81078251657576,2013.71529728632,90.2245912674084
762.771770446663,-95.0521155652891,370.332546337724,-43.9392563874914,258.218750170565,6.95564887968079,1280.46043027663,-173.712175133706,293.851692853237,-37.9058012895401,412.607865703753,45.6476677559099,1104.53506776542,-35.1475600796421,872.808793023936,-101.774609265059,880.390768663762,210.433609793145,1057.17780283412,-224.356245067749,315.170178789983,-76.1436869747425,454.198750559295,69.3812207286495,298.72812873383,-19.5111225300957,462.300999078605,-5.00950086402223,2039.29144292317,91.1672802018917
752.170606206034,-93.9898666587911,359.677774959743,-39.7161208103314,258.290926832649,5.52531260574276,1271.35680102636,-171.487379580627,286.051558624141,-36.8965073871547,400.780173536692,46.5825991734771,1077.09232272786,-22.0747750097339,855.613392693481,-97.4546864205092,876.630422309394,208.795219621137,1045.92234517787,-227.964130603527,301.667723906434,-70.8347952729436,448.0561067697,69.1390910679869,293.576331201214,-13.9725247033277,459.703197091987,-5.3039891134045,2019.78590613556,90.1725393761771
753.282409583426,-92.3771580591709,356.058137740249,-35.1422280639397,258.168762350132,6.37146899321039,1274.4838407683,-169.618354221589,287.300507975746,-35.3353393464783,405.786785166369,45.9618566310268,1077.99961500541,-17.8462339767702,875.896894833444,-105.07095869685,881.975538399209,206.630653074038,1051.13833612756,-220.606926474581,318.092609168129,-77.2427877924881,450.737909130594,64.8373472715025,301.962045271398,-21.2356639030954,459.944980865732,-4.63476931863096,2036.19895888998,87.9065482810323
764.859450882122,-94.7714043453954,366.918979266139,-36.4160566990644,257.830325149974,7.97240523047813,1277.0586226793,-172.502146608844,282.678075905027,-31.4390528792993,404.970640011376,46.9038628721933,1078.0907573772,-16.6010466360386,876.254268953067,-100.432975228055,884.92257053291,206.535773895444,1048.46785632589,-227.957835397443,297.511492574376,-69.021730890137,443.708126051044,74.6887230209265,308.691500159746,-26.0828879164896,457.282262587013,-4.4700845896645,2024.57066786983,88.3326783439847
749.819966447893,-92.0983350990614,355.686994920758,-34.4788391451624,256.35890741217,6.99257981718406,1268.58332157211,-170.199442687784,291.434756153195,-38.8066220157809,400.280278316064,46.6147818169532,1076.80356978707,-22.8680292896797,871.418180728119,-105.51210371339,877.028697184122,209.175239419827,1047.76682267638,-228.397800262779,310.720009402713,-77.0137477367525,447.645489412108,70.106017847313,296.328246657039,-15.9407928287368,456.43594928865,-4.24853014393826,2022.19149764849,91.1330422121959
755.732628910249,-93.7225924049281,362.711707336643,-37.055880010937,257.823039473582,6.67947100809797,1275.28111153401,-170.135200552793,293.044884051094,-38.557243150466,409.174380976082,46.5671106763127,1093.14454763943,-25.438028341971,885.119933423616,-109.054667529694,886.392092713244,204.852043490226,1060.06098530933,-230.389573700029,300.129466429339,-65.2643311584741,460.34725370991,66.6227369740972,308.857570814523,-24.3144547962578,458.887975344542,-5.04540166899569,2050.18631486861,86.1091968118578
747.928096233058,-91.5684880276313,351.715554943609,-31.7525047986765,256.080259944406,7.30290255299533,1269.7774442686,-171.287209751393,293.574492146704,-37.6861331797626,399.078531431326,45.1470146247592,1079.78901118299,-24.4485070381702,868.221249408884,-97.7582166385954,883.391513777592,203.829940581908,1047.70195334975,-228.188369213685,305.449241699475,-73.6074645834313,460.226092088789,70.9292480283736,288.966018861152,-10.301398354782,454.320402325971,-4.20408687522086,2022.01918177767,89.9695661966272
747.048132334836,-92.8005430538493,361.275467096407,-37.2472448657612,257.72604967838,6.52357505421822,1266.72975953678,-171.693917606322,292.558342536253,-40.2462658742197,403.086318289337,44.3507846000308,1084.2588307257,-32.525451498584,871.648924239789,-103.291570969298,876.688309367028,206.150105783372,1041.15366631854,-223.013190469638,296.569500214429,-66.8178450929046,451.991882612673,68.4961503444206,296.482673449464,-15.4125948237139,454.647225013689,-4.65709530765709,2029.69177632898,89.6585055616217
751.254231829871,-90.7074791533323,360.631888604485,-37.3287755575627,260.27020218863,5.69874030325606,1273.17988579493,-171.845251910227,290.102301569446,-36.7816698469355,411.271942127578,45.6524463085675,1089.1859903075,-23.7426628558993,891.648589995369,-110.630654968452,888.656339932923,203.967950313993,1054.81059487417,-229.274185206465,315.008284433392,-78.4045806971506,455.755828416489,68.6880515304105,295.068687771358,-10.8766086171933,457.985638239862,-5.15674763257231,2053.43453149908,83.4295082912371
744.85916088908,-91.5255075903131,362.934932704391,-37.6163766102625,257.958861851797,5.79048887283898,1262.35872802873,-167.878886436083,276.377151402876,-30.0869976242233,398.217585842114,45.8625709213242,1082.8027541482,-31.3400016250158,881.768642852218,-117.439928843169,879.938673059492,205.592913287547,1044.41285668763,-227.365439322133,310.241721093379,-74.1885756595853,458.597766970226,63.600018072378,301.947762919371,-22.7444901551538,453.590190130113,-3.85282346591619,2016.12600761413,90.4539269272378
746.852749072687,-92.3777530799828,353.978263893881,-32.5915395574959,257.353008085837,6.08171987228739,1266.98141544225,-170.835117619324,284.526775998053,-33.858332988295,402.278625023502,45.8420393941134,1077.26407248825,-22.1850618670179,871.60930724517,-106.180949737709,882.609870046458,205.001953635775,1039.63747933369,-225.307481817312,304.539610495415,-72.7567425814907,446.613078674878,71.8621572175475,296.220216485137,-18.0254107568763,455.10460745257,-4.58804424413055,2017.84402898452,92.0891488585093
755.302243192001,-93.1912940263911,357.434454931808,-33.429925380715,258.069726687686,6.40654122926836,1273.68520387961,-171.660517126786,297.593556166791,-45.365306991757,410.033309135193,44.342772880783,1104.44192281018,-34.035682812563,877.320103567279,-102.038392703831,887.250032218674,204.841528536324,1036.1460586947,-224.547434517167,305.937227464701,-72.9575256233902,447.380659526306,70.0319678733034,302.348178317458,-16.5876388745466,454.276091343513,-4.24974134237327,2012.66942837946,88.4652036005848
745.359549507058,-91.6749777914766,361.062559451233,-39.1950030914952,256.368728938087,6.54037689872995,1263.70491944243,-170.961638299704,290.972543667774,-41.7374220619808,398.623366845976,46.3531512483225,1071.26207849638,-16.9426789421837,859.283695207436,-99.6623240063494,878.985659521698,207.085355129699,1041.33448651177,-220.267549994939,306.865443707431,-77.5124688508064,448.770195455858,66.9734743326041,289.215709268285,-12.8202994396587,452.876407744603,-4.01830757340804,2010.35957768183,86.3851070743019
751.597354967293,-93.0260524177038,349.010445680929,-30.5417869633519,256.874733104093,6.92868073190358,1271.38890834616,-170.269315817913,292.626511255633,-43.5468636027261,405.772362391212,45.9679105334206,1080.48112731256,-21.7436903697302,864.332299900209,-94.9667799651495,881.486674742131,205.682918342431,1047.33321105599,-224.439436561823,303.782060905137,-75.3401991187018,449.240003524467,70.2993867471193,287.216443546628,-14.201495421507,456.656466520522,-5.00104393689094,2025.96690693989,84.5079995820906
744.001508482546,-91.0709905563762,357.819420183814,-36.5616629838873,254.226774365729,8.68769720449846,1263.0847651644,-167.47357195152,291.828791488061,-40.0327787667972,399.333161029049,44.0050168681361,1073.33726055902,-22.0757024979409,860.405757583312,-101.502237070984,882.14217486452,202.903939605771,1030.37712453637,-218.282265741228,301.330186859483,-70.3271919993903,441.522473222316,70.8254296686028,289.997491973793,-16.8570178427796,452.77313025374,-4.54771886346684,1998.19011376451,89.9938197263472
747.541292027185,-92.847653398731,355.041050909027,-32.7233240125161,256.214333485158,5.60876690499634,1264.95757226787,-169.900163110764,289.455801201043,-40.5575817502139,400.331758705077,46.5912989187855,1067.38232494126,-23.1745979233974,873.063197023963,-108.492654815898,879.307051264245,204.397395099742,1030.75671716383,-219.428637099347,299.572800880944,-69.1835839804722,442.62064712053,69.160942214643,298.266733795438,-19.2506254147247,453.470741000173,-4.49786439311262,2007.04049287589,89.4219234878412
757.431813189934,-95.3635205293594,357.863212592239,-39.4408653948938,257.108686907227,6.27968397033229,1277.08744674643,-171.75943124255,281.971340091918,-28.9782154623616,406.767702732078,44.5296882663967,1095.7416002741,-33.8966902166494,872.020492361271,-104.550444030335,879.62206954644,206.447021526915,1035.08079043177,-221.684038316332,303.07413603433,-71.2847854712346,443.018228009037,73.0154267844138,286.781357961988,-14.4268865710362,451.654992885014,-3.87576220813103,1996.81853745032,91.0002836248956
740.788907843654,-90.2885012727545,345.491625043451,-28.6445593860684,254.879802978398,5.45171694394333,1267.42578848637,-170.516302421057,285.555306661283,-41.7712314233444,395.841738516253,46.8760756419403,1066.84941653263,-21.7175173709119,863.578581496455,-105.088531214393,871.862282055965,205.712039291318,1030.13929833903,-221.758292919989,305.327587744791,-73.1857414505444,445.133205972287,67.2161893290352,293.204749344161,-15.2613289322484,451.15315483526,-4.48434649789298,1985.60780419244,93.8866947699339
746.768711112008,-91.1194568976424,356.325104408211,-32.1559669131535,255.245392463384,6.9444912550908,1268.37838237102,-167.428443385743,280.90175662907,-28.8885719763482,403.254125040367,45.9414730572137,1066.48362043054,-20.5438379170713,864.878635113859,-98.3463546455509,873.790722861168,205.409564605085,1045.2011021113,-225.374445486318,305.308080401649,-70.3986458554347,441.518028107502,71.0260150710283,297.718628576083,-21.0010711911608,452.834013099531,-4.4000864025543,2005.00885646171,87.3971122778388
739.318928564163,-89.667210107549,345.185735603374,-27.4508955964467,252.679663910123,6.60397831681717,1261.05611583935,-167.275182480585,284.406220019569,-33.5083995564205,390.9890033976,46.2822713081498,1049.77234362132,-17.1929752542824,845.422186872419,-94.3884236229014,868.047404423723,203.964878570547,1019.27426688404,-214.887607071177,299.825081500734,-70.002863306834,437.98385141018,70.4663099269445,295.602392624852,-21.163465285887,447.215689587867,-3.03183590381166,1968.8142756496,96.1338357359203
739.742371121148,-89.8907942954943,340.788947170723,-32.419410749014,251.59284489257,7.61901886308633,1262.36218193666,-167.651518410716,278.343247792159,-30.4357662377863,394.786234025164,47.4215990618383,1041.29025277022,-13.4738497427859,842.516155835259,-92.1240926328312,866.600674524174,203.163805637709,1025.40571619667,-222.415494413408,295.483917704887,-67.8362772795813,429.149424909893,72.0668008090974,288.011033925202,-16.1626732910484,448.251956841303,-3.59292435643275,1981.21402922625,88.8513832596736
753.367676236911,-94.153684647465,356.119812257954,-38.3466885989081,254.056393188828,7.13863546440951,1272.61318991456,-170.119637009902,279.93180848449,-31.8085777316807,401.82394186397,46.7816035489955,1072.76414173516,-25.8240248592732,865.088531452382,-101.574172201706,871.909767403912,204.60977856748,1030.66916023061,-222.691923195023,298.250004279999,-68.494796623635,430.039610637139,72.473952454013,290.74238086416,-16.9663043530977,447.073679980386,-3.24673715628555,1969.07566565283,95.7559485900892
737.236036566237,-90.3952695855417,360.786240465694,-35.9017367165917,251.384704542635,6.03837732092259,1260.36763090522,-166.739652970615,279.744484627835,-35.1985099441839,390.049086189992,46.8686786134706,1054.10468815948,-26.2653228074731,845.999039648565,-100.603396189544,857.809287467154,204.588842520286,1021.88400564905,-219.971887576694,293.102528333947,-71.2584903407293,424.446253139934,74.5106640884885,285.147069310602,-18.7241091136215,443.507074387407,-2.4688796426127,1963.96805681656,92.0260101693144
745.350649482427,-91.0890318021742,345.499745665851,-29.8869506713795,249.939686010407,8.49917659295169,1265.90597056619,-168.773524926596,279.436505254026,-30.8341602673612,396.440993795305,45.9482928108656,1053.48083482842,-14.1302191213192,855.766201528987,-102.615867255144,863.282623717308,202.100850273375,1020.96338373041,-214.79630158067,293.728460722775,-66.8056502563932,437.397274475834,67.0831435504041,285.190690770719,-16.2018006636758,447.333701609403,-3.80946822291152,1980.47815250321,93.4861799307359
754.813661521986,-93.7381825878391,353.847484622886,-30.6165767912883,253.277831750841,7.66891134252982,1268.03192402602,-167.79069723121,300.8630793634,-46.1972895340122,391.517552915258,47.1978755648204,1056.36249966292,-16.0980412169084,850.255123550012,-99.7918478005685,865.19376775688,203.414330507874,1016.99387196384,-217.931975009284,305.970829002362,-81.1571971293467,428.739072778144,71.0663263746701,294.958247691909,-20.0584249363548,445.630558077754,-3.87959766984188,1963.98977236039,92.9346307275726
742.993537518807,-89.7892551517871,344.101513479497,-36.0825865035376,249.535236479537,7.70723292116822,1263.59885070658,-167.134057602539,278.677541700736,-30.5457996239883,390.229092459811,47.1778819722175,1050.53935485977,-17.6503539408487,840.390283750185,-96.5511373950188,856.830105933591,203.258544773708,1027.18813266877,-222.467873192703,300.204319693721,-71.2705243521516,424.389058069769,67.854450699327,283.866294907478,-17.1227272886496,445.615164013142,-3.74756397665286,1956.1581710556,93.9007305089776
751.83790596058,-91.9656246507631,345.084674673539,-29.9378436271012,250.86534771791,7.92882791989235,1268.20078291814,-167.192495773752,285.445407007922,-34.1823695114391,399.930616159965,46.3684184568069,1058.28699837385,-23.7717094004767,849.883804792772,-96.6940198505143,865.575213206288,202.387377635866,1035.92891020889,-223.276250244452,296.165718235037,-69.7167429089438,431.074866701954,66.6750520353863,294.549343808319,-19.2893492418549,448.613864420464,-3.92235011300899,1978.51356739903,91.8774398373714
745.452746519392,-90.6681670042167,328.853114126855,-20.4145240419387,252.075976648901,7.27834407218209,1267.61913780935,-168.170248582075,281.346335558468,-35.0226131437211,391.405080995818,47.1730102003669,1038.24243620166,-13.0782719601482,845.959713111994,-99.9061872049092,854.771741703732,206.491440686083,1010.61114591279,-214.370941069912,290.199265793524,-66.9000840530389,432.184250080091,64.7082165767742,284.186317684572,-15.6584143028009,446.049037525858,-3.13456319829853,1954.81309190137,94.3887787620771
748.540217452996,-92.7875531085299,363.256102049182,-48.7559922100211,249.405145213401,8.32231686977297,1270.94215129389,-169.65958789279,276.783589536105,-34.7161510621677,396.636054383208,44.8696176118295,1048.47284323398,-19.8397462983857,856.343658406,-107.552912341879,856.551393867245,204.657656885638,1029.06377655197,-218.938323002579,298.042948429119,-69.2947100050046,428.210317981465,66.5586843683679,288.890652472968,-13.9949827693057,448.076144334024,-3.74499632306249,1963.29322569266,94.4872987613983
758.062369533941,-93.5638847825325,347.52729210973,-31.0083562522904,252.544986965266,6.55499425348966,1280.35480966854,-171.546276578417,294.713394501395,-42.0262904614694,401.705446795918,48.2692435336918,1068.87638552187,-24.2894562803962,855.781676780963,-98.02095916771,863.271503967546,206.925794445837,1030.66272523658,-221.93853103318,303.948080032337,-69.5485979938887,443.670008523371,59.3596443357065,288.200651194642,-13.377753926774,448.303862548058,-3.96976445708619,1967.12680305327,92.854445136734
744.91817590562,-89.6650691401102,350.514639615871,-34.5228371601307,250.471376888796,7.2172743875215,1271.61740479841,-169.761621216819,286.571715371657,-37.8440915088618,393.487769358642,46.5845108083457,1045.87896517892,-23.4067124305989,840.272611753324,-95.9600409727417,858.023035911889,203.816054984488,1029.75870854663,-222.769935860186,296.716486715772,-68.2372183386024,428.034688650735,69.6543159012871,288.92597172654,-16.9178050271531,447.160422709032,-3.36700443303957,1963.80696497806,91.7066330896978
753.706107757727,-93.2957364555144,353.94384399617,-35.7558460692764,252.931652049928,6.6672112441662,1275.19826339548,-169.7803321903,289.530380450091,-36.483186212842,398.378066052068,48.524572826979,1054.65977632182,-20.2894919152236,861.687965680085,-101.802817339557,861.709941936947,203.868655838266,1030.2068368458,-219.887850199961,284.689415585998,-60.0171476321454,435.394606332098,69.068763912786,290.856883606748,-19.3019588490802,450.337774356746,-3.61905750232702,1980.92899287363,91.0950039235063
747.536800261054,-92.0488928296955,352.1291354958,-30.5227210813377,250.11829832053,7.25301278151094,1272.07318186379,-169.99250228016,284.294089679495,-37.4549658081409,389.973035346986,48.5936210955357,1036.27782230446,-13.0768559264009,838.600826843671,-98.0468949421984,856.58730688625,201.516598554985,1019.43421895907,-217.893299663321,282.763402939022,-62.7403317023759,436.30666722768,66.8909361567347,294.397922566565,-24.2824317276849,446.09434004873,-3.20694614616913,1954.08576250666,97.6991027301316
745.866027657966,-91.1264427708619,342.796502124744,-37.8724888786581,250.68300984769,6.88428624259204,1272.03945734066,-170.76929054425,284.781474785234,-34.8784560068062,393.231229883531,47.3091288229103,1046.56603650385,-12.8787202425806,850.772002128613,-99.5387947742896,853.928111472677,206.695928958564,1029.38446773703,-221.040272278738,294.951502496505,-69.8997392442611,431.671594050094,69.2993245473845,288.808204275954,-11.8294409404044,448.478965717315,-3.62074241807493,1970.34229737438,90.7213762595216
757.11652850559,-92.5174710477737,350.35995483076,-35.3010387380937,252.28820934574,6.77202175847948,1277.86652626131,-170.718642803605,283.053775302661,-32.5697047262246,402.884395875137,47.7607792328411,1057.84815133782,-17.8396380774642,861.181719110495,-97.6358020072094,862.701057058035,204.341801396742,1031.21076607781,-219.24392508743,293.141469602663,-66.6899468848304,438.345887261307,66.6393107251334,291.418439742986,-12.7925001170794,449.153771314169,-3.78816929532159,1969.89618207029,92.6223872854022
744.021984403827,-91.1621936885369,348.865109669626,-37.4277280403463,248.95807937246,7.14968914503205,1264.90257888364,-167.096429333283,287.832768401516,-43.3684257128282,386.939613788802,49.4692815695144,1032.3995240335,-8.17508011039653,839.451185304864,-92.4872438857104,852.621428277135,205.031194529541,1012.82271570866,-215.26912750231,295.96305194962,-67.2671314529862,426.360839423984,70.970053222089,288.747783898804,-15.2057692594791,446.551913212484,-2.79389824186342,1959.03769196899,95.3662094412549
750.10609490103,-92.7719526897844,347.753273029334,-37.5824296198382,250.302336726555,7.53505671735475,1273.21492587178,-170.786906192215,276.453530998493,-34.107888865973,394.450319010328,49.828572712333,1051.72984964488,-17.2655143250422,846.128937489148,-101.564492703917,856.209454737397,206.76110200265,1027.81922643773,-217.479663210403,299.142110506603,-68.6460960243904,434.39923330928,69.6705528238757,294.40257164634,-16.5421512986018,450.016306354292,-4.23818208006199,1982.09026225683,90.4538856456526
757.837924035752,-92.0387737842827,347.411382998622,-36.7326101585858,251.830614797454,7.3846325072344,1270.17913578923,-169.446699202684,279.620079777184,-36.9317180322584,395.096120979921,47.1588325446496,1059.17144549651,-19.510685113521,846.243428720072,-95.8760747734672,857.879665366384,207.031747252073,1021.38854703523,-217.797788251594,299.927525474212,-70.2629490012097,438.471301494681,68.2529168779798,295.232214952053,-22.6389332118681,447.959642322971,-3.61941240150886,1966.34106145364,96.3910391581875
742.026091143827,-88.7843104746366,346.459523249515,-36.9126637305527,249.78399217026,7.40382589621474,1264.01634901661,-167.620248716674,278.750019020327,-32.513560252725,390.974778037602,48.755489382031,1047.44712552911,-21.944197584024,846.248493340085,-101.532431916854,854.220460159952,205.569625166179,1023.20260686848,-217.664964537913,304.263028647263,-70.1015045984943,422.2632822947,75.3605620421738,299.008609005311,-21.4866166349844,447.262475987453,-3.1148126389185,1975.26367769769,89.4488627137488
751.434179574248,-92.679194214165,355.821759277178,-38.1360947218349,251.684525417391,7.14521122225162,1269.32966505504,-169.275417274356,280.42404724229,-33.9462960112868,398.813539528267,49.6474591524428,1056.88440634669,-26.3329836922176,860.312388722041,-103.605744825338,861.193445913207,204.308025688575,1029.43844167214,-217.394378236452,296.676105061921,-69.1251300001634,441.434476338386,70.1771669722442,289.600291825022,-10.4606730722702,451.935233870036,-3.95369757080985,1995.23996858998,95.1058686184953
746.597471599569,-91.6828026675328,352.479950113053,-37.7225516737708,250.386408707107,7.59813133325042,1263.37587419035,-168.834637163048,280.262937800672,-34.28939176342,391.901834284935,48.9858902382459,1056.6329885906,-18.6745361075374,848.091957676775,-100.444703836352,853.258075989438,210.496420286588,1027.55751950465,-219.561067824099,305.165908738477,-74.4027094683237,438.634701203146,66.4668945544853,291.593044993041,-11.5290329261121,449.197989643368,-3.62890478821653,1980.43000148847,91.3084922408041
745.697727940991,-90.3571656005108,362.212783047666,-41.5440208119539,251.253232633982,6.98684394326299,1264.21399644567,-170.002312103563,275.745011277876,-32.2149309682414,393.850920490152,47.5259273739762,1053.35248474276,-22.6981691678469,849.852931881805,-101.521065029473,858.88128261732,206.396109736493,1019.15435244388,-212.170681636364,298.738215634395,-70.5125874612492,439.828571941926,66.9046103085196,293.498739652735,-15.1918635937225,449.897324727041,-3.15500427142424,1979.45633392494,97.7453339178185
754.493314844912,-92.7040335643476,349.367228806327,-38.0765324487237,254.676138689001,6.63793570695613,1269.57645615017,-169.892054751436,287.407530143068,-36.1298004626717,404.95298710139,47.8719831018633,1064.83594383524,-20.524779509673,856.802072879525,-96.9200201927743,867.052207674623,208.329934193818,1054.53179076478,-229.61708784723,302.134599272461,-69.9176168718453,439.580154279484,71.2050319960638,297.76820517591,-16.950725367017,454.192558371591,-3.99927863199652,2014.55866035707,90.3085304911015
747.434144428063,-92.4855154433308,355.460507659181,-38.2877439928521,252.011816845487,6.52783009113668,1260.90874268406,-169.356920140202,277.248739695617,-27.8281857641935,395.491361005477,47.3455503739923,1065.7188227203,-30.8064196692359,844.554879331225,-97.3172384369675,858.629302356093,206.787653437182,1035.27613572065,-218.691526458752,305.262057908315,-74.6639606877055,436.083582055744,75.9423441350393,291.719865720621,-16.1456126744193,451.047529006682,-4.1659490545452,1997.97886144933,91.6781407189241
748.722738174084,-92.8518128391941,361.830606446856,-42.8412666416865,250.884130842759,8.64176959374378,1263.53659902371,-169.289809163172,290.175495446627,-38.4095342220032,397.216873065362,49.0815709736146,1054.81518323115,-19.4569288548852,857.490502581985,-100.731228746076,864.111358013108,207.070345129217,1031.07019986473,-215.783729053194,297.133653623628,-70.5120264009953,440.091531061284,73.0614283432816,295.97053040122,-16.7791222326247,453.482972213229,-4.32377032571335,2014.13710522711,91.1561928056443
758.520635886975,-93.8130751692533,361.447291154399,-42.6986462763262,255.738857266602,6.62478981549458,1262.51573209927,-166.372736455065,287.571300057417,-33.2217459279236,398.767456286777,48.8417190596064,1069.59066606674,-17.9937360311078,873.423945834265,-104.060278710699,868.729805146387,207.328748090201,1036.46890610027,-222.758506627944,302.029516712108,-70.0555058816876,447.511931641739,68.4374315848426,304.492914355615,-18.6276635524447,452.143974153583,-3.96964812729301,2004.08023461037,92.7660633563371
747.740163363083,-93.0991748709332,352.954094850512,-35.3799460442874,251.508148040048,8.11000767100725,1259.49652749852,-167.84956814473,280.130542973669,-30.6650039822447,396.313932482092,47.987960606017,1065.45110886385,-21.6054424583314,857.037781949703,-100.454026615749,863.87595833327,206.315388971122,1024.75674545531,-219.691261263888,304.363481642689,-76.277484082603,438.915678932182,74.6567720201545,294.383462917356,-15.8298187233239,452.506952209454,-4.69965428255854,2005.32399222937,91.8594276047406
749.459511609371,-91.855155999865,360.192983965862,-35.5679717357241,253.908122939345,7.91048128888304,1264.06945077816,-166.710829852772,290.83858405148,-36.4073912505795,406.237580722093,46.903394424369,1092.3169834241,-29.0925309309024,868.712570680821,-102.488444905523,870.720122743639,207.72336289292,1043.42482016281,-221.181796955237,305.907259984665,-75.2575190317961,457.904118171605,66.0230765188371,290.70510324802,-12.8091068866388,454.797023137217,-4.25242314846123,2035.75345366789,87.5002836349262
745.172632911151,-92.1989155981274,347.363121576456,-34.5288484246127,254.332460254891,6.26559175132774,1257.80898111433,-168.196660615429,292.737387493898,-35.5466207259321,395.12446179962,47.2533356393902,1073.53187907415,-22.0728139857976,854.239104046808,-95.1690439115335,864.014786756502,209.05267157531,1026.25461226284,-214.516435572234,296.477228391283,-69.7111866762506,442.772260987063,74.3960697180523,301.423551168945,-20.8541423375184,451.337824394392,-4.03205781717187,2006.84938877437,91.4043914577347
742.898255540796,-90.8308904297899,347.903801078303,-37.8869682542401,252.817848136911,6.6806660512664,1255.1309806828,-166.384916526108,277.833944018957,-31.266216276267,395.499203155593,47.359865292833,1067.40172084062,-22.800188380714,854.554945101487,-89.5159099323942,865.593542494211,208.324801365466,1035.66490792179,-220.704447633704,299.759850209537,-68.3457172487539,439.714227082838,70.3843125096711,296.81046695394,-19.1862051879575,453.654413569431,-4.70571680662033,2012.76076172142,95.4968587788536
753.609458557473,-94.1890549934534,366.13585792703,-36.129627990218,254.973977279391,7.78533358533875,1265.94818342804,-167.494837472971,279.004696019595,-30.801073385806,408.991492847745,48.249220222126,1080.14603941708,-20.5983183348949,882.328524625769,-110.289706260841,876.419104084739,206.972485288315,1052.3333817352,-226.664513028078,306.274099682665,-74.7679532971373,450.058416558798,74.333449830976,307.771172001128,-23.7098027063207,455.021784882433,-4.16915994346263,2036.98379185799,89.5211258298892
740.856058620361,-91.4405822129776,350.470014621259,-40.942266500436,253.015917978674,7.65969949068453,1254.33159890433,-167.139287070971,290.096958797593,-42.4009911938306,393.348066081838,47.852693356927,1073.08092394684,-20.8675892426407,851.688991033269,-94.151304595378,868.594776239103,206.550622686588,1026.24611665771,-219.36460725546,296.778197924988,-66.6040048356426,444.75496378601,71.9057334866105,294.330228749721,-19.1920848073334,452.309304743073,-4.36055293540254,2013.1430373032,88.8671462441826
744.177876154834,-91.7908026364842,343.144233183103,-30.1439361931982,254.63796123211,6.77904078839108,1257.14596341994,-167.839507955101,286.539097149574,-32.6013674278754,400.975389608223,47.1377936570156,1086.24836184374,-26.104278313523,865.314919209287,-104.20359061358,869.780315641581,207.271240614277,1038.26680284927,-222.98184851187,302.760002711227,-74.7324714903091,458.6177128927,59.461785218985,289.774149788574,-10.4818044909229,452.799710168249,-3.86319890150844,2021.08229190681,92.145398010067
752.710881847804,-92.4129111582534,352.550435689822,-34.9398272254043,258.186803577517,6.05160549267897,1268.43020292029,-170.328201697818,291.169397358265,-34.5304951083525,405.270980170519,47.2945515647359,1098.23742918487,-33.656510111217,873.75171320081,-105.792524775061,879.017093593676,206.404887306998,1038.92683733309,-220.627761599826,303.859066922989,-73.7799058585004,445.916627359421,72.9019991277281,293.089621860575,-11.9502057257369,451.396876943298,-3.54981981346377,2017.61074131288,90.7246883588969
743.585894624114,-92.4705491429292,358.372819539432,-40.2690719472176,253.998494932516,7.20624861970788,1254.83407425262,-167.003025626362,286.84451442335,-39.2701479367854,395.639102812737,47.605920986882,1066.07747879668,-19.888522599594,858.975659085772,-102.734518257361,872.554401071901,204.551173414181,1026.33288024328,-214.418901324668,291.68366246856,-65.4546717633768,441.023668307147,71.4520595214673,291.274969167761,-16.1043780737601,450.853386581853,-3.83498612727923,2006.1339416977,92.1177713560195
749.081533173022,-92.7073593715923,352.893361312086,-33.7502521379152,253.252023180301,7.70729416270412,1265.24878383493,-171.216570770005,289.262145716056,-38.254208951806,402.781080534917,47.7997061566318,1080.17299376378,-24.6557097851273,876.312340552468,-106.486563699157,875.065216875063,206.958606105058,1041.90392909042,-227.230162196356,304.324708431623,-76.1315485640791,439.114171490523,74.1313463050346,298.382018836236,-22.7582261097496,454.036993388301,-4.19815094534578,2026.40059137143,88.3379713611766
744.744735564568,-91.3945421001145,352.588251124935,-33.7327739276019,254.162087722629,7.64815171168382,1256.60942960573,-166.034382000857,291.168811566634,-36.1801620192287,396.183008195463,47.7054756638884,1079.88840652787,-33.7896886944944,866.343106549343,-102.050238294212,872.043370391083,209.023491829913,1040.06584124957,-225.014761278614,300.767355921388,-72.4062514848165,445.54100275304,66.7188059882254,297.42471415944,-18.3712406378522,451.060951480367,-3.36807690664093,2010.68831227978,90.0499145206723
743.814120501285,-90.4497059353928,346.824744459147,-24.1764352121002,254.047000103697,6.92578529874326,1257.01327041886,-164.635007763399,280.073934874005,-30.5627539450937,398.952736966943,46.3900970504611,1071.13410062897,-22.0595300370203,853.10040546798,-96.322667537888,871.519169488904,207.236408279388,1029.76351210299,-218.326948850903,301.597108017638,-70.5842980891687,430.272988774001,77.3931375816255,294.221431800589,-18.1236216313429,453.073544610284,-4.2048741230994,2019.65638351003,88.2639965549504
753.608434524306,-93.0202374568432,353.231065717239,-35.8009944494832,254.837617525446,7.63952540391147,1269.07561782926,-168.421314166319,294.366121792376,-39.0900245813426,407.169756075741,47.8891420613059,1098.36850047561,-31.4723998182619,877.308113592531,-107.17046000725,883.830034435263,202.828724545523,1048.72769394386,-229.729731696882,305.339805398362,-75.9755363485692,438.310911595236,77.0099482499185,292.927845360398,-15.5008364703374,454.4983493792,-4.33409723871804,2023.64313755147,86.3004005515755
741.820419736922,-90.1006171589123,355.243445018028,-35.3280846700057,254.029110313715,6.60591596568462,1260.71229018822,-167.724419881778,276.120582260736,-29.4417300314863,394.497478706861,48.6064787161698,1061.46330392039,-18.8931280590368,853.636160544938,-100.060164295075,872.730027386635,206.821181986205,1027.53195645411,-220.400639001317,297.857072872387,-67.3194683687927,442.04929472786,70.6252373368517,286.193677151275,-11.3313065084686,451.628773723503,-3.49439924244335,1999.72133991552,91.6430304313803
747.688044214894,-92.2999637573745,358.970812190608,-38.9057996391567,253.618885810161,7.0971676539399,1264.75170821266,-168.867885199271,285.440562537415,-34.8135234466899,401.259623380893,47.7558456712046,1073.80455509941,-25.3468037405841,863.912476607722,-98.2461271670538,872.559323562689,205.523265508402,1027.84562300067,-218.020246665533,303.805095791264,-71.2147312960435,452.703704249656,66.7726614616167,300.560083604113,-17.6382277719874,454.775484371186,-4.56901996835241,2008.66740237105,92.1360363635756
741.956704689685,-91.4951470980633,355.378567358504,-33.5595788164192,254.126792788183,6.55061944145852,1257.29548455923,-166.995267480423,278.864242262228,-30.9851198739496,389.706600350958,49.2508102043101,1051.29232827985,-17.5608707851617,849.531615807797,-97.6137291427376,866.868013528291,207.262051895818,1022.74094964521,-216.450922063596,297.484764404043,-68.656852116,436.801343592616,71.5023825664031,293.136872710557,-18.7729687075844,449.783736777307,-3.57486555572963,1988.07702385656,94.5945348589401
739.894376413011,-89.5977947044532,357.645677234129,-36.1933025301624,251.302822255282,8.44541985591419,1260.42430128135,-167.007737257902,289.568671468187,-38.5645766572288,391.579851866242,48.7818364185166,1054.30252528959,-16.2052693728806,861.666864147867,-106.139934433927,865.758064521595,204.925895112877,1024.24850157931,-219.780161668863,298.293382580424,-70.9394362085156,446.324112758209,64.6028819682285,281.36818435067,-8.46826970863683,450.811967962409,-3.9996450397408,1995.39225481504,90.8249706032885
750.621911485755,-92.468495263985,352.869645226441,-34.9039051052217,253.569368024765,7.74073474926968,1263.27527005338,-167.243176012831,286.831757165425,-35.8353754142178,392.677438558374,48.2541018290289,1071.0266183438,-31.8186811109389,857.222198805432,-99.8001162019755,865.731654660505,207.092807747596,1022.36471964715,-220.523634635769,295.595783177593,-70.9951675845469,440.038393263703,67.2750218228941,290.277214943774,-13.4052457753276,447.999354452779,-3.07622629535035,1985.12397390627,89.7476531453421
733.244380551451,-88.479478258789,341.39589642471,-26.9610079033758,249.319719074172,8.84452032190317,1257.21524875175,-167.746451895904,277.693363978661,-29.970946394888,386.662152886516,48.5393677391403,1046.50316349796,-21.4562943155413,832.730228581764,-94.7318697440708,857.895794296508,205.854854515552,1006.9465121045,-212.856996024815,290.489204265837,-65.8545466708486,434.941007456577,69.7677848022725,293.442783830159,-21.0175710132331,446.406984492358,-3.46930217820984,1971.25989311768,92.7576517845943
742.144010660097,-89.9403025104832,342.674118217899,-28.1344833155349,250.428191782337,8.02300886163453,1257.43560368344,-165.207738786872,290.806012980103,-41.3166138419207,395.150539535265,46.713410930002,1055.00537634469,-19.3025264422267,857.80382581281,-100.56050282307,860.441076750204,203.872832314669,1013.98118018854,-215.175255669926,293.212154180221,-66.2893414111159,429.023644531289,70.7510245353458,283.798678251433,-11.3688113155116,449.322429887534,-3.73445572404723,1980.62319670571,92.6145108785601
735.198035656722,-89.1629996067969,343.875972861791,-31.7179070599827,249.60874439513,8.05847645971681,1256.70709231797,-166.472755945203,281.388731466328,-35.1808529609587,382.538750980243,49.7808504721808,1058.32810450152,-22.8664349421554,836.296720521423,-97.2132686862274,851.796348148036,205.197758625971,998.623820903763,-207.46883557167,290.373783535231,-69.4895907204468,431.861580896495,62.6813714953254,299.019993955048,-22.4260075623569,443.307048244251,-2.72982229877037,1962.02653326324,91.2371160804659
734.754589939774,-88.5980944662342,346.031129618391,-32.7547035834965,248.510208776076,7.99136511006474,1258.22279739026,-168.742245397502,283.965908027058,-33.9513939673458,385.28807756828,49.0100596658357,1042.07118521754,-19.1428133150508,836.533250940509,-93.6233769589419,846.321561963136,207.756621833223,1007.99695558666,-215.160400956902,289.40475562343,-70.3933959671227,428.10550207623,68.1324260308191,279.247178346647,-10.9622343554698,444.625316521376,-3.21617974574322,1955.51051762158,96.5370793477428
744.230842377067,-90.1289940806555,354.322239368873,-35.065369980361,249.805167635301,7.74393472367319,1265.13867477402,-169.855040531541,284.835848561736,-35.1207541851899,395.054268624055,49.1825160277098,1055.85963788259,-23.2953293925776,844.088263551675,-93.3797404131689,855.859340853063,206.631375522782,1025.59555251238,-220.148067936566,294.451851055,-70.7855026115927,421.284243072748,74.2260100967095,283.183185325227,-13.1487023182283,447.828481874616,-3.16539152662125,1975.25803476223,96.3399711447423
737.102733365791,-89.9269502837388,340.166947323749,-31.302991594694,248.580797840912,8.68967880562468,1254.5487594623,-166.948350217933,282.997106553174,-40.3596222827306,384.07957568302,49.4239687034068,1044.05458120848,-21.9735926315469,830.918461090871,-92.7629608438304,848.58443692788,205.0406676093,998.698205522656,-212.223089277356,294.170091831462,-71.1611749422748,417.506153140435,74.8908967454993,285.379987034557,-17.2942307262318,442.668857144983,-2.16455748215677,1947.85084120313,95.1647834237324
740.187871723844,-90.8746182508351,343.171144796222,-26.1114490133316,249.900086454229,7.3534230706387,1256.85804516295,-164.38581746709,272.7874148808,-28.6410550117271,389.888812926646,48.791167531431,1038.43616986139,-14.3170113549717,837.903066003753,-89.8888915283806,847.86266935953,206.449431114765,1012.02724509124,-217.676062867436,291.215257505163,-66.7876188855065,425.548588346353,63.3675004165895,287.658713772825,-12.5192678671359,445.402455371981,-2.52760410417673,1957.85759422818,94.0811950536466
752.114702198589,-92.920551838203,344.2452107698,-31.7638031662653,252.044816247195,7.35408693722012,1272.29787414341,-170.788331419599,280.036293429713,-32.5027099720775,397.41942022775,50.4943747613876,1055.91223040651,-17.3319646431137,862.622375121778,-102.428326119661,856.989455300661,207.289023671939,1019.16548915946,-217.152767401357,301.539711535392,-73.9142802461905,428.41276130211,65.9233538430088,295.338939408428,-20.4332817701762,446.129550178216,-3.10880112578204,1958.91505443585,92.7149914540469
740.357159571376,-90.6224359799986,349.57391184944,-35.984045043512,250.310713560474,7.03081307469583,1263.22877078062,-168.373041377036,276.120325415797,-31.8207361721729,383.591315419238,51.6115614601512,1030.90764647534,-14.4385007646069,834.102907285602,-94.4125536788807,849.975693248905,206.559570660068,1009.97546264394,-212.360598486279,301.268594190237,-75.5632166860527,425.928140584903,62.6041823718391,282.639056019192,-16.1368130714256,444.606287231597,-2.39388922774656,1951.59500221896,94.2194775957036
