754.775827447524,-86.0052246620573,330.733684252346,-27.5711584989738,250.781452900373,8.21273014057239,1351.61892664716,-173.20670261305,272.757452413682,-33.2422793620502,386.035463635191,47.9719036000598,1038.33668737795,-20.5268936183387,827.187739424162,-99.5277420838528,848.165163369502,212.339851204459,998.366506452575,-212.396438506055,286.934910580263,-65.8730778788019,422.78684340919,61.6286340757451,277.278081817785,-12.3885909530425,454.780216231714,-4.2178240552111,1923.21397690331,93.4060233566641
766.693747604751,-89.2155482002654,338.725243412823,-27.9929471529846,252.012682242549,8.55444124658257,1360.05258547521,-173.78182013338,281.638403044674,-39.0638348325941,391.911456853214,48.2417366024336,1059.96927741182,-29.0309521708759,833.73169320039,-98.9679193208371,855.941058469418,213.07478255435,991.442989477767,-209.051101456762,294.799409136095,-69.2645543870277,433.477192218044,58.2128517903284,283.402515801442,-16.8547415833379,453.534969204657,-4.33093798281044,1920.11072782921,94.3181980201135
759.22217591496,-88.7919898676009,345.952247354224,-35.3394566772837,248.511618018807,8.50534261575598,1353.40071257662,-172.006283575847,274.537535884479,-33.6024033187099,384.510031790108,48.4421505975346,1027.27666391404,-19.6784822261996,824.390353484481,-97.2947951933662,845.394849339708,214.512940252116,994.867331608407,-210.475383443305,290.609328275916,-67.5938670392049,424.355976058645,65.1690851725594,290.922831927308,-18.5942957098537,451.10979314124,-3.85064430406823,1923.48869933899,94.1174124654491
763.381197568084,-88.2583941314963,342.374259945412,-35.780281757433,251.736508691202,7.32966822875581,1362.17254414986,-174.381018138217,279.195204167043,-35.1510783270467,393.930352607085,48.5462751530424,1055.10742680737,-23.2259820101433,838.730906318179,-95.8200632516447,855.317531196008,211.553365792459,1002.28668838623,-210.968249451101,290.669093515261,-66.0966377739389,429.332116160439,66.8705568899858,286.106955668017,-15.229011531502,454.770576342561,-4.30211307747693,1951.1819308018,91.0121879777353
757.407424105726,-86.3083295388647,350.196701866141,-41.083796318644,249.469854607523,8.53820515721215,1359.25800076923,-174.219342276661,276.175696010486,-30.7371417151605,384.746647488659,49.0016853324803,1041.44581143013,-22.0037409158042,828.930354641872,-96.6831618736771,849.704729506275,212.521334434038,996.42049419666,-212.986603169421,285.073668524569,-66.2937019640987,416.949183534943,75.9357681688927,283.681296024791,-16.6021397755763,452.364473438318,-4.26909376770172,1932.65782068502,93.5998777929644
760.697843254456,-87.4727273763315,348.431018959454,-34.0955083090657,250.733815892538,7.73308434828552,1362.81935896309,-172.555794895708,279.426929566292,-36.0390820113615,390.372470432919,47.9010852358677,1037.49747314959,-16.4358340040993,839.729402666513,-95.8244254519682,848.07771596277,212.819992264698,1004.67346354684,-211.124919806809,296.909373734671,-71.267853147938,417.963066378717,74.3571761351364,279.825674955795,-11.0682820789615,454.017156626678,-4.05044041283404,1938.85171676178,97.3848391825527
771.53465979244,-89.667301223257,352.231865712771,-38.6437814676808,254.177414758471,7.94593201429726,1375.14953976859,-177.867780272924,283.791726368647,-37.9009869380716,400.434379442581,46.2622362372822,1053.10426346851,-15.8034084883661,833.477072510294,-88.4512556058352,862.19732184808,209.965461510341,1020.08143842966,-219.171616970353,299.686140055164,-68.4515422133551,425.723078322051,70.8276097839593,290.410255302169,-20.507236637328,457.291630656363,-5.38495433842425,1970.39496100486,89.8760900292762
762.889478896667,-88.7880594749121,340.763760611509,-26.680107835817,250.583887634706,9.02081491485428,1369.36405239777,-175.699005178599,288.811863917784,-39.6266691146406,386.036427838077,48.5196437552578,1032.14998964719,-19.5925582904721,840.478951655648,-101.133128390061,851.866743185914,212.255193852442,1002.06372090564,-211.138579444193,285.08098061543,-65.8458276208856,413.794453361615,77.6431980211884,287.499698602387,-18.5669932852393,454.225757127848,-3.96130908516604,1945.44416570756,92.8187724623742
769.849809708419,-89.9968205941726,343.450684790834,-32.3170148743597,251.452096686812,7.71922876324289,1373.95585555294,-175.394677226396,277.004467721638,-30.4946272738461,393.19288093584,48.0203934019141,1046.3585578794,-18.2678889733674,835.917977496255,-97.3537218394433,851.56148191289,214.121532745523,1016.62160552593,-215.867236012334,298.400157587257,-72.1556583542555,432.163124745622,69.7562270246537,286.37694048017,-15.34390236205,457.286234278999,-4.58491484827677,1964.35437424247,89.355504707457
780.436390509133,-91.5141875962398,347.004318616344,-29.6136268816377,256.046747326129,6.92333542900232,1388.12941185793,-179.645505771043,278.128647438592,-30.5212685965254,398.802153590673,46.597857402131,1064.99567736801,-24.5130574806749,844.336076049981,-96.7656348197446,864.740912236592,210.620738984247,1010.38730353346,-212.279516413138,302.347693680528,-76.7521479107145,433.886893485581,68.5664216740038,293.280834491966,-18.4676338582036,455.914325562849,-4.26726110689562,1961.89702081452,90.6396826942471
768.931880787528,-89.294253042769,349.472655237425,-36.2745035427396,252.150929502292,7.39048961440004,1376.33299845454,-174.584975745477,278.176328258352,-32.1849104410684,392.535646714108,47.3063057352463,1035.93544512565,-14.0992656455938,847.22242445524,-103.545671446996,851.426835952615,213.695044034452,1013.24413260068,-216.715231952636,299.803790479426,-70.0132721624558,423.867111677944,75.6297846250355,283.340768681801,-16.8127887124787,456.192996170312,-4.51923765979503,1963.45243618572,90.9730335905297
775.33597071684,-89.5432316651738,353.648600657302,-35.8284461927291,253.21787427913,7.73688903078003,1387.52522759268,-178.085255945971,286.61338615222,-33.6712813304772,399.356502854079,46.2628423758408,1053.81256621292,-16.0687242083885,850.547285653175,-100.682419510982,859.085975437512,212.846019448173,1029.88681648042,-217.352445210275,294.631518530281,-64.1046059070517,432.226158450505,76.7899553214416,291.616382502707,-14.4991998395762,459.935233654569,-5.35365042653526,1988.51313366501,89.3186949946462
777.100317215692,-89.284487385351,350.009578829623,-35.240356008787,254.215541951475,7.30957850532307,1381.95029292024,-176.9643250855,275.151929427213,-30.9336760407156,389.226834326925,48.3583764759893,1050.82442582632,-15.1998127184453,857.239293909087,-108.993787205861,857.057691707019,213.950627542465,1033.18246869791,-222.748744494338,298.797171407257,-68.5124693362976,441.810693237908,67.7523860555115,287.113809179077,-15.8901767582468,457.362667724514,-4.44415797580953,1977.22465525199,90.1047271927142
776.52015174115,-91.1021232668369,354.991354682092,-39.175209649351,252.799253123563,7.87813638421843,1381.80195313324,-178.616271380672,287.323452891625,-36.2794826941741,394.79048447399,48.5861823749958,1051.04425565173,-19.5914753656752,834.779512431367,-87.6468994985412,855.080731261267,214.479535496471,1025.87967046637,-218.393260279104,302.09972980716,-67.0098188491731,441.143535198876,68.2006072326088,296.946599177786,-21.5733524066079,460.136985789709,-5.16581606872348,1987.30524782923,90.7830377858984
785.09163390285,-91.5726850554216,350.35145229707,-34.5279389178041,255.148532171117,7.91021799193952,1392.60761276392,-181.175009084103,293.010514283981,-43.9622456242363,402.803266531755,47.335152157887,1062.54771584993,-13.7096421319925,866.363479841154,-103.418617744861,868.705892238345,211.260009055069,1044.65146500005,-225.814574125007,299.916641860186,-69.5201022553111,446.469434910977,68.6672925244781,298.255798355959,-17.9297566524216,463.813754054538,-6.04679403425903,2022.03873423822,86.4670561067785
779.118535559226,-90.0723543415548,368.087030582711,-45.4136679804528,255.996553746633,7.09917987583406,1385.43408405237,-178.173196922673,280.141025572701,-30.3501788361509,394.652407748093,47.6702685279786,1054.69306640503,-23.6733017899136,842.421763299947,-97.4755053832738,863.33549428671,211.781484488894,1029.8865563392,-215.201037723696,309.509476174934,-75.1935382881641,440.332899135537,72.6372282212743,299.058031242754,-16.9390776074255,460.276063202109,-5.19417098925076,1998.64087486232,90.443002264197
779.530580846621,-90.56510775517,344.944389520157,-31.2477715708301,253.77229284553,8.19620388297225,1386.83556342294,-179.137405580939,282.265968327477,-35.5498267661575,398.323954795076,48.2599297390218,1070.44388172379,-30.7552277936237,851.138086607185,-99.9749770953043,862.63480094804,214.459141446189,1032.87797464048,-215.193034979039,298.965816058863,-66.129871684636,445.224860492368,69.678329665718,296.641993805433,-18.5401442545272,462.750432684055,-5.48896779252299,2020.04800667863,85.4244821883782
792.125404505553,-92.8962335087819,355.371291104642,-35.4350203748584,257.165469617717,8.21421618518866,1397.32430991174,-179.159206471332,294.486618298555,-37.7175698058409,409.038487965365,46.8372502757563,1079.58524587239,-22.6966883510368,870.303871824686,-104.786491555848,875.400037039031,212.056777869627,1043.82735592022,-222.24504393951,311.568812528327,-76.52845962964,459.495288675245,64.1181947893699,301.978224368832,-22.9857281126491,462.941593669597,-5.76071450046278,2017.48261679893,86.8030271871678
782.131482686722,-91.1494561152708,351.95507787126,-36.6165426790949,256.822247728843,6.6520954166329,1383.96207039668,-176.083276713223,278.829552306687,-34.9247530131765,396.625071276534,49.2324774527382,1071.00088176474,-28.1847908676928,859.971308398041,-101.547140489804,870.896282746803,208.769596102423,1035.16376338239,-222.823665266247,306.9324059152,-71.0584513433114,454.363622106006,67.1689652307991,306.618362151618,-19.1501278579683,461.854300094213,-5.13263221760973,2021.19355893578,86.8178625325728
784.749698014849,-89.7876944387103,357.729675712007,-36.0603405198647,257.512596462727,6.72130439304216,1393.65698848649,-180.963227906425,285.285176898306,-36.660118728034,403.668147471817,48.0125478095305,1071.54063610109,-21.74478548144,868.125468327026,-103.241876479984,870.23365524315,212.853000197358,1044.32643302574,-221.460382980946,299.261076850174,-68.1610619478163,448.562749618269,70.9564696827806,304.838424286869,-20.0100923759835,464.873653083377,-5.81065357430299,2034.42047540873,89.0306658946035
791.838820775916,-92.5330761649351,352.888841643301,-31.9701345515391,260.269751725888,5.6163800194671,1386.41942424019,-178.475752854991,293.087025411328,-40.045257368781,397.494557869031,48.7586250533186,1080.80267880629,-28.0201046248651,859.413424924755,-101.113458468419,874.85752396192,210.094433256836,1031.4480169709,-220.606638864409,306.922843369627,-75.5615197986074,445.557667429009,75.329539454754,297.494493298208,-16.1197590257226,462.224981166843,-5.90605395807203,2017.21460844817,92.0347881899137
784.194522864016,-91.9056419887598,347.295259883779,-28.7418177028311,255.961114961236,7.66973560361009,1379.27740304708,-176.562237353363,287.191508576478,-38.3747514850469,396.674494027188,47.7864709555057,1067.67284537353,-26.0956412132227,856.022197385803,-95.8454214270959,872.540987249118,209.527420888752,1038.87290004562,-223.5759657176,300.376668777636,-69.6316042998671,453.071195709273,69.4653518093663,299.289941743431,-13.9123026186005,461.533875383379,-4.8345103729225,2035.35530908571,81.6729804212007
787.89688356583,-90.5585251067139,356.095004079857,-32.5744166303605,259.860534203994,6.15718381754112,1388.42326751043,-176.442367092689,283.340089671571,-36.7812846526409,407.337769054992,46.6476210570831,1082.5734992723,-25.0316831011502,862.693279755788,-99.4706488625677,879.75941462568,211.734515913087,1037.84374382398,-218.182643215601,311.042541921176,-74.3717348759942,463.823617818247,68.2628700856969,295.444354483153,-12.4618148613093,464.893723263529,-5.3908252604737,2055.48830941724,80.9515628785772
781.079777887966,-89.6704305360373,363.043308606704,-39.6867995253123,258.495831433958,6.62003984697982,1376.45757090938,-174.625731989023,281.658867686409,-33.5124467901803,396.791467176462,47.2798321259119,1071.6509567097,-25.4799000087485,843.314243407585,-87.5479249597276,875.217318625215,210.527240989106,1030.72774088531,-218.556934294891,299.805003520936,-70.0224638645627,454.927421446738,69.4151912419748,300.3578099062,-18.5925827373892,461.38432083702,-5.1640947610349,2027.97602192189,86.3962498118048
779.847829012387,-90.5237994505053,355.011500978438,-36.577161532769,256.841517348954,7.65524510631759,1377.61303100553,-175.703720872443,285.336450564937,-33.7590621461778,397.732426737138,48.4681993753643,1069.59622732708,-23.0527437615995,862.949739188743,-97.5057029228099,872.479643251794,213.525120198584,1037.64959411749,-226.273883207546,304.067526027598,-70.8797739840363,456.037634943478,69.789011868515,306.18137218117,-23.643120041715,462.009253226336,-5.2932031020715,2038.10175858114,86.6514091973098
787.950457494597,-90.9145546180612,354.756535839666,-31.5152830365428,258.106708730626,7.95092590743295,1388.27631134854,-178.389918076152,287.514160716715,-34.8344588143237,411.41550293431,47.400191145932,1088.1773577222,-25.0847171248473,863.19529281689,-96.4888688709682,886.189262309897,211.294412282344,1060.28904719165,-229.528545864266,304.38643373131,-70.8943005558942,461.803681002851,68.1604032058071,301.622399352437,-14.8188742624212,464.83692904916,-5.27644165850051,2058.62498404149,81.8922197419751
779.2810615775,-90.4301920718157,362.783317375606,-39.5791190399715,258.642124515035,7.17648460834235,1374.74316452658,-174.629267690379,284.262761342654,-34.2608594869307,400.286615181469,46.2305491949275,1084.98593834268,-31.7089099524919,852.861806232291,-99.1778115380495,876.396472979084,211.388450777759,1027.7328379267,-212.041471004498,300.621219408054,-68.0952353707758,448.32225396094,71.9500921475405,291.158094402413,-13.2869314922708,461.921574210818,-5.64867988939389,2034.72689445595,84.5835206529186
783.362875206097,-91.6672301036815,355.016793682692,-32.7019641975349,259.947516165695,6.58237546917744,1378.81352926194,-175.469015470337,289.678906790862,-37.1501614858494,404.257217852774,47.0019508435518,1078.80724730675,-23.5470962588231,862.791978112986,-100.002160999358,873.911848724504,212.954786362243,1038.30181997171,-220.682828544209,300.709872520491,-67.3887823830626,450.458989992044,74.9665267094745,297.849611849411,-20.1087892723993,462.618207419957,-5.32572692157784,2035.84287425452,89.2135235746594
792.77326801486,-93.4550411123286,374.887397102146,-44.5928718467073,261.130831967421,5.74888170662953,1390.90495515518,-179.09520272946,285.785212989134,-33.3983315373648,413.714782059197,47.254080323905,1099.55155383767,-31.7554449307692,872.087263675791,-99.3007420065505,888.617119317362,210.106533792237,1047.0990376186,-225.605710577433,320.490552087299,-75.5055101768964,459.721238501263,68.5158926158742,299.436234205144,-19.5259191228008,461.908508465243,-4.3516807668971,2051.55236247766,81.0430778714793
778.203410659647,-89.2154314110705,357.65036405821,-37.8758608966761,258.813769438109,6.3801994532547,1374.34436735925,-173.764743275245,290.654026717201,-36.3123438849664,401.760452696318,47.0082529741172,1077.74451725491,-25.6790023071804,863.47911880372,-107.223213347161,875.214507767225,214.951966944617,1033.73507476836,-218.341006175631,304.173908694316,-70.3783343777101,459.003283661939,66.6898941507489,299.266434314147,-22.4472681336953,460.061902255021,-4.86863730407084,2036.39565463609,84.5267548832591
786.612320506896,-92.1448113255992,350.405467489515,-35.9205979935615,259.334909670519,6.69052989633409,1384.31129513241,-177.416955579788,290.581467321595,-32.9449624703155,405.587327865305,48.2374188006027,1077.24879573121,-22.3378889608406,870.589048850682,-101.57754775051,878.578026389311,214.698542016812,1047.69582053099,-221.502203748543,307.30229170892,-73.0832239087263,458.145669624681,62.9919135758215,297.21367751977,-9.72550290338496,462.767388827618,-5.0446763185205,2048.87722756121,82.738192802077
793.261779795938,-92.3318289173117,356.482939793788,-35.4328166221877,262.790848747598,6.09654199041376,1389.87824266041,-176.968788702674,282.143941156913,-34.1628219592134,412.085737111266,46.0048845578835,1093.16289220162,-29.2688501165288,887.054095431904,-111.519619522052,889.930895984618,208.95807697182,1047.30839163716,-227.700405499464,303.414991007953,-70.0294659239443,463.654897778429,63.254021516986,292.068986828946,-13.2337484555043,460.973855423019,-4.97730488302397,2036.42813355162,86.7567095474654
781.826585669652,-91.7261663613468,350.927853347244,-31.152889210319,259.615150605552,6.06117646155798,1378.15767101108,-174.674674844707,289.999068482592,-39.6455955843572,400.611172468206,47.861102540577,1072.1390379456,-23.1445794190712,870.977306198015,-107.700388460604,876.717895967164,212.917771714737,1032.9241395869,-221.563605164343,306.261654973309,-74.1388590048178,446.450612133275,74.4837509331109,287.797709098726,-11.5547710171425,459.074468108796,-4.16699882206399,2029.85864572279,86.9865914404468
785.871184622664,-91.1888258199811,368.989072819182,-39.2759412670276,260.243986807648,6.4705150958801,1387.89553505044,-175.69574635535,285.311009536156,-35.6100890859574,410.179535510534,46.559374124728,1080.91554249435,-22.3392977252013,868.58266324309,-101.320026508894,882.027377254504,212.157896319973,1046.2033257613,-223.475050456402,295.064290922467,-67.1203180213698,450.643231057559,71.8465681220904,287.039108452899,-10.2420293575322,461.863990005177,-4.97157206372367,2044.41976173172,88.6143339262088
791.40690065572,-91.959169195137,369.510016163765,-40.6641280345172,262.025702842974,5.90733168252212,1383.95399860665,-174.136654286995,276.513851790094,-28.8783470111141,402.310264955955,47.7925340515355,1079.81615064676,-24.1528839626072,869.465801600224,-100.716240224226,883.423149711883,212.136088373999,1042.07858586812,-227.899013579765,302.823909201184,-72.0345227954872,450.320134591351,71.126690740145,301.73698089629,-22.3412713915269,459.581324358332,-4.37119182376177,2032.85929751709,89.3558265841663
780.9361547412,-89.3995925337252,360.499883434322,-35.7609813613314,257.156306488304,7.04566414715384,1378.85347166772,-172.46120969966,280.807964558174,-33.430552212769,405.873976938708,44.5471050752577,1078.51016985356,-25.0457865663633,865.878947543621,-104.371754475034,878.02564396535,210.826757890217,1035.53642604107,-219.690787898487,310.200904695503,-75.8965556956013,454.701729330936,69.5573336800384,306.921823367125,-27.7679552438631,459.818853621836,-4.88701616722633,2034.4714435686,84.3634595892812
787.258650201558,-91.3399035505799,348.206931431819,-21.6578556494361,260.465780133128,5.45460737779463,1390.36453993752,-176.999230969478,284.353281709433,-38.8901329854345,413.439073835952,44.9042023599637,1078.66554534631,-16.3851343087207,884.286852096357,-109.67808621708,886.716755923495,207.939572837477,1043.48870566801,-221.159535021769,303.620479910749,-68.1409252303092,447.698259110563,74.7492431982003,288.087737700777,-10.0251534485041,462.831387570031,-5.01167411606784,2048.70417568161,81.5657042386414
785.145599864082,-90.8017258521835,362.050755370438,-40.5117135904824,259.487489828502,7.1067400809507,1387.98734331943,-176.637952718453,279.217822595163,-35.6140370388701,403.808681220449,46.0367417894069,1078.69968274494,-25.7353344943359,881.804627903323,-109.353731264087,880.947115674336,209.838855307766,1033.44371009517,-219.918144410987,311.928774591652,-76.8776280313346,453.948305222928,63.915911496607,284.416131914803,-11.0902695306791,459.267004137378,-4.59371298873197,2026.83568953575,86.1896749634976
781.67354802507,-90.3345843425628,356.255479201319,-34.2763209362913,258.198569817991,6.68201753114728,1383.70122949297,-173.62204607164,287.043951451509,-35.559648643456,403.855160656337,45.6921457115866,1072.78631160678,-26.7965787733487,875.395044046501,-110.889903619847,875.426936159772,209.673434856892,1025.52451133657,-216.871202076576,310.458174703512,-74.3710947738641,451.278625111638,69.1812075388063,301.68316123648,-19.9487326147027,460.220215259068,-5.29652005638864,2024.02053364985,90.2528030430579
791.019510339245,-92.3798475666643,363.165422638816,-35.127431244651,261.148814040482,5.50435508558006,1391.28512461343,-173.580339676505,279.768201306073,-31.515289410446,413.144575809143,44.1811457668782,1082.7838344407,-28.5746936112615,871.367539719066,-105.166716228368,884.414984566385,209.388354957555,1037.27683103353,-218.352975054499,305.714011908873,-72.9443717759075,449.064121032894,67.6573606471484,294.18906258016,-13.9371543143556,462.253590812293,-4.80045218210646,2044.12331709331,85.1116934104815
782.242092122297,-89.5061203882994,367.275862541515,-41.212538661454,259.343690215308,6.02198437823056,1385.49345308136,-174.704069464619,279.131494154357,-34.8282497208764,402.982401869196,45.4411972927493,1074.46847881166,-24.0552165466436,870.345370295257,-110.572400392141,878.737358468071,209.822788894367,1037.81509034341,-224.186672190818,306.177258572018,-74.4952515141704,454.600566312508,70.243337618576,300.917745688311,-25.8673096520786,458.588994108842,-4.60614939012558,2024.33099999156,87.2952242396026
784.318989877879,-90.7214386503299,372.890208155677,-45.2036181307457,258.395648192617,6.16135719907834,1389.7395382016,-175.541184016186,286.81610925713,-34.8975943141444,405.290734497676,45.0535352306953,1083.44087366755,-35.3172465914186,855.287487243022,-94.5516359483058,876.30869939925,210.914256503364,1033.53628000658,-217.64030255293,301.715688910986,-69.0218176991339,451.642756314837,63.0436326778105,287.851181809106,-12.3148440896899,459.25237939839,-4.43955268458488,2028.98008739024,83.423361522996
794.69221608643,-92.6878592676618,363.075522349958,-35.4251646654285,260.211235559143,6.31942347800106,1397.48698869208,-177.320960336547,293.347676277702,-41.6420100893806,415.773144672686,43.8129425699016,1088.32039121191,-25.8612229518876,884.347113808158,-108.419210462376,889.162618872291,206.152419586363,1045.57844476473,-224.629777443771,311.670908877461,-72.6452234035801,452.416823115687,72.9328438230674,291.146969742921,-17.0685248519998,463.062286072647,-5.55397126353934,2042.20973554946,84.7384235202373
785.453141491927,-90.2155929330491,358.663571491689,-40.2429518361375,257.974166444908,7.03659331748475,1388.06104383291,-175.484496911921,277.021081759563,-32.6164646584056,401.344537132727,45.8575328088041,1073.87189825637,-28.9776239508273,856.572138599114,-99.6823689248346,878.480564987764,209.247222168707,1021.18516654571,-215.004910574784,288.278112641094,-68.7904107275636,446.116367370354,75.2886488561756,292.698474477349,-18.7812902190568,459.034224158988,-4.77983785845986,2021.52771741953,84.185558391753
788.986120404739,-91.314627918922,363.650324698339,-35.1904815466139,257.536257155122,6.93257081926108,1391.469792557,-175.41849579918,288.127345087996,-38.8011434831411,406.542369985293,45.9935659091523,1069.65364351662,-19.7812439855266,869.994796082476,-108.657149518912,881.047926993099,207.805034665101,1028.25479773047,-215.441936916584,314.367264156593,-77.9635160628574,445.993912061365,71.5249715277536,301.190714090646,-21.4856581861054,459.673570562403,-4.22911146661528,2026.15919389644,85.1328974874345
800.043349602622,-93.4273061955559,368.92491551103,-41.9135440930185,259.018533092232,6.62885321223261,1401.98357581384,-177.105664838062,293.761053718857,-38.738238484202,416.29653284034,45.0179188710813,1090.55737931372,-29.55189266337,875.175531707603,-104.078185050471,890.52740853266,204.996832566726,1035.05479729496,-221.805898276544,305.539660662253,-73.2201488818131,446.159468925859,67.6434277811199,291.883100785131,-17.6957217894563,458.813371349877,-4.43740462695977,2028.6747402164,85.2316747488098
787.650447457621,-91.2047985881855,349.71197723975,-36.1062162336179,255.626304688973,7.12831064138614,1389.82871094165,-174.825988623285,280.091020114994,-33.6042942725198,401.842489357497,45.867035821331,1074.9048122734,-27.6500368302274,873.295424260957,-109.335262910062,875.789702886119,208.471019090237,1034.7058674189,-224.22212341668,302.336487370047,-72.9212755569392,436.858447916989,70.9698286697906,297.810887192985,-18.6989093853656,456.876641270018,-4.161149050886,2008.85249452162,88.4679652788213
792.491920716712,-92.5383482909603,354.782185476967,-39.5050404581417,258.099640382531,6.45402945766605,1396.47106904702,-175.923137257904,287.137883342931,-34.9586068200356,408.160860096047,45.0313490628125,1078.48069652757,-26.2705512068775,869.211005148395,-105.922906117217,878.10670427094,206.717646464817,1030.7407419793,-220.458590269652,292.160728680835,-65.8412420498449,447.444217946169,66.4284036242527,281.524417386457,-11.2157998235345,459.7212777714,-5.17075137575172,2030.90340087641,80.1824139515215
803.352461831878,-94.2932903566765,370.302348831036,-39.4842919658734,260.334642669918,5.8269740386183,1403.85628560588,-178.397442532692,287.157881853392,-39.8235203308067,411.245934716834,44.789474762693,1071.86871173245,-14.9857840174769,883.982416298413,-109.450716530267,883.161421990038,208.865283038151,1020.01295254103,-214.254423711963,303.314360428732,-72.0870401826294,449.628966037439,64.0292410418526,302.606603597165,-24.7642800059392,457.864940462003,-4.68600232813874,2018.91566945867,82.3905148025173
789.477890345941,-90.5711673692578,342.081454764542,-27.9990748814674,256.663328130356,6.68071541944326,1392.71027675,-175.862471447312,286.700622928118,-32.8394719524902,402.495956882425,45.4670981171813,1082.01068528285,-38.8101917670342,855.557317143208,-98.7958211672067,871.787028224229,211.503963468781,1019.69711819908,-215.803392762678,296.528888822852,-67.2866842657666,440.270383684027,71.0555589044909,286.313335311079,-18.6266359955497,457.047439938326,-4.86698069316569,2005.12218057004,87.6094937700201
795.520817328406,-92.3518278923288,360.330771016273,-35.1056561018222,257.49076406348,6.8141707248077,1401.13268006179,-178.501281016457,269.986162002147,-30.0655897105417,408.990126767512,45.9747352045988,1067.60293289892,-20.5779178704482,866.473960195117,-107.047736951061,878.822150996469,207.495777427372,1023.16569903302,-220.305773286173,297.819580592034,-68.3301848347552,445.584592216112,66.8343598093908,288.417754743209,-19.3834845560412,459.712431319866,-4.94248308353871,2021.13049267483,82.2875543404862
799.71052170792,-93.8749132021297,352.587398187003,-33.8442388132209,261.055516185023,5.4994328492075,1394.67096725235,-174.827150014696,282.53278812858,-35.0820904521714,403.433308723505,44.7131776328699,1082.5405162266,-35.9586559999538,861.893298362822,-99.8023581020359,878.012918378157,208.663672587539,1020.44243069313,-216.226221834077,305.842341553093,-74.5273354341029,438.861784130893,71.3620852899895,297.105615372382,-20.5867482421412,457.178548056937,-4.45201552456786,2006.30734445881,84.501129787821
791.520697097265,-91.2950408942977,350.911754242905,-30.8507716223171,256.652431486363,6.47722645998031,1392.35805692864,-175.789884270317,273.607629975937,-33.098423530962,403.799642221421,44.5720786252882,1066.35128497637,-27.7934825668459,854.188773709845,-102.662334539712,873.510696810436,207.740731167935,1021.43816453202,-217.214142136867,301.051205295403,-69.6972949522939,440.810046589782,69.2076059736558,295.668327672142,-19.3567773666998,458.551678366554,-5.61630848057912,2005.86581850635,80.2607918277175
801.133175958484,-93.070192524743,365.728186839814,-40.7547959389647,258.602184260111,4.81579170911141,1402.07138145167,-176.895829717936,286.593939016029,-34.9020088485578,412.039113720143,44.3000581789662,1069.4030785622,-21.7943039014972,858.930492180202,-102.620432250066,878.538507994019,207.758999136444,1028.77332223041,-218.647667417663,300.368617992469,-67.0360504720439,447.103105657398,67.4494850022952,296.115881385171,-20.6419447013046,460.072988478091,-5.26817757755043,2019.99397473111,83.6306686707315
794.153962068979,-92.5090259808207,336.742440013644,-24.3523642817163,256.457636075379,6.4823461690605,1390.53207799919,-173.560821159696,288.729193741463,-43.8951313867441,402.376262835958,45.1777241484226,1060.87070256318,-19.3893776523559,847.933637811468,-99.3230707693299,873.229336318406,208.69975632595,1028.86597953571,-225.667252777909,299.324044121611,-73.9813726354731,433.48634138272,68.5746711588563,284.763813519013,-13.8727155077283,457.493806350147,-5.2995844444168,2000.4350083661,80.7131216377431
794.57309510803,-92.446138187595,356.392485439908,-33.9290162222769,257.064834834616,5.63130483173367,1396.90248750544,-174.834473494078,288.966642689247,-40.8582060794732,406.310129905852,42.9669243025901,1058.73240604838,-15.7151119531376,855.81360903781,-95.8018053884084,869.974908281965,207.811942506614,1024.47264544927,-218.942173018796,294.837008173238,-63.6299370531561,447.475819316097,62.9861516638324,288.821550212097,-16.104617572688,457.726222010996,-4.96420036292508,2004.25656495383,86.384026573675
804.394930323598,-94.7422432916009,357.727107594686,-34.7288338813397,258.154375796807,6.13579073257712,1408.96092990399,-179.191670910441,286.314855682964,-40.7811212358165,412.220778231119,44.3281111694408,1087.52948536717,-28.2350212600253,869.898381846635,-107.046776658991,881.678847493517,207.028644720636,1024.43782380442,-221.157678811893,296.702690842655,-69.6305870354899,449.815884749549,60.5274664746194,287.83159208833,-16.0768132652682,457.267192404452,-5.02878859256735,1998.11287351906,84.8701967340422
791.730770839311,-92.96518527891,355.793187136649,-33.3519762968165,253.634147421712,7.49500496117461,1395.70463974863,-177.309001126573,273.423481163103,-31.0134747532662,400.474646935334,44.9749822391679,1061.98605582429,-29.2609470104689,838.904450578159,-97.5951547736997,867.74106285571,209.334884129246,1026.3559645237,-223.427494768814,298.231530219779,-69.4048253900569,441.202605155749,68.5743182909589,289.074479922668,-14.3739262660068,455.233132209958,-4.02347554002275,1986.20142724046,84.1680056411162
794.516391957095,-92.5624570374728,354.51852167369,-42.8415383154941,253.374978282714,7.7658566938742,1399.84129899345,-176.657480642703,281.368250624114,-35.82033994561,406.833107502828,44.586157075259,1075.49207701142,-35.5638774222305,849.822320891414,-98.6700790882026,872.289248630854,206.086479835797,1019.47312174192,-213.553085635317,305.777263708219,-73.112487678482,440.113724881413,65.6399434293569,287.735727120591,-15.0103567141646,458.189033474233,-5.19309322793144,2000.59330136696,85.185476167593
797.941929203648,-92.8772930197435,352.903212245132,-35.6504905588639,253.836130697607,7.24181245448949,1396.08278993806,-175.64986070434,284.032912020481,-35.8544894785585,400.159957237965,44.7658699953971,1063.69746113919,-25.4996532839829,844.745385073614,-93.9423009032667,865.350677552019,209.777179693853,1012.56802897408,-214.644825827126,295.754982169656,-70.8200857168579,439.246414655082,67.9060941867666,299.682075372819,-23.9105512968124,455.10946646094,-4.98027378108821,1979.29549533401,87.3549338649296
789.820486260693,-92.8615447686982,355.628438969121,-40.3066302280042,253.733475889523,5.9705358638441,1393.25226053024,-175.755208441045,279.229158678545,-32.0543070638387,396.019995523645,46.2901408467481,1054.98264192395,-25.3544936825723,841.210185175566,-102.438239581617,861.764571762046,209.087842791897,1008.74615765759,-215.418861989367,296.779306699755,-68.7549318905169,426.490206019442,68.3474652689374,291.710634475756,-24.3913989816271,456.14625413779,-5.54465554881715,1973.42547334937,82.0604197669288
794.149210735507,-91.9484368386506,350.867568145373,-31.3627636842738,254.261941846956,6.88890456263503,1395.06243007898,-175.102057048912,281.414699734129,-31.5498160566898,404.803565043837,45.8071114881709,1062.48490241025,-21.4489905062646,861.118663166188,-107.61309192764,870.537012197729,208.007028896564,1023.2775280062,-220.086436633988,300.866622900316,-71.3089352772921,435.953430256307,65.5306791555904,286.337630277188,-12.732467003124,458.228949828147,-5.58570845725159,1994.44153036611,81.969196437402
788.813826399975,-90.5821922021331,340.763522821022,-29.4280634748269,252.899837142847,6.63935405259561,1395.05026865178,-174.807311644877,281.268413292409,-33.9790586908508,400.110119563553,44.6876749142567,1042.64926545762,-16.4526498057336,835.878727444417,-99.074641806229,865.05458010622,207.200297815291,1001.79312873116,-212.563418025218,289.518930654069,-65.0128957521982,422.775538354976,66.2848263844906,280.979128706217,-15.5580062465898,454.821623012891,-5.14704746965654,1967.63559374751,85.3600754365707
789.209273798288,-90.0348040983962,359.152289328795,-38.9442502063938,251.763233718414,7.40117313784806,1393.68162856837,-174.862688121501,271.890251949576,-30.7874490135801,398.434446088892,45.135175145859,1045.16805690249,-19.64226101086,842.167469567078,-101.518897012833,866.403774790014,205.125184918722,1005.13747146141,-212.476960460902,295.421155101651,-71.4781495421225,419.366069617808,74.0725915087705,285.124195504394,-14.541866675546,457.17928650229,-5.64303633921286,1972.29903427482,83.4219947435481
798.449008993421,-92.8153470911023,347.099993303658,-30.2640783266348,253.261284450316,7.46905375618079,1405.44513825217,-178.502873867343,284.211677237023,-34.6161717857884,406.508505697512,44.6837945584542,1052.85769583433,-22.0069236242993,845.852768518415,-97.8429462998885,869.113890593267,208.010240254995,1017.93399787603,-220.394618652562,294.644223917917,-66.3464292919467,434.326282404203,65.4931553833552,288.137847964033,-18.4807915713008,458.353146893278,-5.99411654464541,1976.7353663975,81.9144612431183
788.519674159989,-91.9866893271835,349.244306532175,-32.4612938321062,250.668875651154,7.67844648302726,1390.51633477417,-173.455680172898,280.30064001023,-38.5189771180503,393.628226594842,47.0280410996462,1042.93694540701,-23.5437673073743,831.430011501138,-98.8371506679334,857.99109556562,208.833623149093,999.218483202924,-210.894208121965,288.501236873858,-70.0416568768952,432.178429613695,55.4921076115188,282.110028736103,-13.9177610189537,454.770446227376,-5.0825976538056,1963.70194646746,84.6454938851799
791.806867792518,-92.3294198045663,347.505038780215,-30.3283970439227,252.654603107068,6.27371729497653,1395.13198947521,-176.687389037203,275.960539953541,-32.7702753184692,399.48047186431,45.3820229892412,1041.24689919623,-25.6592084089032,844.783188661231,-102.828387528735,864.502278487904,204.426821576672,1008.26190194997,-218.061568058642,288.072968132433,-61.8044292859733,434.027171506322,57.8917536687653,286.575023436265,-16.1017682831719,456.604238891283,-5.27927463111119,1975.07003614275,84.3168778072601
791.104495406598,-92.4274428551855,345.228443450986,-31.9698714879107,250.628575450144,7.68847155581197,1395.20259113899,-177.066994908468,270.510246088332,-32.9916916177377,394.306633259945,45.9695895479182,1042.43961600618,-28.2381949886897,836.335553516741,-97.3264134495215,855.937078659854,208.534968525515,990.226383692052,-211.859998550334,290.04939067255,-63.8633486272214,433.322697091392,58.762353969547,280.404764167314,-10.1362551205172,453.57153750003,-5.44584676431592,1955.08851866671,87.2216673346434
785.303588712748,-90.8589738683409,349.35443743369,-32.2860714769235,248.157048614921,7.79405758794227,1391.0100359429,-172.718444213652,279.078363712694,-41.4705218587842,392.491079409118,47.2425474420748,1040.36849364793,-22.8682420261402,828.7620816446,-95.8807681023526,852.415936666812,207.067509640835,987.721323907983,-203.757448296749,298.926505267091,-74.2208103530387,428.863626384631,60.6492654743158,283.843285395785,-16.8405506487542,453.981732885832,-5.25935953039268,1954.54212492332,88.2622510618278
790.662343197103,-91.0241389599694,347.599747129007,-32.5787876557326,250.208456976519,6.97810369290508,1400.73991696426,-177.672498464758,274.171051796649,-30.4299438778715,399.463433328671,46.0871812835066,1041.9737104617,-23.8034708471414,851.121855435456,-106.999267887552,857.645531667325,206.955270953251,1007.65655990987,-214.59934683936,293.336275666937,-64.9109790200168,436.256526045109,63.1306660657375,282.671946916775,-18.2768343296094,456.971673137176,-5.42822964357627,1976.48318378524,85.6609278534421
783.570028147703,-89.8551000944111,351.814446937619,-36.1988189359325,248.744589282736,7.3199774847641,1394.74006047138,-178.174789345947,280.06834602803,-33.9250020012128,388.607524028954,46.7582307606541,1026.38216233173,-15.0125210351727,830.979682779198,-96.2585178726692,848.016527611565,208.985979657037,996.405212632553,-210.864590147226,293.118775094612,-68.9423888376082,423.897211413743,66.3795120481427,281.891395235756,-12.5627744221472,452.690218482913,-5.01646914305136,1941.41961221235,87.4238492838059
784.678315760896,-90.5577423170673,336.500597073246,-28.5134673707111,247.252548961812,8.09810577428191,1392.93044308814,-173.782484427031,288.079394355167,-42.2358502032867,391.163033308,46.9822114656741,1038.64621459642,-25.5623286523576,827.740333552544,-92.9539656494889,846.940429871896,210.310372096034,993.27634502715,-209.717094693107,290.297641563876,-68.9928518213045,419.498455729277,69.1549207551922,290.067962591509,-17.9050225535857,454.786155446195,-5.48227727420326,1950.92720365843,87.5863138606631
792.801321148629,-91.3007174196902,343.960612997403,-28.9764482542368,250.723078722338,7.0587365071114,1400.50766863193,-176.286712635092,282.079324563865,-33.8662354358816,401.957692830195,45.7414539608491,1044.90521363341,-17.9871057091182,841.727560089137,-100.196620816978,856.064993313531,208.978051963346,999.153159213941,-212.599515283264,288.521611900337,-65.5891633432127,420.282039914745,73.3710409689027,286.051771462498,-17.1529990921196,456.064581173506,-6.44365125748175,1961.04622084223,84.7660504734267
784.089169693958,-90.3580465534894,347.687599754146,-33.5515369091823,248.351268355467,8.19169013181029,1394.83811721431,-176.362744432305,271.724841957961,-34.6589970409838,388.859709436547,46.8827884928482,1029.25983838539,-21.2285632484557,828.144401070788,-93.437465876438,842.451059844181,212.466445647732,987.987139659451,-209.890351295893,286.464352086683,-65.8544683143067,427.401763367952,68.6605978247415,280.263251138955,-9.63149221021138,452.812324933697,-4.3538555741538,1946.74473415896,85.9088548846659
787.113413407348,-90.1090286657519,341.566022011591,-30.8682126729102,248.858504455377,7.77678143398406,1400.15984735391,-179.076016252575,281.387924636281,-35.2712589469669,394.694304601157,47.0719988665705,1037.87698639604,-23.3896439108777,833.907715048543,-97.8235651777652,852.833404804612,208.187248749515,997.925406882887,-212.199113261092,291.066254613577,-68.5211538911066,424.085078486448,69.1196893744627,285.425109792683,-14.9585324996031,457.110209796442,-5.51013297195503,1962.75231532841,85.7452858758277
791.654856577295,-90.6483069680693,337.085046175606,-28.6336772526618,248.855291907711,8.81879700208036,1399.31963995202,-177.137583004149,278.529445357628,-34.4750779247798,390.518948029708,47.3971583150842,1028.36671034513,-14.0766422454879,829.67877980645,-97.1609855835064,853.656976069897,209.515220719993,997.522236594347,-213.7783078924,273.889984877171,-57.7962413319511,422.514651815837,68.1356928709813,284.785548375268,-15.5395301618409,455.252603055283,-6.0291193707072,1959.86355374152,81.7226604161217
788.749411772607,-91.8337547155066,348.387438841792,-34.6735030580664,249.410576562743,8.19974172734601,1398.68299496788,-178.292803988791,276.390365656697,-31.6894826593181,388.428722668514,48.7983227458937,1032.18520023392,-21.0679219916561,835.305347720101,-101.186274620457,851.413838366356,209.814359399196,1000.21418833449,-212.514875166893,290.182734966407,-69.6850034836624,428.446577949201,66.9220768528309,290.120568524227,-17.9538017103495,454.287661448757,-5.1743619539319,1962.01150167475,86.7050683780949
794.987157613301,-91.5318194086535,350.043104274744,-31.0862233129042,251.088036857081,7.74427550990706,1412.95869009707,-180.576312025524,284.721445975526,-36.466325015632,397.523036375188,46.7641811811917,1059.65166338134,-22.4670766508782,841.470060843232,-98.3083175747789,860.270570298657,208.053422549414,1002.71944517347,-212.625377210104,289.901797444852,-67.3289390019134,440.707241098358,65.8868865914203,293.568835306216,-20.0831828264749,456.08787302952,-5.22060429089481,1975.95667353883,89.005439256207
789.220357230477,-93.1087079567649,343.369298133733,-34.9888789623103,248.366626666154,8.5091166774825,1399.45078143509,-175.920047340991,278.440131641799,-37.0153659940887,387.839306341725,47.8069092635238,1035.32560781764,-16.3575211161349,835.837819390886,-98.8268666344433,846.623212407832,212.266711981694,999.093379818833,-210.920364538801,297.183468066446,-69.2424468768455,428.506794047668,71.0702858274407,293.261157794786,-20.4431329479328,454.354157860258,-4.88939315193107,1967.32120557741,85.1568384138445
792.117487832518,-90.4948390861893,350.233161234307,-34.5813383419654,249.897872310242,7.88353605460566,1409.682243311,-181.512238493833,285.262011505832,-37.53678361606,395.638342588839,47.0576779611762,1031.68344781758,-13.6894244712381,839.215250351519,-100.054638238464,855.242581010826,207.497844071219,1001.17405003992,-206.406678452082,298.41547505761,-72.8677993872703,424.313047945835,71.5266779585774,298.001721166827,-22.1986492134973,455.798156192796,-5.04854506174968,1990.47228822449,86.1192159722969
791.798582652929,-91.5226088355123,343.279897470907,-31.8674885285249,250.751245108675,7.48345843200118,1406.86560635949,-178.413730234771,271.010187158154,-26.6711198245898,390.238179885783,47.8712805370296,1040.79117495791,-15.3789036784187,832.541609998964,-92.0988164218004,850.486957768785,208.950565985025,1001.90501017557,-215.000146381076,286.731857688694,-62.289985130308,433.397093405034,65.1908423738662,289.12656552867,-15.1678498043396,452.652701502524,-4.40169915650538,1974.89238639794,88.8964693320777
793.155306973238,-92.6277603198653,353.787308076942,-37.1567054342486,249.410344194858,7.87625935197328,1406.05867325341,-176.801018743293,276.763700311537,-35.2779452041758,390.911435232635,49.9117676348112,1052.6328996538,-23.0527153254695,837.724367293835,-97.059248497399,851.453725281065,208.777123338435,999.772894559135,-208.076597312732,299.77020673304,-68.8004597827376,432.226573276506,72.8757671282091,289.003320458906,-18.3546619646665,454.932887427416,-5.70711414855937,1989.83007385473,87.5369715969737
803.518523653094,-94.5442892979121,351.910604325166,-37.7729869305006,252.340507601018,7.88236288341436,1416.3786364004,-179.650418807353,278.213058146695,-36.0908921832253,401.675261377923,49.0351409738321,1056.39622576394,-23.279163132016,859.041725125315,-105.206273104201,862.136486203236,208.952123771811,1020.93270577291,-218.256640580989,296.089709707386,-68.0333229657181,422.898851728707,74.6643436820211,294.401460072224,-18.3910540193585,455.0899900604,-5.41543709883181,1993.8192805249,87.176110412852
790.180530407326,-91.6402056545109,346.124281622939,-31.5426065334375,249.976462377607,8.14692486041061,1400.80191337621,-177.328768299164,277.825465180635,-33.933475121266,388.866756683514,49.6062588348977,1043.82146329074,-17.1243188911855,835.863008130873,-94.5464585290881,853.384505285076,211.294571781238,995.199746039155,-207.866555637374,292.792990519231,-67.5069310270022,432.399893613858,71.1386609607607,288.595829936208,-12.5981720011584,453.961451694632,-4.83132094591878,1984.66388444449,87.9848124832976
797.878691942248,-93.1711443664644,333.561984508334,-28.4407118108681,251.507766334469,7.62641409100421,1408.69940212021,-179.687716960936,276.889018896159,-32.1888568547432,396.334130489846,47.4534109665981,1051.06448391723,-24.4587735500948,844.577507090974,-97.974647730984,856.224438106267,210.532146328418,1012.53304822409,-213.421197074197,301.763365801046,-68.5531962340984,429.077906090223,75.2539221973559,295.528053462751,-17.7043815903322,456.469982639634,-5.26773060986914,2009.11147045551,84.8186282561589
794.791388825992,-91.8766784362331,342.055318833391,-35.3125843084547,252.169762478584,7.78100335048002,1405.0037433218,-179.747136713144,271.864827028919,-30.453366076803,390.096995381663,49.2942899021632,1044.55016214224,-17.4963660970314,843.611774272634,-101.488017398485,857.62521316735,210.608139426837,999.771418635685,-212.105909610567,304.477187626042,-77.4034536555678,431.502761792453,70.2888036264614,292.277244379249,-20.1919656413185,453.339204221826,-5.18849229129808,1994.72706159519,87.4138702083849
793.896918508315,-93.248771425924,342.449389698686,-27.1456654287166,253.322115217997,6.11293409988759,1396.10784282703,-175.517334655412,273.743346135935,-28.9257301422562,389.360850001449,49.9624483015014,1047.23884717378,-21.8108075471187,838.711987340703,-96.8628259589993,858.665961475005,209.751664788327,1005.02682560304,-207.631142684035,294.43313739738,-69.267398523901,439.429927158791,67.7140548948641,290.494127591076,-13.3459499645997,454.639304584634,-5.12326051528651,2004.45308433185,83.5341292900853
801.724656735396,-94.2076806886274,348.953517175488,-31.281644921565,255.619492413819,6.34149646899638,1404.46477728202,-180.121421179617,278.824112474337,-30.2938892894754,402.168101111521,46.8222325782765,1065.73667281454,-25.5704196934414,850.75564678656,-98.7384218299762,869.41143844846,209.060256538803,1020.64802680457,-213.059321223283,291.35528701927,-64.5865838500444,446.933909529213,69.7434194197715,296.601678740175,-13.9906758671092,458.120391723616,-5.08970807913288,2024.10861670114,86.6318058287887
792.284581976249,-91.0793785711364,347.749688892758,-32.4052775932634,252.744328847889,7.71843179005787,1394.48707204458,-176.19984688619,282.097523170289,-36.5892518284429,391.603375028259,48.6975893592317,1037.67380305969,-14.0250214760668,842.930798964837,-97.44641590265,861.267743247607,210.348397829693,1005.12600400084,-209.006151544185,301.352561522069,-72.7804389247615,434.421734857712,70.7863636095244,290.887206423263,-13.5821283089822,455.117964122161,-4.35269631977086,2003.88099195795,86.0812536656558
794.868300105284,-91.4660605477207,345.089438486216,-34.8969193044209,252.711954597281,8.83759044633639,1402.4560094599,-177.724939178226,281.668247179027,-31.6922698344189,397.447331336903,50.2113775413097,1054.66776207225,-19.928132204308,856.808234287381,-105.193936304513,865.334827980146,210.881941728096,1014.41198561628,-210.972790637855,301.526635761179,-71.7845677110536,440.18462231613,70.7957133589779,298.237126815614,-19.8833507668853,458.100085008291,-5.71752317671224,2025.61692453642,84.12657418559
798.059063685099,-93.4286276250237,353.047686363916,-34.6683079479253,257.442197213323,7.71119112411158,1403.83492337593,-179.748468293724,279.509633917543,-33.9431072874882,400.810091005097,48.631651960526,1071.05688463158,-24.4677508149266,859.920832549219,-102.631361416658,871.340056224742,205.051067322044,1025.49526410711,-217.485274629175,303.591935029141,-72.0344389562717,436.876878215602,74.5460158692444,292.264024228759,-13.0544770503293,456.046432077244,-5.34500189739161,2031.24998833613,85.9456080596528
788.041003231119,-91.8433663320038,356.829346121721,-37.4437248466948,256.577870270511,6.7860469034209,1397.57511561541,-178.355933907633,285.318425088149,-36.9785449212897,399.414364541555,50.1496211089226,1069.02558318201,-16.3621256311253,859.715777514222,-101.455880611548,864.626500331677,205.619476908992,1024.40392787503,-218.0889732473,306.867416227148,-74.6826522638584,446.573899589754,62.6194388049395,293.851022387086,-17.0213895596844,457.352008052313,-5.33448058299448,2041.46187056427,84.2743374326238
792.194071279841,-93.4236808642985,360.874181820993,-33.2789087312747,257.867355198779,7.18965341330372,1404.73979496912,-181.984573301899,283.684560428805,-33.3608757213201,409.713109674674,48.4158687717229,1098.06516600481,-29.2926385427391,870.433440118274,-104.860193346916,873.58930188498,206.579784044713,1041.42787524632,-221.919262326232,302.265504612723,-70.5036673799248,448.108145123399,68.4684422989035,306.960630373116,-21.931968856647,462.058977450868,-6.0312456553764,2058.61333858402,88.0441006176544
782.897571290557,-91.7075007296378,349.890329798338,-32.8954167941962,257.226451797805,7.33646874720082,1391.92109932165,-177.620284385108,276.034525241453,-33.6892207638645,401.045630376889,48.7767266811579,1076.86524008151,-27.0637930861049,873.643664596515,-111.20695642805,866.573591663273,207.719120564426,1029.74775768695,-217.575308526983,308.963138064459,-74.482933774395,445.533680015103,67.3620820821073,301.915455927878,-22.9414038172113,457.304116189987,-4.61422342427445,2052.08292907659,81.355450842103
784.598007570547,-91.3976438936018,358.634568896586,-34.7898392657773,257.725596636827,7.26428372377274,1399.15003888975,-179.445799044497,287.497388683711,-36.4016926069142,404.147492277658,50.9817762283896,1084.0164412185,-20.4451406000719,870.632528555217,-100.62866162591,873.925298877116,204.497828303499,1037.33456653047,-220.48323614578,303.943470314689,-69.1690752273032,442.09606563873,71.4855988443868,293.403774897342,-9.62365536118619,459.788262102403,-5.39810738111069,2058.43513780782,86.6551012069275
794.21686728326,-94.1131881619451,373.776207947319,-39.6880509468628,259.439211480139,7.42104226676883,1404.03114724956,-179.899261669744,278.36099509017,-36.2984183993185,405.030658996225,48.2418775002503,1095.20097585632,-25.6718748874311,868.802401526725,-97.8070599293289,873.760561137098,204.31038054222,1027.9520190781,-215.690976114994,299.842535920752,-71.1096921813092,434.832396292545,77.3159494996618,294.07928879715,-20.0343705884968,458.270755017093,-5.1897109547465,2051.57913033114,87.8528337589911
781.151838945555,-91.2157172033017,345.676952345557,-33.240332863274,256.68874217209,8.17647556792316,1392.31314357947,-177.850885363259,283.08162436915,-35.0020210261481,400.843916944725,49.2210176923848,1080.9289088908,-18.5680671748532,872.151037155105,-105.021377341524,871.94312968496,205.03432635233,1034.99418177647,-220.082064590206,300.522474831963,-71.0907374368288,443.689362081881,75.5601986174018,289.348863593729,-18.157550041907,456.957173729544,-4.67862222920003,2055.76091795455,84.4912159253391
792.790693647361,-93.9087084041924,347.676965589364,-38.786555456762,256.946538450829,8.0013647696951,1399.03079810664,-181.502510771738,293.450363277568,-37.8390462717022,408.382721372921,47.7739034689188,1095.84981019494,-28.1713839807599,875.135921651099,-105.885389693679,880.05597609353,203.711204559348,1040.60588045699,-220.298784224743,307.319585408933,-70.226730688576,449.424260537779,73.1077013229701,299.249027205786,-19.7870998410719,461.127507521491,-5.44355282788598,2065.83400219516,88.2560510463242
