801.367371632812,-97.592932291073,355.958619441815,-40.1231930822525,257.389171508584,7.93911878927509,1411.88943291433,-185.997528274719,279.982339972916,-36.0006503184626,393.834788716416,46.26129335508,1069.20812803281,-27.340521743079,851.364415565201,-105.299127440559,870.732498716098,210.498367199362,1011.43631313293,-215.139432598007,287.365302729148,-67.4178921810712,436.996424014209,67.5934919743313,284.701420581563,-11.9854354062565,452.847782963839,-4.18173911323879,1970.25782431996,85.7534356983876
787.724406393323,-93.8802791286721,336.979278545771,-31.0562286212496,254.113546435606,7.1663597576811,1400.20320919791,-183.054395670897,270.481809082975,-28.1073425343011,386.109921986504,47.6397914108806,1049.75199721118,-18.635565995038,825.03656746997,-98.4636139842648,862.437397376972,210.608567465424,1003.21528536243,-212.378304130942,291.067796071798,-64.5463775777804,433.293100273585,69.0424531741493,287.244390955224,-17.2512702378395,451.530645611371,-3.69073158496049,1965.19825642018,83.1215563390987
792.159451858172,-94.6455597929109,331.580234174837,-26.6450689387385,256.51857368246,6.36920701416809,1409.89607215942,-185.179592503039,279.767196002837,-38.8776182113591,397.471901320523,45.3801515498044,1052.99695859058,-25.7079537083157,825.976140851005,-90.4747281822102,868.111027484924,208.711478211832,1023.77357310314,-224.261728545586,295.859233940494,-68.3800997795472,432.871680554803,66.491934635404,275.683700911275,-6.34959489699834,456.569829844833,-5.01854348366849,1978.94128125693,86.2016876057138
795.916009354391,-95.1700523482372,346.710117612157,-35.8705812368505,256.961387961003,6.03839794307244,1409.14128076839,-187.848942475707,280.623512496226,-38.1807851855909,389.561124154933,45.3467014673953,1069.59195999618,-33.716445776068,837.021463902286,-104.097504218267,864.198586222178,209.477927056325,1011.28327426341,-214.138329043643,291.517520474647,-68.9648200539711,424.552587768602,74.2866171369781,287.904570565709,-21.9135088593379,452.409215431991,-3.64482828402586,1967.41136852659,83.9646696024132
787.271634257078,-93.3153191173239,348.878087071979,-43.2762735066316,253.576984113824,7.95500388548907,1403.61010037136,-183.936190865744,278.465447011043,-34.875838725093,388.242373478318,46.1576036799349,1050.90187472203,-22.0754112948663,830.179192698878,-100.688056007916,859.966750207182,210.273211205575,1015.82851810278,-216.838773610134,291.613719125614,-71.0122819782923,434.104677973449,66.5665557804732,283.464901542595,-13.5335621408581,453.16151933987,-4.00853898120218,1960.669491597,89.1873917328032
797.444189914995,-95.9836850815559,336.733255132327,-29.3786113645948,256.649820434732,6.84184752464329,1413.83782478622,-186.614297669785,276.440248737292,-36.5591164356385,397.338844465262,46.7342751385522,1060.29608873864,-21.025508114161,841.894648084841,-102.229374613325,872.862540192451,207.622990837533,1021.9724036759,-213.170421643317,305.098070810684,-72.5488199564829,436.086683447939,68.7009426654149,286.467658858394,-12.789793348685,455.839504554021,-4.39661423816553,1986.96762740592,82.7974324754423
790.700129555796,-94.9819814723635,356.741162149702,-39.9988831689862,256.140560672843,7.48819340258878,1408.98937586895,-186.773572709516,270.649957940708,-36.3032741178066,387.858567240025,47.7040128067393,1056.05879338011,-24.5539990935795,828.704626486905,-97.7874837087966,863.150736207023,209.104576492224,1014.89258562074,-217.80736999959,285.733683030235,-62.8682029539721,445.617996245231,63.9615928913908,286.153957837901,-16.2231133492559,453.54356057046,-4.49334277224727,1962.92255231841,86.6360575329449
788.244018036223,-94.7911880322847,332.670914295539,-27.1942293310041,253.064726466268,7.75370316525982,1409.38377507449,-185.520890417401,276.571088614583,-37.6652938220953,390.260833453843,47.2385764327454,1048.89377758208,-21.6683838007332,839.442800183044,-105.113628873823,864.069531266864,209.428858483015,1014.72027557089,-214.160301017731,294.17264695834,-70.3920307814236,436.978416386347,66.703417073435,291.936193555499,-19.7799604165501,454.98871130201,-4.64649032290069,1968.18755404945,82.9352785694333
800.112253213987,-97.0008327193651,342.037145210637,-31.9418818350575,258.39247438543,6.16305592263396,1416.39757364423,-185.701894722687,287.11341460458,-39.7108483059651,400.848207409387,45.7231173607784,1062.74106188459,-24.6742471485513,826.942459961229,-93.8469826317759,870.702686358747,211.092063775187,1029.39819356838,-224.334937416107,302.002151985107,-70.2204402345245,438.632551929361,67.0634223177095,285.852876049908,-13.3056427708581,459.218460069267,-5.19523661992319,1995.99299595709,81.2987003286816
791.706077593083,-95.8195533058211,349.564843427593,-40.12568890126,254.607305231525,6.83543236960451,1408.598509906,-184.623091881775,265.968078318857,-32.2544001075123,389.140487094816,47.0938365315078,1057.07610692576,-31.0444991357481,829.058803009023,-102.173452752113,864.826863843026,209.568880338548,1014.88667669156,-217.026046929911,293.790780559007,-70.1786620340819,435.722100790467,65.5898528522922,292.370342470481,-18.6443047627204,455.443287275299,-4.45301770262582,1964.08922123726,88.2964863592459
792.256630992754,-94.3617466117293,357.132144956152,-42.6539884497419,254.450321536313,7.11729882997688,1413.83871963489,-187.433388418711,285.448892862364,-39.7767611682447,393.974293380749,47.742735546289,1052.62629614729,-22.3530383625011,839.109732219765,-101.244596538428,865.560184792877,210.687516638521,1027.15720490321,-221.241167816372,301.891238665462,-68.9693587938423,440.030947938543,67.8575452716314,292.542895887677,-14.9563711180767,457.714095563182,-5.21363787811906,1977.65425487066,84.4396965067316
804.331745241463,-97.5655411976628,362.155848737152,-44.5841399922278,259.634867905457,5.32702959344113,1427.10792350061,-189.824013218757,281.220924034659,-34.2511492043829,403.977090453964,45.3615652249238,1061.53597617486,-19.3378802487014,838.180606720251,-94.3401717843466,874.724478498215,209.463353219039,1031.04648198615,-219.247236463825,299.427669259421,-68.724504194868,445.539961651095,64.4141451365651,297.192653112048,-19.2634369079905,457.330965641249,-4.69609595947268,1977.98208629931,82.5652223608714
793.617143605519,-96.6906830713391,352.075630433805,-36.8505508051884,256.467082748937,6.1916140589948,1414.44117869938,-187.329429562456,282.310177676973,-37.345616998013,392.512635004751,46.5281878148262,1053.8408897272,-16.4250092460454,836.216879372082,-100.897774868455,866.046994215378,211.767308329815,1019.71258741792,-214.538586589527,302.340123145577,-69.8774105995814,444.111572412227,65.4735085153827,292.414481221092,-18.1150619804444,456.960617750832,-5.06424740653506,1966.28039561517,89.1774422724322
795.85541635474,-96.2248148324234,337.848727420725,-29.7605851911558,255.764564655293,7.0237338447711,1422.23032988066,-191.088986974574,286.905657987655,-38.2048271201981,395.374005127275,47.6332793233259,1076.05992265219,-40.0049118189528,823.568139103968,-93.9258187433995,870.967876673299,208.437290846888,1026.14529235449,-217.490186151781,301.936782050804,-71.947691639415,451.919675871413,62.4494608389778,301.049472754222,-21.0912519407408,458.840933174932,-4.65492018935821,1988.64897386881,85.5154829563142
798.530454582999,-96.7279055999896,344.402966212131,-38.1510082317083,258.444768887061,6.05924256217235,1414.4327943471,-188.71652623357,277.432578428968,-34.7407896438816,387.785223204431,45.4626404865612,1046.538273455,-12.8947763933158,833.983827909618,-98.8437570771742,868.752199890075,208.925340785936,1004.88769569905,-208.680506184967,299.710973998358,-69.7764782357363,441.768710102827,63.6229074088809,281.71528928134,-14.5795862838981,457.019337646296,-4.71688539989353,1973.69935750562,82.9086334000364
789.263950341227,-93.7944444400623,341.783733810397,-26.7233307080868,256.413882364173,5.25414091726375,1410.86917236363,-185.821550750262,272.619247579149,-32.8334162056227,389.649372023756,46.1868858381602,1039.95981602442,-18.0725735977398,825.85135593557,-94.6746191357062,866.406667120724,208.214864721572,1011.64219386098,-212.161397902175,295.103049828325,-65.9603522176479,436.348263116281,68.9904707752168,288.94840601936,-15.7397576099161,457.328708482452,-5.14124342168603,1974.98678743434,85.9597867885361
799.429130392327,-97.6847760857999,343.905097041685,-31.523397903718,258.22743682833,5.81235897520856,1419.19939469216,-189.655520383021,282.240730843672,-35.5329978929442,399.017211140754,46.7058163452614,1046.96029380242,-15.2077374188594,836.407155821891,-97.4977743081783,871.644963508572,211.603527553229,1029.23185810807,-221.728065661389,298.306033086498,-69.2959346971956,443.499845724621,68.4454373533787,290.198727556012,-14.4787141843527,459.864781936786,-4.8588180119818,1998.95625900153,84.6696777148312
784.654807421593,-93.4947437333644,333.498758803429,-30.0724880210695,254.103350165649,7.21633597555122,1409.7819050789,-188.005724543448,275.067456795567,-37.5789506546311,387.74665399005,45.2443893410096,1049.66763869082,-23.5909045757113,824.529841985736,-98.4191852279447,861.146938528667,211.166211090828,1017.71256348854,-218.969603209738,287.726533327776,-66.179288848364,437.965405492892,70.8583232474361,287.775367673485,-13.7418296835009,454.286912067159,-3.87013358797697,1964.0909017089,88.2341481738384
788.243541777941,-95.5465751750731,350.820768600192,-38.0650346875147,253.798018302557,7.44004234913239,1408.91310920213,-188.056400506417,273.046757560392,-30.1390165552327,389.661091630471,46.6748769806983,1058.07275752652,-30.5115545341279,820.045600800207,-89.8710767732665,860.265549042561,211.725787517844,1006.79987794771,-214.402843649376,301.194811874743,-71.2522917214588,432.613675963188,70.3431019553131,293.095167903488,-18.5335209875814,457.260382744517,-5.34711978392063,1974.24524214536,86.4980552868703
798.301630916307,-97.9989019360696,339.729677309493,-31.180463988492,257.506854439656,6.96567811855637,1415.74493554776,-187.678584614698,280.480848104569,-36.3003893935013,396.080446754773,47.7394348171646,1077.41952225275,-32.1711616937416,839.982408557478,-104.016537031715,871.493404974023,210.218338240875,1022.73245734911,-215.836265397221,286.337999695555,-59.5276008583991,441.648507440837,68.910798244958,289.135534833761,-14.5738702579242,457.541767276289,-5.82380537282048,1976.55391385885,84.9811661227877
783.822206502074,-95.0683839980932,349.729202600826,-41.6494268505225,255.073324523774,6.60715475280725,1406.84644609943,-187.631637205635,268.862481163754,-30.1080134170394,383.127851584744,48.1649256980228,1064.33841145603,-37.0176914544697,815.391412107387,-96.450118940625,859.507604546541,209.723563905423,1004.43181800387,-212.546614140804,304.694283951712,-75.5173952423555,435.419390994151,66.1714720510043,282.388881230575,-12.0052435763387,455.090353102668,-4.46052906138462,1961.69812509494,85.7828198112347
787.810690881422,-94.6132410680402,339.833804043125,-28.3342308594197,253.676355863154,6.70581445054799,1405.71981714311,-186.870281849282,280.717058889353,-35.2696002256813,389.510781463406,46.1054984272778,1054.57598625039,-24.571194827566,826.828660486925,-101.088174176389,861.318323451375,209.253224116367,996.574660340329,-211.613922542143,301.362485220482,-71.8516194371745,433.137207781727,69.7587068902489,294.009818600671,-19.0386233202089,457.260311708693,-5.23909139674559,1979.83484990299,83.6996711399078
801.737593981269,-99.31225533036,340.799939111103,-28.7342167273953,257.357033150373,5.86022527635343,1413.70104458108,-187.329100302005,267.690587656563,-30.6881054424703,392.564175883613,45.5785735191733,1054.12679635677,-21.6687724991104,836.520706478382,-102.69634977415,870.337752380242,208.590780523918,1012.01188122431,-221.011369302216,297.867876443949,-73.8281118082764,432.653737126402,71.8686540279675,286.5518958337,-10.0950082843404,453.866008685636,-4.27216344344778,1964.42693748172,86.4242273593287
782.892467609453,-94.6475247375544,341.398394396262,-31.8778132661295,253.338808244215,7.48566854321208,1399.1555772729,-185.115392915341,272.23132543551,-31.4829294340081,383.667362687416,47.1939415438404,1034.69135102797,-18.9308183318847,819.11968295327,-99.576386812892,854.139341280211,212.804779362807,999.066820949117,-211.17156870013,296.65285844865,-68.4988613406941,439.227526819705,65.9865842707033,293.065870446007,-19.7437074842249,454.531786468454,-4.59223118355877,1958.31438702032,84.6327453538323
790.465965901173,-95.7227681199872,353.934018576444,-42.2299475541574,254.022281065907,7.20031631460188,1406.31603105619,-186.529069670921,262.818188843231,-27.5568373557535,388.906460405404,47.1319978178458,1048.77381898553,-19.5941994613983,826.821773624683,-102.523464877527,858.032464917784,211.738555553978,1007.2924286381,-212.256854275316,300.936504389567,-71.6332911547711,426.168436140721,67.2619598781638,292.535978438103,-17.8240526563411,456.167333388696,-4.63338113716833,1975.29128382462,84.0924755960309
793.430665170453,-96.9741784382461,343.045154117093,-36.0675483726516,254.686761862456,7.25393307098593,1403.34202466195,-187.000097486038,266.510121109688,-28.9820774103544,383.379063484637,46.4732216309338,1039.35349629561,-21.6137111717757,811.00147012163,-92.5979893618646,856.051261249831,213.04533854537,1005.58544043394,-214.354929036375,291.352534799417,-69.5813492008739,434.282044859867,70.1282172791664,284.543507582019,-15.8802895536883,454.333840936527,-4.39693647791352,1961.59098799543,85.3862063810015
785.818473732487,-95.4437008422517,341.055937045383,-30.1025309750435,253.985881238334,5.77357683522354,1400.32917991498,-185.533292632346,270.062013408265,-30.9201192025545,385.341432967282,46.7952349316909,1028.73721738604,-17.2064845540442,815.427574509486,-95.2847865236617,855.839834600138,209.600295206517,1003.37533821848,-209.585315873558,295.059230497075,-73.0645229663395,428.16628964988,69.0097956043643,279.594205373324,-6.61510472266458,454.375853242271,-4.86849733506836,1958.45626247226,87.2000914242796
792.418251696762,-95.1445991835793,335.371031358277,-19.5121045436752,255.768970438044,6.49602636167721,1406.8227491221,-186.573028934484,274.923552359193,-30.6498938605968,391.726414779973,46.4348548775216,1050.90691147475,-26.785588957458,821.650558759585,-97.8163205619934,856.301853361823,213.16871136755,1015.68354076852,-219.188322523635,303.975438947704,-73.542133959897,432.611324084071,67.6376469134174,295.199724812988,-18.9690433303514,457.185382326533,-5.32666440285242,1976.66253605443,87.5687195292991
788.217122008183,-96.8050992305838,337.790809696345,-28.5614235756242,253.323239620928,7.1717223498595,1402.25774394912,-187.223869944513,273.827001640031,-33.3486884201165,383.740640208122,45.2081704775303,1032.56900141358,-19.359838499934,811.396292411133,-92.5123477020919,853.006436936113,211.686665175837,1002.94302432405,-215.002412024336,301.099705550523,-75.1517269632358,427.612165155337,73.561437571172,296.882037802994,-19.8096707457122,453.143762461636,-4.41165530717464,1957.89801831131,87.286273314972
788.917557126484,-96.9289107113944,358.015994437145,-42.3928906610901,252.68857504103,7.84221697358039,1401.77159033219,-188.425569035172,283.503586467387,-41.9111142889033,385.554129322247,44.7196700503198,1044.28449227053,-24.5532063028298,808.920352711117,-92.3724831149835,853.904627783429,211.028528481139,1008.32258309861,-218.693234836328,296.943618536137,-73.7508803565967,420.851530435574,69.7400850889371,288.35283535264,-20.4623581182595,454.650941906103,-4.71993392476807,1965.04161448531,85.8266452995735
797.931469361994,-97.8770642933325,345.458997567499,-32.7440854200531,253.554731389337,7.48184344687226,1412.0056387713,-190.578822278677,277.038112565402,-34.8245742130792,391.488436404972,45.1554156838007,1061.59368906227,-26.0068772991976,819.073627449484,-90.172789151345,855.324239492859,214.658373310746,1009.6727800339,-218.165112083528,288.91066503834,-66.9335836449556,450.494974560343,53.6626298355967,293.611174493151,-19.33554829049,457.493202984213,-4.81954208779464,1987.29290502408,83.0221586573746
789.866024133034,-95.7130905578671,344.423728177064,-34.7218682464847,251.843762255366,7.65379197381928,1398.54401912576,-186.350770218865,271.91196392432,-33.9908640686404,378.640983932185,47.9534440618335,1022.05320592212,-10.9786924463606,815.425232147214,-95.3457278397982,847.7741418203,214.15112428029,993.116647948573,-208.950805715259,293.116258871872,-71.4443431489351,434.608757247159,65.4697856965739,283.987676693709,-17.1587366435411,454.399503300736,-5.16602913264947,1958.25221324331,85.5582222603294
791.987750303515,-98.1154734936018,346.874339788378,-35.9165770399431,253.661340605054,7.2099989347164,1403.9651746713,-189.54496990357,266.957458230336,-30.711457990885,384.415318926527,47.748973535208,1041.94398085562,-22.3490814643338,821.490682270645,-93.4505561330985,851.145855345901,212.43145231731,999.195148758705,-214.051036671505,299.67585466935,-73.5888191531136,428.739401895158,69.0731878846894,285.538119036271,-12.0185796107757,454.616189095784,-4.68089688101186,1964.77480082961,86.6760222956212
800.378340624506,-97.9709507243656,350.14974117013,-35.8738086944939,255.663763416031,7.90278089480835,1410.89958598049,-188.908424783693,287.75005696977,-42.1551970212744,392.828826176815,46.1741537213475,1040.19043373927,-13.3513687032969,830.483065643684,-102.387509377573,859.04101340483,213.14500440123,1015.0708424925,-214.288220592032,303.14621723615,-76.2712107619061,428.370538691794,73.2630858891946,292.456807664962,-19.0276362785681,457.269379547643,-5.35894654254778,1987.73232971392,82.8619439269232
790.591586107655,-96.1203606572604,333.832560268797,-28.0447969714996,252.373794525488,8.03374946052753,1404.25827205408,-189.707477896085,271.856335938263,-35.7505587859812,380.172257691521,47.0181023515347,1029.90882450025,-17.7588249481227,807.369394793573,-89.5063622318538,853.289352016398,212.891802686354,985.516541067829,-205.266710028012,295.934660866142,-71.8793281836615,430.25288020734,65.4025179102094,287.475083314959,-14.7040264827685,453.86446100794,-4.92119690868013,1959.39359725092,86.7141135324314
793.43683636185,-95.6236018441027,345.275840347732,-38.7348560897968,252.395444716584,7.41963975227469,1403.35255701107,-187.424314086188,263.562836871827,-26.7606684550652,384.194279295591,46.8761186168434,1032.4902390851,-16.4510766249525,824.457962244491,-102.981486098847,852.986859062625,214.688304154822,997.95975708197,-211.309680984293,294.767954316394,-67.5981766490132,431.918741571414,66.5373585657716,285.590543665808,-12.6939867534276,455.827163760788,-4.88736391243699,1966.76673204656,86.7111313865975
805.790975021962,-100.841482308726,342.207008241437,-32.2331662317233,255.108169562066,6.89680242941737,1411.55933176247,-189.430865121686,274.921597700173,-33.7726418805033,395.099781552234,44.8194447331734,1056.84074286164,-24.2115598855225,828.645136348907,-93.8940344419514,859.024095228852,214.464032246728,1002.39249944376,-210.869912949023,289.885358818028,-65.85608684521,435.802397938566,62.4000730814443,281.275246055297,-14.8768144231154,455.489354134679,-5.09529875213508,1964.00578862836,84.6191346954618
795.870536974611,-98.8672718856565,350.308816167718,-36.2191149406331,252.351296443244,8.14602810934908,1396.15176684689,-184.966420306856,279.896115880898,-43.2392526724547,384.323951280716,46.5334987431491,1040.10957702354,-23.697050875914,815.863575177336,-95.9136033185045,854.945685925169,212.4916349275,1001.81588252836,-214.09879858599,291.460309018925,-69.4746792192209,431.330723815369,67.6613311400598,297.477073705087,-26.6738978574658,454.349753502312,-4.85601956505844,1969.67403623275,82.8541043145379
799.856775950802,-99.2168925899355,338.16689799876,-32.5120141310796,254.521546842382,7.12924676200642,1406.2658044867,-188.963339226657,277.090964474263,-31.3153377842581,389.446588597751,47.4860058270551,1044.69643649125,-24.3403729883453,825.128496408781,-99.0311013826055,858.066987055119,212.684036775742,1014.26375980398,-218.360386469957,295.991158523464,-66.7769135086268,429.788681730105,67.5539438985383,287.103554686939,-15.9914974934376,457.333743211018,-5.29598568584127,1980.32397105852,82.7768877072884
799.554567226349,-99.8773396819286,328.528754533989,-25.9254609887432,252.99329728421,8.82933054625675,1401.30035534383,-188.163212383104,271.326297133093,-33.7962774562943,382.638775678682,46.902098121695,1044.79024653123,-23.1580038380542,812.298917301253,-96.0694257625566,854.365731555976,213.239798699046,995.827505822263,-208.832221725522,287.337417600486,-67.1596415832017,417.499513541416,76.0646824351998,278.424856258058,-10.4848536272264,453.924184126564,-4.63279793299127,1968.37011617131,82.8199752125024
795.722235094966,-99.1934778665695,332.405001223466,-27.7989729607395,252.38647724763,7.65594417636694,1396.09256163566,-186.059296038797,269.691436763814,-30.6555384385295,384.355978098476,47.3550298679155,1024.0346909923,-15.8958556295335,816.770598343668,-99.3900620601916,850.167904121809,214.368631168937,1003.25956476743,-214.16798460571,297.10739587125,-72.1281830782813,431.561979024805,66.7342440628881,286.631826604688,-20.8276388468868,454.769292714833,-4.82615297930407,1963.48141022285,86.4710266175277
804.578248899468,-100.643676482938,342.511458671352,-34.4373367226178,254.412549673366,7.42165301569159,1407.30080966679,-190.561047345623,269.569137944691,-29.8982768552637,394.438655903851,45.5985812229386,1049.21840989744,-19.8058634736688,814.988833563268,-95.5445011793425,858.011389755911,214.813807762496,1000.8716346288,-206.719732224527,298.885269408141,-70.1404272398272,440.533284611428,63.1402839031389,277.870284871273,-7.82170598606651,456.982125537057,-4.70515661956809,1989.62496973769,83.5001916388806
793.277729464717,-97.6001094569392,343.150841699453,-33.2574542043239,253.687724996012,6.48237012408303,1393.30662077228,-185.840803293044,264.912960487186,-28.6619861464565,383.671652313959,46.029446746155,1018.02792307024,-11.2323782168613,811.473437977727,-94.8490105614631,849.884612906357,214.631123801296,987.49012149038,-206.904168540112,295.601886859803,-66.4755990233811,432.45877945451,65.3595461409327,284.267889990729,-20.4674614620186,453.127526287517,-4.31745025868691,1967.74271793606,83.776146772613
795.05775303697,-99.5171151563977,345.765329208245,-39.5801708413181,253.595593358538,7.04493424803199,1397.94564121036,-188.547041340368,271.424304037672,-35.4978111060286,390.081187313711,45.0912374766506,1034.4147525315,-16.3844482069096,820.506622808221,-94.3529476516576,853.543692228394,214.31420826479,998.595168319248,-209.580035860906,289.102510733062,-63.4275224590037,431.902909930312,63.6162037520489,284.36987488341,-14.0226416100163,454.601877682074,-4.4972538172195,1975.82028245919,86.0305458190861
804.069198426272,-101.33195480923,340.699211245651,-28.8395550174497,255.630841753579,7.35676740009115,1405.92617483242,-189.334136739426,278.338628850795,-34.7782013992403,398.055393576163,44.6574667644626,1049.92862160842,-18.4632584417835,822.765463979189,-92.1152926171204,862.799421997299,211.418790204122,1007.68970607612,-212.587667220806,290.362154268472,-65.5191087111321,427.768698429468,70.2633463115412,288.205389503063,-16.1893059343658,455.714410511535,-4.70176657032747,1983.46739461174,83.5607349727481
790.134088063079,-97.5768997858665,334.610502666775,-28.3057173451462,252.616344540554,8.11291289448115,1391.70736674556,-184.638375767087,268.887175935349,-38.7631271920813,385.265441818769,46.9161090091317,1040.62471079416,-20.7211887141774,814.211734758589,-96.8938798920447,852.896455418722,215.319999097203,992.493932539136,-209.59279625505,300.004607326577,-71.9194855687535,421.84115679013,70.5851322547084,285.15288994572,-13.1056210607456,454.475824366694,-4.78928607717112,1963.59422854202,82.9325076177974
796.469351404842,-100.122995181898,328.838074491453,-25.4568710267308,254.194456715631,6.22541459581216,1391.42739079373,-183.159523829366,254.730712053521,-18.2723359209976,392.069887707632,45.9271277779937,1038.63586873273,-21.5679228022629,820.283782190516,-97.0648871107847,858.541392851559,214.19224377936,1007.45583997888,-213.807243925634,293.110603617526,-68.6110032589353,431.581797414905,67.5217766776497,282.787913589196,-13.0649848675307,456.821896519108,-5.62458593634499,1984.65011881864,83.8358402442763
805.494482343291,-101.142946263786,344.284078962443,-33.7535174350298,256.57821659348,6.89067598447647,1402.47625724585,-187.837468604192,266.748890515827,-29.2179244501247,393.932446686453,45.9095044330311,1049.62908055156,-22.6264517515776,832.824296534124,-99.9527987930336,865.1412714155,213.853300291033,994.775492169783,-208.576098826163,287.674027070461,-62.8168131700111,433.829456773813,65.3869594355203,292.951330176633,-21.207826741045,455.763575749637,-5.02641751766493,1975.9390126783,83.4138939802638
793.536521675094,-99.1914045227595,346.252084210022,-39.5638033441029,252.781474443225,8.31501954499074,1393.7073647412,-187.791291963912,262.649885757705,-26.4564792507356,392.413781139373,44.5236117006211,1046.28736593715,-28.680995348054,808.05795195263,-86.9875170938896,857.560632753593,215.299218486598,992.898055213356,-208.40838316591,288.34645810911,-72.1282251121114,437.816044798285,64.0388309664451,287.965273692077,-14.9313911759704,455.216288987165,-4.93845850815341,1965.21493223029,88.9475379438067
796.87894986128,-99.1912182641297,339.831320246647,-38.0759598718165,254.25209931561,8.21975687775208,1398.78578221282,-186.69349571247,269.263458123099,-31.5218971665199,396.898079978859,46.0243421401281,1051.66687909665,-17.6754521394785,822.623435489055,-95.656747220084,864.298566748404,212.60953176352,1003.19950600787,-210.980065631452,296.681491697248,-69.6545844689132,434.757400311781,65.7521187591247,300.638930204013,-25.3217757312805,457.749048398537,-5.35951357252904,2000.00819225704,76.1514397398771
791.716040976621,-100.267928055721,339.426786726805,-37.7719290113952,254.535814670449,7.95462935391912,1391.35036856397,-186.936122394102,270.771532121242,-28.8845214717077,389.785010477658,46.2195858909173,1032.44727685639,-13.9321631869456,816.653681554661,-92.20850771237,860.258670984153,212.837796489103,995.653647855804,-210.223108210955,292.31180633943,-66.2344390610054,434.516555390224,64.4102946270709,287.598242101665,-16.2944575194849,454.741132612494,-4.79221174036568,1979.7770863275,78.9480631374789
789.727901549273,-97.9083470175004,348.391824033175,-37.072236405553,254.3895033044,6.46961688668675,1391.23773486647,-188.289727932152,268.720813578739,-32.317282210287,393.123441433173,45.799934251743,1049.33535666311,-24.4788738316365,823.805655951386,-101.788756593375,863.325935877181,212.281444035042,1004.56532381344,-212.040015502377,292.771253477865,-65.187917082034,435.230677646742,66.6206197667129,284.147626009663,-12.0507780551009,456.325312737745,-5.14758837209063,1986.08471523617,79.9735375052563
800.813511548449,-101.829478457373,347.306327888293,-39.3743148285615,255.555244026815,7.65138168194171,1398.5920828817,-188.408559953377,270.854705778445,-33.8061330044227,401.507185745112,44.715948124384,1061.49653449298,-26.7003222598006,842.417829638859,-101.380349243783,867.707248423093,211.483570273721,1000.76169167694,-208.844068948978,299.900928326069,-74.259080784671,433.519014187899,68.8984849467584,293.818855243028,-19.2898112459363,456.568321314912,-5.06367508883591,1985.06114713235,85.0360784090897
783.723378428234,-95.3805049671843,342.70604608055,-32.9457659491356,250.764996203992,9.76365141532485,1382.82497468677,-183.379565595879,266.520013576438,-28.9459049339426,389.575130471208,45.4671468648325,1041.29334465415,-20.0577289042443,821.978635943943,-98.8347919781943,860.201558329996,213.480901588964,996.66763340267,-212.34694337951,289.683093115012,-65.2174705197058,432.775839904946,66.3350231968727,287.149880794627,-11.6999254941487,454.146350398573,-4.43819778464063,1981.06464634706,82.5096998250457
787.099857118334,-95.8203657961681,344.298769541186,-30.6212629945306,255.094601816408,7.59552690153791,1388.92016785496,-188.206593089016,275.862512176897,-40.6312689185216,397.310154257463,44.8046292956852,1051.90636448391,-22.9595408180317,818.931955958653,-91.6768986035898,862.394987972288,213.985356609303,1008.18910894295,-217.585277894289,294.987389870398,-66.1134321166193,429.497212413594,70.518812045714,287.701538569327,-13.5956972714211,457.75618729667,-5.57462633371777,1990.87412559406,84.5570513789723
793.676250774774,-98.8475887113071,343.005003832535,-38.1392378903571,255.647042443675,7.46593085445852,1381.48510921302,-184.163782317846,270.731623479513,-29.6288197854431,391.052074904783,46.0970708563558,1042.53187871018,-18.5375620492363,823.75041478352,-97.6694474397323,860.005999164799,214.081301608255,998.703897811234,-213.186674135067,279.666562425774,-60.7465369275168,445.195349121086,64.0889359165233,294.598308772747,-17.1767856180922,454.544878833023,-4.26104337276212,1978.3844420938,86.7478414851475
783.515618196237,-96.5445468996479,338.565715125562,-30.1238502315497,251.955764750687,8.26717428260479,1376.75306241332,-184.23174081983,265.891047125338,-30.5618001947847,388.765452765459,47.4328488652024,1047.06524200508,-22.8954673755706,814.773569436428,-94.1442013970919,865.110687451248,210.00830214359,992.99448099051,-207.818396371146,289.421696307804,-67.5724275014096,429.736765597014,69.699234068222,289.066203206785,-17.865624640069,456.324389054304,-5.19195045878661,1980.98969157583,80.8765111614273
790.334972354719,-98.913891246078,358.877603422321,-39.188566982652,255.715733191708,8.18312798183746,1383.41472039802,-187.751328724921,275.163140601436,-33.9564447842429,398.984031317034,45.4611703600254,1054.40043040594,-22.6625038467763,828.735527958432,-98.0846424438328,866.347577638129,213.835593348124,994.305415177173,-206.326947341308,291.959328349296,-68.4155699356942,432.222148571371,72.0869711463887,294.782749593476,-18.7393405203688,459.301606440583,-5.88399950891076,2002.52610379048,79.0830990922416
786.820611435035,-98.9374126906048,345.43567492172,-39.1506441287576,253.024584926663,8.3095323866951,1374.51999065505,-183.672064331846,278.407287097865,-38.0814360347435,392.101603630833,44.6237840616825,1041.99462539346,-17.2485131540499,814.126460411014,-92.1425530982613,865.561801140986,211.147490282295,994.846155673498,-209.514892660255,284.300889812652,-64.1798670229458,428.325811094354,71.91672009317,297.866448080242,-21.0635962722015,456.833342655361,-5.75140998326074,1984.76314870892,80.6673355732384
783.360816652228,-97.0311264269891,348.173379095749,-34.9869570797119,255.296943146983,7.15747931836518,1374.66918743432,-183.583452647328,283.038784456561,-43.3667223536423,394.106569217391,46.5618185628727,1042.15281994578,-18.4256167027815,827.831821984545,-95.3793359458011,868.642653979986,210.644143629606,996.70813989246,-213.545802755093,296.271110059294,-70.4846201153292,436.233464378257,65.7124448673873,292.063178515447,-19.2976775508372,458.258679928572,-6.0526214103966,1986.09106028167,84.5589012726268
793.657465323392,-99.1668143564194,344.424991308458,-32.4748639274634,258.163197948345,6.80099275444639,1381.86061427364,-185.397325597893,275.375917223562,-36.6348786890948,400.459455593588,46.2701996364897,1061.09145000753,-24.7008554553432,840.822916196003,-99.6091144747929,869.724490169156,213.870222781605,1002.60494705708,-213.126941328109,288.201174809424,-62.4790592376343,444.339010290917,62.3764363482379,288.596413067382,-15.2012677219192,457.030819801239,-4.92199939762782,1994.05079819173,83.1189469241015
783.058998906453,-96.8508955292226,336.285958904438,-31.9191335154119,254.679850276028,7.7910492537191,1372.45287286505,-183.703712889213,273.827555992727,-36.235877622557,391.629654835747,46.6733286013539,1044.94520051073,-22.2938542239405,814.711532760092,-88.6671672054188,865.082172320211,212.201892785691,1000.86301200871,-213.958035891867,295.256085920735,-68.5059803637768,433.872119252503,68.5555894211115,287.897727512614,-18.0609667178654,456.302061329662,-4.78741298087537,1983.08233917586,86.0049183305121
790.325321308445,-99.0347192328015,344.668276521822,-30.0430906039409,257.06293091442,6.89910044514579,1376.98137886273,-185.029111710642,272.022612205295,-31.3174494263078,398.242940038607,46.2919370266532,1055.95052988816,-16.9349962695819,834.51245910478,-98.4587015063776,864.216420935246,217.179128469227,1007.9553664946,-215.01443610959,294.539190075687,-67.0086599490641,440.614377170427,67.045110473559,293.969858700767,-18.0385249659109,459.317913918023,-5.26532252094155,2009.61714656182,80.5436026960495
784.543080685942,-97.882902578472,337.124800160812,-28.4598821479492,254.573721564734,7.66623254609515,1370.16529764928,-184.028235411178,261.797328599012,-27.0485475093674,391.537527346613,45.4643562756027,1046.62164482687,-21.4181231941509,813.353269065745,-90.1223054177764,863.057364292977,214.196899180057,1002.30469614574,-216.023561034474,286.526635042798,-65.2961336345007,441.732725267898,62.6018631090471,287.600906281395,-14.8414141251002,455.372567806146,-4.73762693981131,1988.75660571317,82.5796302324679
784.257044439216,-96.730642427243,343.746090354539,-32.819023207119,255.227051664902,7.40638783380029,1367.34888578363,-183.529692967805,277.949628101562,-37.3655870710533,393.320678304378,46.5541780099522,1046.2159822627,-18.9089843016407,834.934208018563,-106.12359061307,864.49823661916,212.782994080215,1001.27825639043,-214.666415887122,286.482039319293,-65.232774260531,440.957889460831,63.3252362578484,287.119241921097,-15.6143424215596,457.411798853726,-5.4085067669545,1993.1496468902,82.0850062416092
794.147927943798,-99.6043184264348,354.34247594068,-40.9438199580044,257.504108294196,6.89853614813631,1375.15835047467,-185.254867428824,282.671855775244,-40.1776225962384,403.042981520453,45.1074411531726,1064.72925613678,-26.5293116506368,838.134079055227,-100.476683428614,870.22934393673,211.485986703347,1008.10096553667,-216.711029387427,289.036141385053,-65.70236981389,443.473771824085,66.5471436717217,297.138862935303,-21.1855159544455,458.425313679242,-5.40710583276055,2000.02475165308,83.0093700410093
781.552811365484,-96.4569113753494,347.167044388762,-35.3291899450959,255.453917293514,6.91966052023866,1363.14756922777,-182.927382810284,269.763447220993,-33.0746103655937,389.312371244786,47.3471994557215,1042.32808079851,-20.7940151395132,813.596787259513,-91.6653802936761,862.244828884457,212.110787273961,1000.82329863837,-212.85602731214,295.108871285348,-71.4916908318652,430.352213116204,72.8771338143217,282.261857067122,-9.97964253444245,455.754709428726,-4.66883715175606,1980.34971764745,84.9603141358781
788.784081349866,-98.3290653255626,339.443982147117,-26.677443438567,254.474736199503,7.77610256947548,1368.04506623579,-182.817998853576,274.811372009279,-33.9775510072881,397.338110804558,45.6148451926082,1056.33350990508,-27.7241289840523,834.64286207323,-104.176280492015,864.813152026706,213.227847399875,1007.03775734789,-214.405600277096,290.044859996778,-65.7843647950541,444.990430817504,66.8695095347391,286.844499867193,-15.7185199235273,457.946067733802,-5.06040043626182,2009.20805356472,76.1498384331612
794.745957094222,-98.781466562146,346.031836708954,-36.9628427211639,258.928405032015,6.25826901339119,1372.43309347561,-185.406523296184,272.417873285358,-33.6752033087496,394.126473913948,46.2025896374511,1055.1360785088,-23.7286547479339,841.111237588809,-105.815493860823,864.615336632059,215.297610669329,992.605349645824,-207.964465926012,294.762300633749,-66.9845693101914,440.289758493767,66.8199153474025,293.707902545239,-21.2379870653545,456.49302510199,-4.46321895457053,1989.27870846829,83.5778617452858
783.27715746777,-94.9029485797507,349.31834772317,-33.9286579935115,254.02327030002,7.97058839824613,1362.46053229559,-179.503058506054,261.385967128572,-28.7700808624725,389.0373783976,47.7196122689521,1056.275967643,-28.7531861296739,827.841728677702,-97.9671314397157,865.226222369489,212.301050853517,987.753821196149,-204.142585333509,293.625835080912,-71.6720196180846,447.427146976353,60.0617479241383,287.446264787358,-14.6809405534705,457.074182509257,-4.56250923244034,1987.57025551727,86.8568550839981
791.906260421299,-98.6912009317549,346.300949867364,-35.9782034901909,255.4378076575,7.7017947144404,1374.27991828193,-183.751656845656,270.703464464377,-29.967218360596,396.813242046727,46.8265865132349,1050.60936024143,-17.3543509329333,838.342074442589,-98.8564725293962,864.181527285219,214.181331147251,1010.7241974507,-215.609881792411,296.317914185406,-73.0284346387564,434.68324994748,69.7388350533691,299.725411867731,-23.6717069690942,460.174631709543,-5.15157562240863,2004.45123960737,81.7346225033529
790.660959708273,-98.7470667746391,351.709842035426,-32.4183621198387,256.787685609782,7.16724359386091,1368.42076541896,-183.71754225579,274.710862630897,-38.2446254639836,390.240118075293,47.4893935750131,1054.56517593703,-29.3011717335722,828.470409811809,-96.5762975859899,864.765908112192,214.376841513483,1006.63659971641,-217.505644779047,296.499424295869,-71.3075650658089,432.917474404878,71.1575408514025,290.896232614447,-15.8976268289655,458.112065378233,-5.05782282932013,1986.24943975847,85.2402272163984
789.229362845294,-97.8010702689942,348.052726963281,-34.3302113672423,257.679744948913,6.9381579637378,1369.59088145798,-183.064474889214,287.14706359659,-43.7260653394519,394.383478159428,46.4486857407374,1040.41378234974,-16.9348906496708,822.251346427884,-95.1936994248648,867.768079406977,211.146568994447,1005.41008859608,-211.932267569878,295.837702969981,-69.0075255115678,436.082954809101,70.3289974463405,289.584458068275,-17.5545057896166,459.13462868343,-5.48863186691691,2001.44142798566,78.9039426952033
801.381672056934,-101.300209794499,347.690464791226,-37.5831120898202,255.821070183258,8.43382375025932,1381.12899528389,-184.617479060103,279.883060718863,-36.5823537336124,404.394142923962,45.2797681627263,1065.7912758156,-16.9014300907928,849.423593678394,-104.827380642119,871.850780086132,215.022258492086,1017.77672175356,-219.911013390277,296.911481306343,-66.4106560705516,442.524516481585,65.4704972648959,295.438463951508,-20.0071925583114,461.278867711528,-5.50429937497287,2017.03676215515,79.0756486634986
793.221508542408,-100.174543348384,342.831245796909,-31.2687817672249,256.182614248188,7.6445570001696,1372.21287227498,-183.394006018542,265.666183556475,-28.7014764502491,394.076025901837,44.9019886179405,1058.20912602354,-29.0407594286122,829.227431270108,-93.5039272846388,865.846350050117,213.111592162393,1011.50013272271,-215.520720793155,295.874628501806,-70.9919864916987,441.935986529664,67.4105153882207,290.107224015561,-14.6590006843214,459.250872286821,-5.59578746960081,2001.0601645446,80.1766114956342
795.491255791709,-99.4352101892744,343.906234994671,-33.6867708738322,257.91838665414,7.02386007732473,1378.72036987483,-184.691526314775,274.411336370896,-33.3188273964751,399.765088802071,46.4844385082528,1058.60596666112,-17.74364390325,839.230217839684,-96.3784497132572,873.029168845309,210.580130907904,1015.37664191753,-218.656381468926,298.616787894818,-71.4109454433675,442.130290433578,69.7315387701096,300.465560763894,-22.4063498438245,461.343625782669,-5.79843770184881,2018.71628962575,78.7467965626012
791.19299615425,-98.4780109821527,342.452653971643,-31.3959144597191,255.916625805841,7.88812896149432,1373.0085357622,-184.667187553239,273.624680183869,-36.1181155302509,391.929766334197,46.9713056753402,1065.68609252097,-27.0502668957098,836.676697438204,-102.725884286943,866.312733274543,214.467121522224,997.01755483577,-213.011627435829,298.818953328874,-72.2415512878266,448.122321464111,64.2351807042747,288.837137740382,-16.2093116853989,457.32738991224,-4.17987783654772,1995.72184301446,83.7860202509352
789.893568706911,-97.1344232816391,339.268264584283,-34.0061656924416,256.763692292525,7.4438224516907,1376.98661808069,-184.650962496168,275.52881023999,-31.562798181885,397.22460854792,44.6657085384156,1050.14334796097,-19.7825629515824,825.484795189843,-93.202201630633,865.283334809841,213.531191419222,1005.64499573475,-213.043396781642,294.691221171202,-69.2187921105153,444.489754560969,67.1846407726419,289.577918233964,-9.41796747350483,459.714556043104,-5.37380689602255,2014.42394651833,79.6086666227937
800.35490871165,-99.8892880891265,351.091567676978,-34.8269647717745,257.250848375994,7.75506922645879,1383.45611609102,-184.260415770469,289.176933861541,-41.8194628669965,404.219719932172,46.0091533982578,1064.805183939,-21.0000314798173,846.588930820598,-101.056545722782,879.729954200715,208.021478940474,1010.41475490419,-213.568850163017,292.466557284179,-64.0241476735781,447.175731928175,66.8409682710463,288.801824237504,-15.5394775944319,459.755377131766,-5.22044037164077,2005.98796639203,84.1929337358734
786.018359862452,-95.7413760283011,353.495487198146,-39.5804873786902,256.108323311648,6.85789718144692,1371.94242412001,-183.080609506563,277.588410112296,-34.5286224329931,391.946872530721,47.5717662015843,1063.31422934493,-25.5764075299395,835.666804499045,-100.768984713519,864.466486119337,212.753207554843,1002.95302881537,-211.321704566145,295.434177131956,-67.7872537261209,435.380776476833,66.13897175115,287.585206589667,-15.6777149254861,458.666222186378,-4.83614334461833,2000.43999137653,82.9563402548307
790.537625985882,-96.8369997964406,350.206030265547,-34.6622878466807,256.669250528498,7.60489227383205,1376.72190451389,-181.749390685944,271.567063604258,-30.514905579284,398.597060547988,46.7955966905766,1058.36745280172,-26.4534581672014,845.352748020067,-103.537013041175,869.090425000515,211.46559243926,1008.7458773199,-212.625802584542,300.8550230481,-69.5299061892911,446.016245158078,61.5402527491144,292.591565500305,-18.5722042562366,461.838275534563,-5.70707620140755,2015.59203164086,81.5868383163842
791.977593080117,-98.890917167002,355.280755642875,-35.0109010813277,257.019010455427,7.19242719661041,1373.69260684451,-182.028627067487,280.538716766992,-37.8035489435321,393.899574614352,45.6524037612754,1049.1127768202,-16.8922114395649,834.843806353965,-100.027045281928,864.525937352265,214.100291170286,1007.57805464936,-217.702423329762,283.328511704077,-62.5262833319661,438.069429507573,66.3472842106317,295.597465250495,-21.0320388330485,458.88508756007,-5.14834700408422,1988.07837553532,89.8199605344875
786.590284798797,-96.4036774843639,330.297673979792,-22.6075019798134,256.41060665857,6.7051845376072,1371.44674415582,-182.040735727497,280.951169026095,-38.2798026306621,392.734803665498,45.833859196141,1051.57137950584,-26.516604976677,836.807176475793,-101.169808622588,864.541084278058,213.238602671146,999.794102053974,-210.117131077843,297.638791297793,-71.615382230259,431.848799862941,71.035997649686,289.709720657069,-15.2806227574238,457.805891185261,-4.4929844516009,2002.23991186458,85.0155937684625
792.845097027756,-96.797619016893,352.998238291405,-35.0780697678826,258.779432704565,6.99886124070563,1379.3010562798,-181.948713417834,276.168158623961,-32.1026204719111,405.507488675551,43.8793011654187,1060.40126517867,-26.1639294032694,840.728702346976,-99.4374711659739,869.394530744675,215.460277091711,1017.91359838119,-214.111373392706,307.900670067739,-74.0110071710236,431.609184233985,72.5092925697144,298.502564116383,-23.2466634408172,463.262849012479,-5.67309483802178,2017.12387220545,83.9266911421082
784.903155620623,-95.1174995597545,345.851945638255,-29.8305811886118,255.736351575409,8.02486235546623,1371.5497917175,-181.422482308538,274.295927096136,-33.4485316663428,392.954783039295,47.0895458829739,1052.70577566918,-20.3348304379896,834.626795011202,-98.2652310339431,863.904036172218,213.282929038731,994.512501397919,-210.277630306896,297.745735367431,-71.9936062885615,430.3476584207,73.5033539321483,292.78191816967,-19.5453969339076,456.967527628573,-4.39234829401142,1994.54708141514,84.4672645289621
785.396159422888,-96.7173126857746,346.531168703504,-34.3188563537387,254.353093882319,9.27749652264993,1376.4324117206,-184.65160733352,280.613177144542,-34.5434416386702,397.62555126187,46.1210070221582,1057.15278133675,-24.593564654363,840.139814246283,-100.540660699183,868.953992417441,211.38185594748,1007.46176762454,-213.696432625977,293.883950932942,-70.881786353652,440.077212960998,64.6210063382894,292.499423750724,-17.2760025240062,460.002107814414,-5.0351360313098,2003.60903041077,83.2570066054256
796.492153995094,-99.3001527144406,361.553084238642,-44.8510077337644,258.65600796706,7.08928061899389,1384.01442971013,-185.325013374756,274.435510010397,-32.1861160491853,401.32082748101,46.9573516601634,1081.16841000987,-33.2126856235651,846.745634578422,-99.6612476942194,872.092279516813,214.420393905202,1007.3881822968,-218.672783303181,301.995187646519,-74.6647278051048,430.661404941649,75.2698089600062,287.319133989103,-15.2311069771835,459.230595052079,-4.73413424663548,2000.50339970029,82.7338971240575
786.392795565695,-97.1342885377835,344.402981841872,-34.0490656829968,256.990710291746,7.38901752618822,1372.8543115778,-181.78844247214,279.174605392266,-32.1369387438188,396.158426238736,45.378989089366,1061.18150077403,-22.699588622482,835.683765288798,-100.227764218229,865.555804636813,213.94775143104,997.409539206245,-206.876821746052,290.345881419419,-65.3456657059273,442.694501688213,63.4579470827729,286.94718243362,-12.5697602229479,459.765964356011,-4.98751235581324,1997.61295657084,83.637367654963
790.787910059784,-97.1582236107088,357.683231885045,-41.9347595742087,259.031142861957,6.99526236310049,1380.26688385184,-184.705845723531,287.323455212026,-39.2289802484471,404.777325418953,45.5968797588647,1073.07624327005,-27.8299359749456,836.837465415278,-98.3385743749758,869.799820363659,214.550727806461,1017.34412994112,-212.642985027037,294.874298682069,-67.6898154244024,443.955549050956,66.2512743549941,290.280003250564,-15.2358652340294,463.946602043838,-6.3777224358377,2021.77439191959,80.5940024264382
785.548190207013,-95.9731071015914,351.98451597375,-37.0609389442988,258.696526954498,6.94422045918373,1372.58041562973,-180.565851805828,270.528134222767,-28.9173713106201,397.947486267058,44.6111225006808,1059.23280220244,-30.5728825003169,836.568224550667,-98.1470479600602,867.250229006716,212.039970406407,1007.44223627614,-213.733742075322,295.10118385066,-69.8209354075132,441.935551977223,65.3003809847172,295.405033839196,-21.341407098149,459.435255382282,-4.807371938548,1999.68633361569,83.8154462436515
783.912944447434,-95.4178308609844,345.352061309782,-35.9202875739483,255.490798637872,7.62144019510476,1370.70581353084,-180.11330897179,269.785425772508,-30.2442151950636,397.565864282735,46.3143767678447,1063.87822581983,-28.1367802039374,842.964590367142,-100.62781696909,861.642859340458,215.503515830779,1018.12808758038,-219.404072270892,289.106068243428,-67.0011617077315,449.48729872121,58.5637424609796,294.744364690183,-17.2463123607897,460.000642233203,-5.07755908075769,2003.41255907494,82.9760324685034
794.601258819016,-98.4637838432503,347.587643510283,-31.1221406748299,259.304058492742,7.27320144960203,1384.96869149567,-186.139138918834,282.334872071454,-36.0529022516153,408.088127638223,45.6718515084674,1079.91591588369,-27.064230318328,845.407430983294,-96.5871857703717,873.553388446917,210.887545142327,1010.75697286159,-215.419227794604,309.135696851497,-72.7512176457254,447.177506116301,69.349065797729,286.304912892839,-14.2959400223882,459.618577606016,-4.91786564642052,2011.807835217,79.3073307925748
780.65862894324,-96.3773789404476,351.565165260217,-33.5995024040256,257.579685211336,6.21657435927322,1368.87297299745,-180.005960657133,273.18799040689,-28.7777033611587,395.3662675537,46.7051610314406,1064.59894113165,-26.6845786926889,832.396299345592,-96.6961528494904,861.428459340603,213.0395972266,1005.62730680302,-209.72291049297,289.40279989897,-65.0038794956429,443.302560086974,61.0034931837604,292.762195530387,-15.6490942371417,458.691527487163,-5.11262691464518,1994.20025724441,85.3670502296558
785.008169638886,-97.206518963197,356.054840458585,-35.3663600880741,257.029949122779,8.29063312373076,1370.61745302501,-180.938637068218,285.68077248171,-37.1795628545608,398.09461724059,48.2586864601089,1071.09356436989,-22.0733916882262,847.261457832402,-99.7032965962787,866.975741651293,213.415263304136,1008.26219805421,-212.171889464847,291.759022569555,-64.9489515597228,433.764754570363,73.1991953444005,299.475684396043,-21.1784155023131,459.975630531399,-4.64921660802724,2012.49174328206,81.9269680677919
783.683842473433,-95.9060935958166,359.18322422028,-41.6346200615527,259.686394071611,6.1700807850727,1364.45294086348,-180.018231167898,267.363320765538,-30.2629352144915,393.454763666663,47.7893295348809,1065.40071615895,-32.6087494753075,844.53517188681,-103.209233668574,865.4703577781,213.029288808799,1005.52850214743,-209.933144299977,295.24027867859,-66.4057075008369,426.272045775173,76.6955396204785,287.248431603494,-10.389181396079,457.893520863262,-4.45592003765324,1991.64503387647,86.1243680936427
782.200763926552,-96.8340102615329,351.47601192705,-41.1009203786977,255.186591394348,7.77653980071311,1361.8515941936,-178.635974197812,273.592506301299,-34.3615094862426,395.198348601826,45.3947824731564,1061.93974040287,-29.8455012636248,833.722014322145,-98.5257930401102,861.388069512626,213.092256449276,998.82208074419,-211.254547926486,300.610996419632,-72.8888695299392,437.342459401735,68.4707455222455,283.604462058777,-10.2021596968368,459.782917625544,-5.44624614253638,1992.25958434303,87.4504432999341
788.039744683236,-97.5254809936179,345.112379456352,-30.1859781114355,257.448848731528,7.4953382484449,1372.20745330647,-182.080181129596,275.031231423244,-31.8230781226994,405.046740718097,46.057589321129,1068.58537482079,-26.5484074739955,848.224885518788,-100.634751620821,866.673206851509,214.947518721438,1018.29707194045,-214.674296808568,303.705913405419,-72.8912547213523,434.947964961658,73.5664602103347,300.356599170012,-27.7835242602628,462.417976436832,-5.87182998174862,2012.61573863834,80.1072368939058
777.624929540352,-93.8462354139692,345.718266282219,-34.8815347271198,255.268589290722,7.16464249502112,1356.4889003678,-176.281458151418,292.444588284759,-42.5871483620002,394.314319592897,46.0857859888916,1063.92350637138,-32.2691303616377,829.950621867738,-95.9116921621967,858.871599636162,214.511098531642,1006.94304035439,-217.193512902919,305.964169144047,-76.7825271760808,440.429151061885,70.3085227761106,298.764739197043,-23.3704182241181,458.029227231101,-4.71770437407925,1992.41857973511,83.135797887786
