734.685998830117,-90.0516012707879,344.204150769977,-28.9166718595674,252.049049220496,6.54758215290377,1259.96319284784,-167.273479733678,278.004225075262,-31.9213511538217,385.512129534669,48.5882195136859,1041.98237364199,-14.1514848565758,840.569976665434,-94.7628503709092,854.239740313574,204.390007478714,1025.18848785122,-218.622603885922,297.910361164542,-68.4770624593404,428.595351679098,70.9223085707977,287.012789537317,-14.0003693426389,446.053843140719,-3.02317835444344,1959.41813604836,96.5212029884449
742.869631868318,-91.9818736187014,345.325583690473,-28.9480348899407,252.35115817902,7.16989510240033,1268.13058394844,-167.561812683516,289.139461845017,-36.3690394056487,394.370594035466,47.3852889034157,1055.83140089112,-19.3952094108477,847.372314414599,-97.3269177423517,861.013100791622,204.375591857488,1030.94929488104,-213.071573685109,297.243330673504,-65.7283748195898,434.185046211722,68.8657490544649,287.00744843026,-17.1996796310307,449.76749796555,-3.76973693290292,1979.29666079693,93.2113229470046
739.22656713489,-90.6925113427257,350.887660487617,-33.5905115644234,249.673426422201,7.92567231435668,1263.50614607091,-168.881636740651,274.389053866065,-32.2469888692334,384.261648207561,49.1617240854145,1051.84187392404,-20.9046442993836,832.498394327608,-90.8881990474126,856.424075132225,204.416375468137,1031.39213133091,-222.002212523089,298.811775924456,-69.5725552210398,431.239140827068,65.9199599370749,290.192389625869,-20.229996802202,446.031328840508,-3.16377970579679,1950.95058945521,95.1432559743602
735.545691859351,-90.1211556127535,363.213430346195,-39.1553380358442,249.826635180807,6.90901032551771,1255.78488024875,-164.08425102657,281.648962332389,-34.4713568170586,385.176634938393,49.5303557485891,1033.45527551269,-9.9462285240927,836.730940056241,-92.9993887535185,850.112448177961,208.499658976777,1027.45934054381,-218.499942845801,298.324988539157,-70.5927210747632,417.860322903721,74.5918911955586,283.329230357585,-12.9942887265673,447.14433339039,-3.30381869280235,1955.19437142431,97.7498476702999
744.570586074827,-91.4745010840583,360.127067915346,-36.0176061619644,249.563749742933,8.07011214323504,1267.54602134832,-165.680704107322,273.923954728442,-27.681138130831,396.395659394709,48.3920775660414,1072.76296410736,-27.9195403583441,862.33267228601,-106.628095280955,857.847867388914,204.861236057184,1034.42182354886,-216.747250650092,306.977817529054,-76.0700786564611,427.925732217756,70.6246201304882,287.239730378594,-14.8668685333891,450.431152138662,-3.92092989419691,1976.05316172433,96.1658143066688
735.926229663786,-89.9632814557758,346.392313913852,-32.0730524749446,251.038884846132,7.54954013229274,1262.4321168523,-169.528242477767,280.701491286949,-35.6456312444326,387.246568649305,47.1846249696992,1058.03994275429,-28.5308793078197,840.089194013094,-97.2047957585791,856.840050736673,204.949326697728,1032.78326897687,-223.816019363429,290.274911788528,-64.3299266541581,422.855206727476,69.1435858634354,288.469009435211,-20.4453299030937,447.684274063282,-3.76477363207411,1951.44753267545,97.9799204158284
738.550349175691,-90.9522402762776,344.747995486937,-29.9007498428163,250.048638623081,7.15561915878808,1265.38940859201,-168.14640542166,274.68971171223,-31.2897745053514,391.287927326294,47.5460539535928,1054.02055676468,-22.8855153715189,843.300719247445,-98.5187991277179,852.546499592234,208.24473954861,1038.40134866997,-229.59199495039,297.017866609313,-68.7929951227802,427.567809069052,71.6571228466732,279.370391898625,-11.4109001365664,448.921174017101,-3.44884679714166,1957.12368954442,99.1556184729596
750.156762336035,-93.2633227555226,346.326741423075,-31.5610280115246,252.556224033043,7.42830501299674,1272.10715842939,-169.110070586375,283.908703903679,-33.5842926451017,402.890824249291,46.5230244122901,1060.7778202637,-16.1069744378096,859.769368222662,-103.843159001737,861.468894696321,206.767571756718,1036.61557708257,-225.022181084101,305.433506755518,-67.9688560917033,427.240860026968,68.6608546642442,285.165176086645,-14.905910483977,449.538113560511,-4.49455334859781,1959.42402022384,95.5791485339811
736.135396772654,-89.9701396327635,346.64262905745,-37.6932825029934,249.590230841357,7.95972698271763,1261.96171509386,-168.101030979572,276.845735359803,-30.5254233845364,387.502892390402,49.3231243516965,1043.51036651763,-18.2563870933329,842.291509626033,-94.3527554393198,853.317148581399,207.843961802698,1025.66734392788,-219.643705911901,300.660846106903,-71.6435910422573,420.995605623183,71.5668496981748,284.902385604766,-15.9299342600308,448.140469658334,-3.69973221390598,1951.8919508457,95.9464987047042
746.024471001179,-92.9721547076739,347.346918946043,-31.4861346348558,250.409132933096,6.8545520187763,1266.59162336013,-168.724801649149,291.185318843016,-38.0269137256285,395.526074545761,48.3269716568787,1041.76892667582,-5.35202686901626,859.5594212663,-103.448748327547,857.023160170794,207.155631283174,1042.13208509208,-228.682376768741,302.041510850788,-69.0532423275791,425.367297581415,67.9665045875457,290.466566580126,-14.9039759126937,450.973180607857,-4.06548241496988,1974.56348626682,96.0629711082715
736.702253930505,-90.5893639983811,352.030703888064,-33.6634354759253,249.681578945455,7.4054221339347,1257.33596770048,-165.122953792979,276.216589325813,-28.20718385648,384.876771078012,49.6948283997342,1036.32209706367,-6.42644669742397,840.258767831894,-97.8778971985898,849.677730948878,207.831197401256,1021.49927154843,-221.283106715569,300.87851691167,-70.9648577663781,425.531419502564,74.3104417608831,289.48445268748,-20.0325601850588,447.466348285952,-3.97113459809961,1950.01335996253,98.9461069483908
735.917220273457,-89.6989514306674,339.787439837661,-28.3491661213243,248.562695738607,7.91178194245519,1258.77470871948,-166.394386184978,284.133550133028,-36.9252574658125,386.897125904675,48.7690264765062,1048.11444623427,-16.8064335329858,838.642739199933,-97.5895092337434,852.807358164837,205.356886139915,1027.23351773856,-219.261726042815,301.513388982381,-69.3269520086894,435.369791107602,65.7689618479361,290.359726624996,-17.8889394188629,448.044082636177,-3.24177852109014,1957.26618425604,97.7678302878802
745.754763971335,-91.0823332035261,362.965809282306,-39.9097383598967,252.151427795923,6.55031219225626,1270.89745065124,-167.70191364708,282.383104673383,-33.3865902303545,398.707000334823,47.6212722209232,1057.01419954242,-19.0813553551251,845.482430063339,-97.1320242444413,857.524680180572,209.037114874194,1036.49202616584,-221.805491024567,298.42126073562,-68.5498712210711,421.95146323236,74.815164503993,292.2996267255,-18.1662431505808,448.85756965135,-4.04590977174412,1957.76788923536,94.3257393880011
730.839833216606,-88.9520472777602,349.096877830449,-31.4493079927052,247.389341735077,7.21729980067591,1259.85212400126,-167.390312032173,273.900278031909,-32.2708739939755,384.08734951373,49.0243786469807,1034.70087111928,-12.7011096718063,833.546804321955,-91.6988148506013,849.233204897002,207.191477697493,1020.06393249117,-218.648830443395,296.344748870378,-69.6763351484291,423.958892330593,71.55867666109,289.225527333105,-19.6573174792655,447.075635023867,-3.99989573977641,1946.34723479001,95.7196121198014
737.059599760115,-89.2482030296724,345.119485432594,-33.1163490038935,247.786954969114,9.22457633666072,1262.12892061958,-167.744585801604,274.96378405618,-33.0573995689665,391.029202840342,49.0103083216183,1060.45675926541,-23.5769612508089,844.299349097733,-94.6784006585166,858.130691995269,204.576954935151,1027.61043898435,-220.581813106072,302.780799104009,-73.2516054925203,426.156498548929,76.0548825396271,287.245227955262,-15.6078843341014,450.792218864927,-4.55756925977862,1968.09366978073,93.501522919985
737.113907433779,-89.5219911337588,351.887277850123,-38.2231295838888,248.606548686097,7.95930370788443,1256.5544812917,-166.561863444647,280.557407329254,-31.4910927824257,383.477013808022,48.1420230679496,1046.79556017174,-19.0335552897752,837.518609069529,-98.032302389308,851.675163342803,206.24175158157,1019.17394908012,-216.422918833716,299.379985241886,-70.838046041434,424.342741108659,68.4431407957821,283.299313007997,-15.8938673528899,446.620127385793,-3.64235674248382,1941.25166192902,96.3795580911694
733.17952258156,-89.2704366048448,335.024074681295,-25.9027464300628,248.193832889361,8.03577543052162,1256.51772291145,-166.8635519681,283.161934966822,-39.7605098940687,385.289713727605,48.7962601643506,1040.53409276322,-14.8555970005882,841.278364677308,-98.6531694049976,846.148164925533,209.909346763367,1026.38935172539,-226.014991766626,294.61557260391,-70.59248372069,420.569145213566,72.6787885189614,270.174864327018,-2.13074786875841,447.391070909747,-3.65840061163539,1950.8244916577,93.0205562536368
743.347099506032,-92.2760150926033,356.956092742849,-34.9750682351069,250.00016948442,7.64393021179699,1264.83882113781,-168.896509050398,283.0603582847,-34.4572137216468,396.23821183173,47.7497141574186,1050.22568638294,-15.633463271949,859.242003243111,-105.387331546693,857.566742386525,205.868529300762,1031.35331085424,-216.724074371332,301.919315610025,-68.4208209662298,425.699082338496,72.6295569898358,281.824243243885,-12.4771828980032,451.998152045528,-4.49026687565664,1962.26674401231,97.4357938212094
731.944476980071,-89.5847562647698,350.083156865491,-32.1755883783004,248.430453532249,7.66844765661507,1258.57788804632,-167.692380274173,279.138502431688,-34.6363015547651,384.057537947459,48.2900397520968,1037.5041139737,-15.3620587992379,840.090887871334,-101.427496679116,849.580686160152,208.551052257158,1021.57100921741,-218.848112075173,299.315152605015,-70.4390990764504,426.119798937788,71.4297959318143,283.60657300278,-16.0995545608203,447.645421287162,-3.64677571941402,1941.65501692933,95.8321666615985
734.911525007588,-89.8682747881551,351.248337231149,-34.5770022104768,248.007394785827,8.62282991969795,1261.68219715615,-167.760023626868,282.739871355841,-37.9889788217748,389.717107069072,48.3495016239863,1046.08270538021,-21.5052542756639,837.579488946983,-93.856112044406,851.959371249285,208.113695171714,1016.16245267243,-213.468672888714,287.419491276291,-61.5368515182728,415.296035147163,77.2844809322135,291.461679817487,-15.6245769788678,450.377189758489,-3.90992210975554,1945.62737470588,100.04067023736
748.840845989439,-93.5763047093247,335.287726067787,-24.8497256102065,251.000415333773,7.74757338744623,1272.47977981415,-170.556979984184,289.470923925201,-37.3140928277768,398.589977022505,48.5534393473356,1060.95580461778,-18.8086890024237,853.393939424653,-94.853272326511,860.745461711502,207.515629694547,1033.31721993671,-224.696340237222,306.619971279687,-74.478580988533,436.730923279457,68.4873378123861,289.512844168326,-16.9701811995088,450.796015869377,-4.75147671708795,1951.30590804803,92.2757894873279
734.616817122871,-89.9792505323677,339.197984215271,-23.8052687463382,247.85832722154,8.25605311131005,1261.35985633959,-167.786178024609,279.055558247925,-33.8750856692301,386.951645153851,48.6011098465598,1042.5265985955,-18.7960798237666,844.050152112622,-97.0376704979251,851.081190906586,208.442190199647,1028.75836500466,-219.87718748071,293.268182872498,-71.3720278278186,424.025246847346,69.6495428109679,291.748084485807,-15.948505283333,449.187739364948,-3.93503472610038,1951.4015529345,91.9970741710687
742.162084462561,-91.6741627841211,361.953687334101,-42.3259279390815,250.872622491642,6.67882380588005,1266.15896865272,-167.777568077606,282.277858244062,-32.4019549197762,394.969854980363,47.9024307138039,1057.4460099234,-19.2225430919844,855.118958409011,-103.656521398925,857.015911600303,207.599804059966,1032.7720433874,-220.936165282949,299.195012777424,-69.0047789205938,423.16534720931,75.2508640783468,298.205318244728,-16.2989805824924,452.025670156708,-4.04799064424803,1970.76169422528,93.4499260236191
734.54751019613,-90.6970978356327,344.857593957637,-32.7693066737566,248.658846583092,7.97011971302237,1260.74666368798,-167.025095484059,280.101731667974,-37.9405024468855,384.64522162023,48.1543985572082,1040.42048805527,-19.8661038113403,829.453232227182,-93.2207082732014,848.513110074372,206.612876430541,1023.21795847591,-222.957473801458,293.626050298691,-69.3967893898329,435.667434604123,61.5749106674346,291.252155931897,-18.9586458593921,449.466412373658,-4.51188368840344,1941.08446693717,98.9962063402882
738.014347072058,-90.6216489953378,348.428571076486,-35.403372755409,247.576630675184,8.10618694906283,1261.13712469479,-168.316997613483,282.253657637112,-34.4196276475914,385.67703314926,50.3357201851829,1032.8931421388,-16.3081239237894,843.208850719875,-101.137722630504,848.187810425048,208.583683036937,1030.16369255794,-222.515073646489,295.307163927899,-69.8478521361255,429.606350488136,70.7952755028265,279.275948131571,-12.570900165338,450.200923285079,-3.94477936805477,1957.95294374789,95.6901086493268
747.730853143253,-93.43454779684,345.372135257965,-32.7004778087297,250.205871000589,8.50055119463699,1270.61778412299,-168.612433181634,281.985408661277,-34.8554878830671,397.651295931326,47.5402709427523,1059.83734818809,-12.8401933488578,842.194193619949,-93.3886658767718,856.710989816185,208.055397470707,1022.41951535198,-219.825485944506,296.09465377217,-67.9316755698719,426.410318377247,76.5368775905601,295.758552306445,-16.7103627021976,449.062839512345,-3.8556909642141,1944.27006314781,102.453026091047
734.22752670996,-90.0619173140668,358.570746198119,-40.1322165499016,247.459120174448,8.12029791547633,1265.45511963485,-169.036849048498,282.627476466943,-33.8825942643087,384.93582782271,48.3837774231902,1044.48491654112,-26.9883385637103,827.354100233837,-90.1660678764729,845.479130235849,207.898251933637,1016.72671586843,-220.601312203199,295.358995231556,-70.0414828020119,421.590873731335,73.0293594421377,289.080394204812,-14.3581195633484,448.117072794464,-3.58485840938177,1950.51460045223,93.560451784892
739.676885533507,-91.2975684742435,343.852698854461,-33.0409877319683,250.029101085832,7.55227579586791,1264.01468380967,-165.568438907857,292.872862713133,-41.2295741692884,392.993352185258,48.1709049823013,1052.47585785515,-17.857802991728,845.892898152382,-99.5583565644661,853.58573965611,206.416668630806,1024.56324304623,-216.761739054478,295.253979975589,-67.4707275632758,429.79846863164,72.4100987791231,293.54935944826,-18.5825135861523,451.230414446257,-3.94979585710447,1964.50303736225,95.9029361621159
735.0585048906,-89.5617472831756,353.015417510984,-37.4733440892259,249.872082570433,7.98636038509278,1261.60678083652,-166.701594952327,285.770990045754,-34.9964095418312,382.874734797684,50.3437321182362,1031.80968055755,-17.5495805725602,834.098886207343,-99.2379616858845,847.865189732832,206.505262997079,1003.89344953301,-211.88044068665,295.605537228382,-70.5697760862053,430.005334507719,72.3885500906648,295.702078237192,-22.0152809491781,447.537011661749,-3.885910582897,1946.81965447503,96.2295668350899
734.622732666748,-89.1693277017923,334.199043880223,-26.9975782794077,249.482679743316,6.56198662041962,1260.84230664392,-165.993514578457,278.771933031595,-35.581367868011,383.858232375598,50.9484858586801,1037.81513839931,-12.4424495028209,829.733634494758,-93.6354220730408,845.510939044706,208.970505698645,1017.9528861321,-216.849036292833,300.64054735355,-74.2815403281802,421.628369119993,73.7019587749703,289.619891361403,-16.1344341695863,448.627350825769,-3.51353051674779,1952.21892069775,94.1352440163581
745.394238539115,-92.3654964231426,338.258489548836,-24.4490618039222,250.349728997382,7.59276853276746,1274.64188678567,-172.336276525029,283.251454498004,-38.0415282126595,392.638235034423,50.1249855853688,1063.31651429273,-25.1420574048789,858.277363510746,-101.15135027361,853.505861784667,209.665630101357,1021.74783631423,-213.385448170129,294.63385963643,-67.506042605452,436.77539887006,69.2057358154606,296.727783839521,-23.7044659813926,452.682778147536,-4.36477751094034,1978.15817248912,91.4271884654295
736.562295434025,-89.59735305336,353.152804976581,-36.3198508633992,247.585974271322,8.48428323467129,1262.1789820671,-166.476956367821,277.039906897398,-34.8909882897132,385.100412837192,48.8098338195643,1030.2925133294,-10.1745328036918,838.686743557568,-94.8642130373875,847.481193203378,208.821628233603,1018.07182730548,-218.946199225609,293.300050377601,-66.8619360677813,420.450678965755,75.7441617338324,287.628486570083,-16.3439773782311,449.041272547226,-3.84765332200586,1943.8412857626,101.741806595733
739.029612994306,-90.8206349625159,344.437240230751,-33.2302539689398,249.286387251741,7.93776626787149,1266.68431060913,-169.286953363268,277.735652428473,-33.3021260876062,389.812668834515,49.0179234316858,1048.09501861472,-19.9421294081935,839.413435355842,-96.259849121083,851.289504116487,208.195471067168,1022.58644992744,-216.94844017432,303.273670141483,-75.6212845947699,430.592960688716,64.8372806140484,275.916766462941,-7.68180281194894,451.707655090013,-4.23406263679721,1962.49264793993,96.2480035501102
748.626317031581,-92.0919630403173,347.303722289503,-27.5696707506666,253.089937281923,6.9548535729321,1269.92209773683,-169.200356367864,270.720108736784,-26.075305638025,387.980405434829,50.2376946450269,1061.80266913149,-25.3350619707918,840.666708807783,-97.5990188381447,850.896020678336,210.84158209373,1012.14539095034,-217.20821860904,297.56739997164,-70.5211625910331,422.023789932041,77.559749137853,279.864325514833,-11.619741842202,449.025989493584,-3.46832332831897,1954.64448899208,96.4864935510781
740.856441611732,-92.0121466868556,351.733645514388,-33.0713895944586,248.978094427046,8.31612522550983,1260.49538498243,-164.244392619944,286.741383053187,-39.1986359040924,385.902662401496,50.834453770662,1036.43491616902,-12.6277023369595,825.929134067387,-86.66782699388,847.608764378538,211.155454964335,1011.69188173668,-212.515221842865,293.302409964929,-63.5037583485554,431.717466714277,67.9105446133472,294.55844173589,-22.804404312688,449.840487725703,-3.88504744071495,1958.79278852074,97.511856937202
747.406708679566,-93.3030632994866,350.341213199025,-32.7938366207155,252.313055374312,7.60128110625889,1270.05547784033,-167.308880577361,276.054564418581,-29.5643062828562,398.41391646455,48.7050308592429,1058.8992589276,-19.7585277938389,857.453151407183,-98.5596358798989,855.23339582871,210.253593910631,1031.42730730008,-220.205716996079,294.590951018367,-63.4852454161805,430.374900768081,74.744194312665,286.943099001823,-16.2948311559392,452.788275192191,-4.27737744431217,1988.85716718262,95.3830286958949
737.900191752084,-90.6460017238752,357.802188378699,-39.6659787528567,251.373349020396,7.55659540719494,1260.67885682113,-167.855562395393,276.684340085547,-32.7450012238906,383.74794116951,51.252100983386,1041.56012186296,-9.9340309210001,832.973843620535,-91.9427500085348,849.155261691555,208.366477186417,1007.96525918711,-212.324650235137,293.986705641509,-72.118955510352,435.224941377042,65.3295875731232,289.912592866654,-14.4858300441739,449.124913892481,-4.13989615754572,1965.98245901838,96.8485958750397
741.369234765835,-92.3609491955682,340.478284700545,-29.6164179391533,251.767815822629,7.40084922428228,1264.63574618803,-169.371596390317,277.718215633235,-34.625168439146,392.395036153716,49.7097785346799,1047.5302045348,-15.4349848579313,847.405642017576,-96.5946857072368,852.875840101141,209.000669376898,1025.06689584837,-218.595165472752,292.704039496591,-69.2359926279235,433.560379529198,64.1641459385381,285.533457911308,-11.8855396556992,451.392033704769,-3.71358105805597,1979.47143084603,94.2984696102685
749.371414368388,-92.6564965026233,358.805946571174,-33.788605047595,254.275953847881,6.71306615663509,1266.28584762834,-168.859643211512,293.707035833408,-46.2054638495001,390.074938446369,48.9477903140829,1043.62520425038,-11.6863163455139,845.533292083872,-93.8771603536237,852.497415526578,210.181852120536,1009.19208024851,-210.992133344854,295.135512728924,-65.049522524007,422.249688027708,74.2734804109164,288.050551909932,-13.8121324752317,449.638643397646,-3.77311796191893,1968.45589946137,92.2401069412846
735.781485360884,-90.6758336443379,341.137978252828,-29.8511760571592,247.7619859992,9.18940057324444,1254.78392322061,-164.501143292116,283.224371125428,-36.3617007039577,385.674068727616,50.740726789843,1045.27544297947,-21.8419455369804,840.403944017439,-96.4337239401061,849.778696053652,208.659928639638,1002.7850277834,-207.149614121571,300.881802508844,-71.6155923994095,420.425535307485,73.845930751843,283.60730503114,-12.2529466453856,449.008635110214,-3.1612839029611,1971.95022940763,94.5269865186532
744.48021337425,-90.2740098479585,361.105228294734,-38.4822295844163,252.126393726674,8.13516919347508,1277.24866767695,-171.759398957921,280.12532227108,-30.2089354766573,402.005654943,49.6140152703927,1063.26576113743,-13.3700931465229,848.132343990213,-88.4250323786615,859.765754246371,204.310412399238,1017.35528913191,-212.416555444871,303.48068818933,-70.6921751727685,432.764151224586,71.8572285237341,293.053955290507,-15.4258549526252,449.773025919997,-3.65168956452866,2006.68273453539,92.468153897708
737.014548579895,-90.195792466103,358.130587056408,-41.1885463975188,250.46549136889,8.2748998815293,1263.18709986437,-166.690225631695,274.101273492307,-25.7023323154425,386.001270446152,51.285392422123,1038.23363247847,-12.6214213731374,846.284420808297,-95.1682717913016,850.41002275884,209.400507020079,1009.73485730676,-209.774464364675,293.537805704824,-67.7056461872169,428.871397777226,72.4618249634666,286.433711188218,-11.8142555301399,448.305408763855,-3.45833327404694,1971.64024137591,99.1591597150484
737.390988372298,-90.107527689677,356.717336148324,-35.5205257972118,250.557511051003,8.39269693432809,1257.01716521936,-165.431991666278,270.13515964988,-27.4017841458623,393.622662123144,48.5169604963829,1057.71463723815,-20.1138342437771,841.909356426905,-94.8887034674496,853.259719020471,210.522701470984,1019.73974353684,-215.011036805697,292.182550557435,-64.311006176387,434.106775379404,70.8577758230947,291.221673188103,-18.5963191019315,450.859643059406,-3.80155966322784,1981.75776747482,97.6461665753751
747.739585632442,-92.8718450387237,353.574777321964,-32.9247065840866,253.204514175608,8.00314014932284,1261.98434078169,-166.379120473132,282.673230680294,-32.9363310011593,401.478407449452,49.9224281902503,1068.96226453279,-21.2489741893713,853.137671923125,-97.4823068909235,865.122858585221,208.383219225158,1010.55613004018,-206.645512691188,300.856660453107,-68.0627119231852,441.635481286993,64.0177972068193,289.306816600018,-10.4420039382436,449.713765507791,-3.43865114395698,1986.79002565544,94.072653056025
738.113607292768,-91.8019170748625,355.579492385159,-36.7801043594176,249.075161140783,9.07127314943903,1257.59775887979,-164.785019680361,274.927409143042,-33.4637104764838,388.849383315652,51.0665291514592,1046.98329774208,-10.7571085008614,838.023397842257,-90.3345846082252,853.168413887109,211.292317202366,1015.81034004918,-213.987492106859,302.627957774436,-71.4200366297938,426.507334397991,68.1616553244206,295.795695984452,-16.5008435114207,449.173503627812,-3.66744665274612,1981.5866902849,99.7922259897512
737.028569226776,-89.450208064658,361.54462281176,-44.4001137289619,252.595504808279,7.41352309764734,1283.55072314106,-171.412758899635,285.477202853654,-36.1827723743711,398.3677652714,48.613947369478,1045.31080678777,-11.6861833585004,856.739179117023,-99.6714953632132,857.208769358816,216.579153495246,1028.72259115871,-217.883058291295,309.108265797853,-78.2750666995099,438.462093096526,75.42172962997,296.753282322863,-17.5330426524867,452.636536221149,-4.40858656455527,1996.25323782968,94.4740638252832
720.459674797457,-89.3455879347339,368.517075120503,-41.3688070669503,254.255300473183,7.17144176363887,1309.68742142643,-172.723308074699,287.563519632918,-37.6355384286576,389.802017113519,50.786566472673,1043.32452229751,-17.4328613771687,855.283830294586,-97.9432688263285,853.072517640085,220.963012883579,1015.11905873709,-214.943166678026,299.168157527857,-66.9197917513454,443.122286198161,70.4776477349649,295.03047654444,-13.398708836756,448.846782874853,-2.94410146678859,1965.78934324127,92.8945914785578
725.653271472728,-89.2214759231072,348.66415666442,-40.1403286980728,250.833892948555,8.73203107718774,1311.02419475114,-171.07430246021,280.364294425641,-31.5042815503143,392.763413546575,50.5110417544021,1038.23932980035,-10.8060958280864,858.967723744671,-96.2857258273154,858.122743596655,215.445093694978,1025.00450557712,-216.986253696569,297.629331776224,-65.3423014004067,443.373411873833,70.0474326109477,292.319743887718,-15.218926519409,450.945011348436,-3.58764161523603,1980.84744366826,92.9559673243977
739.693406774646,-91.2088066725369,354.287691501242,-35.3671782816679,254.965805129684,7.44204582223571,1323.16325022123,-173.909893041603,289.066423384692,-39.3092072539546,404.456326997258,50.4263700774181,1067.67731798336,-15.3521593913363,871.296429877703,-97.9188336164275,871.422572742406,212.317266075535,1041.25258422274,-219.408091262281,310.103514888031,-72.6041485844574,445.358893867839,74.9572696555433,290.544927806106,-4.52555814676735,452.022632113957,-3.74649274722036,1991.97902712021,93.5071880697291
725.100675701876,-88.7301909322567,353.13718520091,-36.322421001847,251.667185872194,8.07396077798833,1307.95048852734,-169.79849774598,282.882279733748,-37.9041979808203,391.447694674542,50.3731487601135,1047.92750557257,-16.4253699359037,864.480584815357,-101.597243069578,861.742554355111,212.700403799657,1023.48577314828,-218.024089130725,297.397958308357,-64.8897914567573,448.307149190212,72.1863136664243,297.962241402229,-13.3417472908865,448.732516324291,-1.94692932247188,1978.46343602886,93.8736225670252
731.555113077223,-89.2539312376396,351.64668428296,-32.4845954690479,254.193513408504,7.2775202277109,1311.35256325753,-171.347808854673,287.299340625388,-37.1634506890137,399.567102824854,49.9450466728299,1065.1147674268,-19.4487773068483,867.7134492672,-100.295589006436,865.546979887988,212.271274163198,1034.99805479479,-219.902255543066,300.546442005597,-70.0536168722254,442.46932559276,68.3227268129982,308.68861284496,-22.1862795583673,453.255786565699,-3.85706732607206,1993.09321134331,95.9600668849216
737.632508215857,-92.1519210356372,347.238649424758,-37.6099047012011,256.439517966953,7.73686840863018,1302.85651340531,-169.326289510763,272.468962058728,-29.5485546837966,391.963109060594,49.776771918691,1061.9287895851,-22.8922230910952,852.456326532502,-90.5882921954384,866.201046645557,211.052698122535,1016.82733361586,-212.462717045345,303.662099547706,-72.4521412334876,432.510777651259,78.7817639952139,295.70017194355,-16.6230380396435,450.01301506718,-3.12620549363792,1973.75706993981,98.7605910932037
728.22278943848,-88.7367682110947,349.969181020544,-34.2729335105844,253.285171678069,7.72809399632708,1299.7216751424,-168.309150738267,284.643737663541,-35.4780138124471,393.773103596711,50.0293399141002,1056.51029466499,-21.1390191582047,852.974924382161,-93.3397059887643,863.218145053582,211.460489116066,1019.93381969969,-213.588980693679,297.645161095268,-67.7472249554113,436.31804719654,76.4734680209578,288.30543670667,-9.96786947408742,450.000552053013,-2.69542818234829,1982.32506572846,96.3302559124975
735.768972247725,-90.7238838401972,341.586988006046,-25.7880488753762,257.677727156955,5.76814612745932,1307.62576475455,-169.806893459884,279.725908507914,-33.3894357040922,403.865238301046,49.9710943816322,1074.67334602444,-18.0344578519707,869.145514210475,-98.1883507165277,873.932900697034,211.146961327518,1026.31656600427,-211.721336215912,308.3560265515,-74.1681346536995,434.68526904759,80.8974726283124,299.162602877934,-17.1326627555275,455.045756913149,-4.43944164250958,2006.81981011756,92.1345708672931
727.094070344308,-89.1974968864333,344.372868071441,-35.4756615529138,254.667094926424,7.22197644599119,1295.25766656346,-168.22475166328,285.085192571008,-32.6671511865728,388.375895159538,52.0766358614538,1049.53653857911,-9.90473251355766,853.704773623071,-97.8209513593374,864.023116383129,212.806056636793,1023.73220575281,-215.85839426484,297.369789017297,-67.8516911307657,442.023073510184,69.1669422187257,299.000091766342,-17.2671310939925,451.131386190361,-3.87231586024712,1982.78695205201,94.9950350401833
731.020359731988,-89.4020890705661,359.089538624809,-38.2411162479336,255.876111401103,6.41492111276527,1297.95239489692,-169.153411096856,292.311539874238,-38.486738549005,398.793824519939,49.839153945936,1064.38111449689,-16.6546966333467,867.436902163426,-103.389889215535,870.256365704851,211.75509191184,1040.15333091155,-224.45105960372,306.329717416581,-75.2400057735543,452.305867096567,65.4284528674488,296.122962835997,-16.3089053999384,452.835480634087,-3.8269456856909,1994.34873077403,96.6942147112354
741.954133615833,-93.1574513367678,353.369532998986,-33.8407650591397,257.113038843254,7.1057500094535,1297.00692997141,-168.320138629908,291.126168149312,-39.7561619316962,401.170021349355,48.7923139564579,1074.32404097054,-23.1247643540508,863.277969912085,-94.2322236807445,876.368695199033,212.229804023127,1028.82365356759,-222.64012450229,306.124090524031,-73.3484368165945,443.908971080087,65.3919181251881,307.159873754764,-20.6273900999476,452.114665863744,-3.72893005887059,1989.90353936585,93.39637513221
729.675653821918,-89.1223333071027,362.09252087927,-42.0232538616123,256.062728579887,7.33865073729826,1292.0148273703,-168.590811032628,299.242175191414,-43.8733303901736,395.602330184491,50.7175921808153,1053.45614969344,-8.87565377358191,857.858000450403,-97.0812634480433,872.041727338669,212.150815296015,1030.79074038002,-221.919824122531,316.270460534478,-77.7146828704869,429.07021393251,81.3797853436749,292.213405647722,-12.7599577187593,452.768221951398,-3.22519623784234,1986.28713001946,96.488531006718
734.72340009322,-89.8494680361689,359.626743230594,-37.4654768779903,254.212820910879,9.23651926938119,1298.21443120422,-169.234438459296,289.642747232505,-38.9691680435618,404.387877041979,49.961124204114,1057.99840722395,-7.33070579348252,856.040949113533,-91.8532519805067,876.864763874424,212.981723929486,1045.70367270718,-223.556444302997,309.056167949455,-71.1316875251296,439.993280656975,76.2156998966612,306.556817362121,-18.2859491104732,455.360402857525,-4.16304298701093,2006.33885457929,94.5982499024863
727.455623716092,-90.5096302027986,360.535904222625,-43.5337948988045,253.813603061114,8.50754210343513,1285.33122423637,-165.821224129642,280.313435014116,-35.7883060952108,393.23191295358,49.3047116368721,1065.73128689608,-17.2608187289139,866.288513947079,-100.355940024822,873.766655204991,209.964079044055,1024.39117392443,-216.35906383802,301.463669951788,-66.8006822688766,442.669145900928,70.0279490537377,297.736231466321,-14.0172595683562,451.82099969897,-3.27534028851062,1994.17459847157,90.1542773600402
728.512820640841,-89.5471672596801,340.81890885367,-32.1245284304218,253.269742606329,8.60709980206461,1289.15323914052,-166.144545492375,277.752602859154,-34.0641106300877,397.676527471887,51.1928441509596,1062.97890826463,-17.7127017592156,866.270170567631,-100.544441452375,872.7060672062,212.614127940096,1037.80109305436,-222.128287297952,313.664425292418,-75.940824400477,445.672445215762,72.7822294308986,298.530197044986,-18.1892327818235,454.214334581037,-4.14413130851927,1996.97355283689,95.7682149046563
738.510291005389,-91.2425020332621,356.583681834313,-36.0146304387665,256.221419010046,8.36717462839015,1286.54893082419,-167.644380728303,280.439024947146,-30.5074624018179,394.570351797382,50.3197608883337,1067.43046488037,-20.6141335268451,862.449688148066,-96.4320353960855,873.861547844779,211.113516590246,1028.24620298876,-220.320339214421,296.632682753903,-64.3940643393187,434.928667774524,71.5262536422214,303.415788949772,-17.7437584315685,451.178874979284,-3.39845888936674,1985.80981701274,93.7984553810926
726.119182571265,-88.4745105229929,348.406729789355,-34.9554454104581,252.715899697868,8.30408522287189,1278.61933975061,-165.599013734063,283.904697721395,-38.3580682622239,391.963932100544,53.0118807178666,1059.57766586638,-11.0859441209364,858.039046986889,-95.0151489781925,869.753046295257,211.552233050983,1021.20134645364,-217.038797759422,301.222088984053,-70.2084187875623,436.797839464416,73.834808330721,297.079480859645,-15.6681259050234,451.788935556331,-3.69595553917617,1980.05348141524,95.8151607423977
731.563663294723,-88.8525895322903,345.461449248009,-27.8237396876224,254.840088275634,7.51442102771239,1284.2798026262,-165.732382390419,291.984634746458,-37.5447120382869,402.083355132854,51.0483533331155,1066.14111744858,-14.8946090189633,865.129136810923,-94.8857885355998,874.376659473707,212.440049008373,1028.25832956996,-217.392260425491,299.403868873283,-69.2726591491151,437.422679793774,73.4693723786823,305.012680076946,-21.244617809561,452.460440727652,-3.14228855411008,1997.870817178,94.1565046311346
720.023162895281,-86.6109503110353,348.898502690193,-38.3957478130748,250.893895139085,8.86965830595754,1276.11966087006,-165.352547319671,280.182462962463,-32.6593083844563,387.766921925027,51.2076418425922,1063.88129609658,-26.2217028532197,843.041159389076,-94.1012149067221,860.784036347991,213.489577601863,1021.56324456498,-219.429956683008,294.873001741948,-65.2977594756354,428.821136036318,76.3607029810263,292.122791511576,-10.4962294864267,449.104681323403,-3.35876554650994,1965.26125973569,99.524926228429
723.298212985331,-87.3725719161026,361.547236146117,-38.9636570968153,253.395176349506,7.73921870879908,1277.37974897805,-163.612117409469,284.008613429491,-36.733023963468,394.276482418574,51.3644839896748,1046.91444769259,-10.3128662372858,851.92690731678,-94.0388467170149,865.484726481849,212.491836973686,1025.57257950387,-216.758430866293,304.850180788927,-73.5827071143953,439.617806034031,71.2782081325118,293.846566297677,-11.3376601408598,450.332947043579,-3.30400158563232,1975.03764122628,96.8613644488961
736.58505400012,-91.4763755841961,353.427055991973,-38.3805952574409,256.31297920983,6.18722404073188,1282.3442519675,-164.831861683318,283.287461086894,-31.3862637521053,391.19700881312,51.3552161631848,1060.68547054942,-7.54643104099856,856.125357701336,-98.4806881735248,867.864640901225,214.079738690138,1017.3288809773,-215.025389962825,293.439575120235,-67.2920593417899,437.081596713466,74.8894933977869,293.406814467283,-14.0671696041638,447.715381172532,-2.81419250305765,1964.39974830478,97.43216852024
716.274180685198,-84.7597316630049,347.449889831113,-35.176380565743,251.166986070642,9.30562513504121,1270.58653418885,-161.525301869512,281.149648017168,-33.5196315680772,389.130487228268,50.7949884846524,1051.80196118591,-11.7372589239268,850.976822976254,-95.2937264176202,860.573586661094,214.41597903568,1005.49421057451,-207.703912252671,301.692038115025,-72.2282133138925,438.919393031363,69.4055813201461,291.784481992102,-14.4959569742439,447.751967315509,-3.12652804442811,1961.42323871753,95.4246064318218
726.163669803982,-88.1926733612923,346.828412930161,-34.0492421916674,253.6503952053,7.5550468712155,1277.49218727017,-164.536504795588,270.481903215071,-26.99647104934,398.818130175833,49.510185552653,1057.82118144747,-18.3307973897241,858.588195080914,-97.2859536182311,868.65533119155,211.283229186292,1017.29482323447,-211.535274751832,307.70287405489,-71.5572350512209,441.843208981461,73.037311259797,296.810766570045,-17.9166850411149,451.311537948225,-3.51603907231492,1982.47223321641,92.3757678035254
716.994771041117,-84.7244618295565,357.439267654834,-41.9748861807738,251.897565102697,8.56507519354915,1274.24818302524,-163.738655835704,289.376376542552,-37.8671710349468,389.400648259574,49.6404726305101,1054.07865142745,-15.2461187110447,853.440988533466,-94.6510407041237,864.459153536117,210.534956587753,1009.9783705573,-211.056962087242,304.680073652443,-72.1320250617298,432.743618454053,73.310157716809,290.327950886083,-12.4032892084394,448.352182018797,-3.73798667541709,1955.13960373723,97.7384117737119
720.590258454109,-86.078405509884,347.762111400792,-34.2860082940623,250.37815872649,8.93360655111039,1273.47709559799,-164.438689853838,277.607735529398,-29.3317572527782,391.776333709023,50.5988621448086,1052.82518573492,-13.1575127639307,840.938539209344,-90.8842112667182,864.93785513808,212.442017301696,1021.91919276353,-217.478561096277,289.674705652572,-64.5212328949292,436.073061497272,72.8649838268846,292.156579780147,-13.7675494212549,449.015711476418,-3.26366500744837,1960.59506680953,97.350009190991
732.682925487877,-90.0515593206461,350.481020972359,-32.1848595018891,252.825981862762,8.88659200724555,1283.7129207436,-165.021006418756,283.132596479828,-33.6021072078111,399.869341867506,51.4293538575787,1057.67678691051,-8.7521699863542,855.89549374101,-97.8172558414469,871.16041937232,212.627693898312,1019.58611586184,-212.458485450638,304.061655194531,-74.1319220521839,434.464812299883,73.524432477251,284.741262200265,-5.73309542726598,449.665382646646,-3.51608168510016,1958.32511444114,93.9121349956633
721.409164716266,-87.4448122417495,344.17297157599,-31.0883862805161,252.157344040749,7.63316607449048,1271.31598525081,-163.253423211573,271.863295668029,-28.1759633009276,389.321901265223,51.089403131597,1056.01197456222,-15.4956134663689,839.133546755055,-87.0883937459883,861.273898074743,212.913427401026,1012.77995957036,-214.669233594249,296.947599998799,-71.5411148489351,430.137897690549,72.9879307929224,292.450753879791,-16.0774533641057,449.358701796989,-3.40683774489888,1951.4425098911,99.4692266005845
727.122879476685,-87.3649161830184,347.449321949019,-35.8941690489539,251.20866671003,9.53055988051781,1278.33015946824,-162.872246938999,278.23557502744,-34.210334771152,396.474164352695,50.7947024129094,1056.09938481811,-15.321215536858,856.872665067473,-99.7069168839147,864.694015050438,211.727629879734,1028.13816505661,-217.960434992308,307.214882998885,-75.0129015584504,430.203978141013,71.3805733597841,283.877535274181,-5.58623590822335,451.761840779843,-3.81290119597964,1970.56719255953,93.5229349005749
718.410049137834,-85.6775126710523,337.491703668012,-31.9738310373574,252.37891388045,8.23660454926344,1272.24499474384,-163.418281354013,275.334165244349,-31.1974689073199,389.297883040874,51.6713718349861,1054.13915349297,-15.687882969014,838.564809637886,-90.5182466716931,862.734832270174,210.829402664104,1017.01273579823,-217.026325646654,297.130268831184,-69.9522193949125,424.686913095389,78.8156195244308,287.351674438804,-11.7725000136479,448.229054379054,-3.05378677591109,1941.6263463657,101.662443944326
718.993699786532,-85.9098068830467,345.098542644838,-31.8802030439844,252.195293937424,8.33163828980836,1276.19762963382,-163.897452592559,276.668194749422,-27.4240053543907,393.173717165097,49.720062364849,1052.78158520276,-16.6671726111846,859.592223346507,-97.2292790696657,857.160061355633,212.609904640291,1016.66359109382,-215.326538285018,298.091361477748,-67.6126189247662,427.694544765622,77.3418565440924,293.507769487384,-12.8243718277678,449.476480617725,-3.30327779036823,1953.89664067507,99.0237749608025
731.575294612545,-88.457759160156,346.137587032329,-28.8417306737465,252.169085913758,8.6071475038052,1287.1263925592,-167.786880803248,275.757827069172,-27.0101627632256,398.71951264249,50.5223112278711,1066.23448477008,-15.6086451585085,860.734959508074,-95.9189748741075,867.439221559683,213.073429807027,1017.77713754994,-214.312769311632,309.30698702556,-77.3499240298324,430.222086513285,75.3448183847452,291.33359852344,-15.0498305332072,448.221607337607,-2.91088868874771,1949.46507862762,98.8617558062694
715.559122609947,-84.1875897873746,337.818745367907,-29.3717415746276,248.755710637339,8.91620187324862,1273.80801883623,-163.455960936587,277.830446597141,-30.2692901507337,387.247201355334,50.9051656597211,1040.21324945313,-11.5267710556461,840.868962318134,-90.7621137183478,858.724901263825,209.381324819303,1012.25928681708,-210.454754712759,296.54793388981,-66.037662482759,426.350472527609,70.4957956434393,290.37248876381,-14.213527920152,447.9078150113,-3.29040997340468,1943.31351225181,97.7556632884319
721.466427478737,-84.9905087900699,347.318801273422,-37.3431282728792,249.858203084527,9.41703077951921,1282.2382740434,-165.83637460033,280.533776409658,-32.239022735677,395.707547230454,50.775681635277,1056.95607559258,-15.2701303501844,860.477932142496,-94.5963402282172,861.550830753466,211.219737294758,1025.86557653763,-216.823538828825,294.631154873686,-69.4424861027082,428.042867562008,75.8127426720418,292.021761546664,-10.2320759905452,451.158756637354,-3.98522543310282,1960.72977612525,98.2444579006301
715.124301315266,-84.5692048580277,346.332973248622,-38.1304376076125,251.395966165351,7.81553566116017,1277.37005397675,-164.945337877068,279.087160311297,-34.4768980736444,385.997014160436,50.8336543519422,1053.34469437634,-14.3320645441625,839.169416571111,-88.2458956747386,854.973736397015,212.04461319258,1006.5415932535,-209.972549914009,301.363989149803,-72.4882169966105,429.250548546263,66.8677483198203,285.296349400219,-8.34347671900887,446.455054121538,-2.80046963100988,1935.27680570521,101.957272839428
715.874796098274,-84.6254989279597,332.036956604704,-26.37255835775,249.707558288226,8.86148631039547,1272.73558751432,-161.171856596347,288.094141855444,-36.5355056800594,387.880423574457,50.7532279967287,1059.4686299679,-17.1812790250593,837.440789466793,-91.9069613795844,854.957774662783,211.708236866747,1006.28305432802,-211.66233585843,304.593739025558,-70.3969407439791,431.454085344944,73.4272182047405,295.152361704398,-15.8161933415539,447.874419359092,-2.53934905869799,1943.66162867377,98.7714936197426
728.235892968004,-87.2817072376862,341.527633908938,-31.8017604608759,251.450830261842,8.93792824548288,1290.82369544484,-166.605991828351,282.929816426963,-32.8390592443174,401.781316336146,48.4548196417283,1054.70319331908,-7.30958373551386,860.281280396175,-97.5366175548217,860.077662274474,213.977730381351,1022.41822473741,-213.83130635919,294.148332909661,-64.413058833182,427.882371127287,78.2860308430009,298.084452779213,-15.6273573869514,451.553303395362,-3.00076402942463,1962.72741011203,100.317037588663
717.065957609405,-85.9397421686588,358.678238922644,-40.2407430986264,249.358475305238,9.68593423981965,1272.87582283325,-161.434529894343,276.284013465776,-32.0367512855081,385.946246162756,50.8581447015697,1035.2954332909,-8.3814669756114,844.071016240476,-92.6691283217619,850.838626733126,214.51648365047,1012.80368075461,-215.077308632964,298.444518049242,-71.2259529580102,429.84770114813,73.3094255263372,294.30637367766,-19.5308713352591,447.196012714391,-2.50457049408238,1929.52803737531,105.64946343832
720.495881938027,-87.2645078473346,333.201459802438,-18.2713600684,249.952763169701,8.54623467246623,1279.84095032401,-163.792260292443,286.920161865048,-37.0719041276915,392.898838669638,50.2810930967945,1048.81231147367,-18.3792330987898,842.414969326867,-87.6811692844538,854.356019168011,212.89271413915,1021.11752670418,-213.425082160733,295.2533632662,-68.3502182952449,428.601439662688,74.1508140310992,285.016617643324,-12.2804706688188,449.784542071856,-3.0032081992506,1950.94467658603,100.684164001228
732.622324343187,-88.9120463073156,347.695024864409,-33.8805971069477,254.601253205465,7.16908979703356,1295.8202261201,-168.479270206157,287.403613363572,-36.855387800002,402.192131929013,50.9318440947131,1061.23803169339,-10.905307988701,860.83898671087,-98.6671160551671,864.474116768787,214.135736699315,1030.95871556734,-221.127730941238,302.349261231706,-73.1235948896397,438.184352499258,74.352077048206,297.896915887641,-21.6130421598778,449.627333672072,-3.1709902867214,1950.14248526776,99.4643553735046
717.617015639079,-85.3268277755753,345.096587123629,-35.4913141786838,249.756316966037,9.5551216942038,1283.06207582521,-163.932460247948,286.795994742001,-35.4993724705146,391.43484413087,49.9685079766434,1064.17573327007,-20.3992372032063,839.710940831161,-88.7231862310262,856.261323965899,212.678852206462,1018.11118299885,-214.518225333085,298.422858482622,-70.3659586129736,428.38222542659,70.2085922123474,295.011433968821,-16.8044096487567,449.828491710337,-3.16091065228775,1942.31794014659,104.62651592237
724.314031488271,-85.4550691913637,353.683710896511,-38.6420181936439,253.203598606314,6.73334252093921,1287.32895756152,-165.662602907093,285.237366370813,-35.543377166782,399.115342711327,50.0492578195604,1051.42165315176,-7.23863837086183,859.842352159332,-100.065269947324,858.624551799126,215.393201820198,1039.30376759984,-227.108668544783,307.34056380363,-69.1475447685058,439.705093461848,69.0418126376768,293.868064151955,-16.0943800697922,452.996936029332,-3.5691181174446,1961.89228406969,100.116701644309
733.041577473747,-88.0353052908257,346.556365082853,-29.9038014715401,252.454848581475,8.7790314563436,1286.31754375595,-164.446547419329,286.765103167773,-34.0055789909471,395.492882971292,48.6550459156108,1060.33349374366,-13.379048175584,854.4667341342,-95.3495738181973,863.871956249451,213.746033863878,1027.96343573872,-218.836032615732,298.012272605944,-68.0321485313675,434.201228250229,72.6713018453488,292.3512161722,-13.2837101523861,450.862110209032,-3.32094529994879,1954.41332725627,99.5294851513409
723.720772763668,-85.514737730705,342.77382471672,-31.8211480916864,251.030628137278,9.07156227614595,1287.63051512911,-166.107898804114,298.099393991745,-40.5502155346448,396.159626127963,49.2613287929051,1048.96690361732,-15.1643438846181,860.713325657351,-100.242406411543,864.605167795034,212.000143361511,1025.49605887436,-215.412709581565,295.00422909333,-70.0103846210841,444.05717396388,69.1422023046548,297.364162490654,-15.8386527670338,452.778116832969,-3.82765548405476,1955.99800691603,100.938936297084
732.15452201144,-88.2886130000674,358.464374478121,-39.6949767029938,253.747075464116,8.33605413783466,1295.01085436573,-166.298545523105,289.241697328674,-32.3428039297694,405.082169373597,49.3440503500328,1067.67382746766,-20.5399577750743,878.446955405146,-104.449209120606,872.13713171334,212.997401003091,1040.50933091684,-221.299715951325,310.754746575672,-76.2645141331269,449.211052921515,67.2634232175847,291.768367720253,-14.5216178002465,455.933780489033,-3.8334520670118,1988.20292344861,94.8973313991712
725.287953501928,-86.821940227399,345.005994376982,-30.6197566663634,250.967316116694,9.38657686350424,1292.53482052061,-167.315419604407,290.804351857606,-35.1990242420608,395.116694579776,47.4757553505421,1065.66589607828,-24.012211069363,847.110102106778,-92.5103951787643,866.90563652938,211.935738520544,1030.5238719921,-218.179976864586,310.678211048876,-73.6849788496852,434.035135418143,74.6121242325175,302.801913672285,-17.453618508966,452.473126018815,-3.29930671424608,1959.54890166841,105.540043006454
725.369644822013,-86.3391647389195,359.156678544303,-36.2228576495179,254.982824664942,6.80845443151376,1287.34816479465,-163.5939172173,290.020831910213,-36.8322039905466,395.974698299547,50.2276211994579,1064.53403932548,-21.4600014888985,873.627249443523,-104.412259329034,867.836022908368,214.0947401384,1033.76388884415,-220.346934094139,307.000199885658,-75.2216568644945,435.739849254149,83.0919314191495,297.508571403192,-17.0107263060927,454.16278543443,-3.74897175377587,1977.62219904352,99.1923522037216
738.482040937518,-88.6862149341724,342.22944619585,-24.8543787322345,255.656259365653,7.56255812476433,1303.50146185057,-168.45132818073,287.426151689749,-29.3087525721381,408.198086671829,48.0005943723052,1084.07584384489,-16.8851006966439,875.746742711079,-96.259882791913,879.90322998495,211.173448620403,1037.20508706867,-217.671151680432,307.446540496651,-71.013956706599,442.548388832228,77.2008197865479,294.802368996711,-13.0752781100066,453.063225137409,-3.65836048718795,1981.54370944173,94.5942934514081
722.752617562175,-86.9246276303885,355.376230102741,-38.5597259541634,252.961225762594,7.69881033523982,1288.67388350757,-166.009544003506,286.898121305332,-35.4778775898894,393.937358679392,49.5399695123587,1057.93504151187,-10.9392207461863,862.840006427255,-100.586209251105,862.131279684686,215.873345446103,1026.12531404579,-214.754685529765,306.431988841186,-74.1786661841406,442.950312691334,72.9619977104238,296.968964104285,-18.0957371133076,451.374719184571,-2.83731942582035,1974.29969314285,96.8490263402674
727.887486042417,-86.594945325122,355.876026788655,-39.3074393412618,254.439662347002,7.68876255725979,1296.09015412481,-167.795272882459,294.7421930622,-37.0989383408552,401.252812474512,48.7651553143398,1078.21810923925,-16.1027524208373,861.685011409161,-93.9942442192123,871.947352612743,212.261874418722,1051.19090065201,-227.476101950487,306.178757224266,-75.029147405337,441.054967647983,77.4853644184413,295.784853181437,-16.3296452820276,454.592996735957,-3.63917011486018,1991.22949857687,95.8944231812609
731.471692404491,-88.3411124279696,342.313843243448,-33.5639804305854,255.51505003196,7.25974455945645,1291.21062141309,-166.771740470649,278.743857085282,-25.3746845476852,390.937991956715,49.3667237806229,1067.94469762763,-16.376556646346,853.543505539894,-93.697604207362,868.703716669154,214.837817904997,1032.42306018432,-223.803853151094,303.637231008842,-69.6032527099133,446.025952920551,70.9308180197209,296.100265175926,-17.1726928374537,451.443485619576,-3.77318079244901,1972.98134728523,97.4012866037826
722.951571499581,-86.4568278391423,351.461636231619,-37.7810979457536,252.774052923108,8.02279097508157,1288.19825251588,-164.441411811506,283.808647907833,-31.5883976328833,392.395030885548,50.2517557767532,1066.67110660838,-20.5725601187234,870.282630533511,-100.027448369864,865.15220610806,212.983755723039,1030.44052255742,-218.696134765733,309.196572578944,-72.5693100779854,439.743763988092,73.7586376081498,303.190824756363,-15.2014630370336,450.894076136978,-3.35100099937765,1972.83313869365,100.297581996252
729.44840615829,-86.2670368396528,360.783868506378,-37.0935114782456,253.85717004396,8.03750935754512,1298.19711352414,-167.034528368386,281.818178509254,-33.1530410804246,402.754077380702,48.7777499542236,1070.56567990276,-13.6714620307715,868.321561807138,-100.319622090425,876.963285635738,210.163816558592,1038.8871993824,-220.032789450206,303.083030031835,-69.588467081733,451.895354778624,71.0762849983053,307.010997464418,-17.6283924550869,454.332386845216,-3.74552851631422,2003.42235920965,94.1005273995851
