247.124401465669,-16.6555854612753,627.870161646909,201.283628830774,1153.62649896037,178.305023426205,1225.50235442281,111.209092717944,372.43330072255,93.579081154299,293.655481653487,42.2966956247112,871.472060241914,39.2133880806264,804.237087625044,-18.711576900205,1027.13758446179,274.917263953358,179.901284279619,-23.840920698127,1160.65431146234,-104.614969630354,373.284880230615,53.9346126619697,629.424002350104,23.4610181534681,2445.87525125283,-59.8943772303808,2134.60535291531,64.0253240179855
239.350791322017,-15.3620937811379,597.452975516646,201.776111359911,1112.21975569242,180.734067712038,1158.94478519844,113.081386093867,360.063936315825,96.5050416440091,288.416142720146,42.444632773217,846.275498789429,43.1909159116898,785.726170377391,-15.6048552333305,997.278441681086,281.794605685923,175.64165058428,-23.0052458500832,1155.33217449862,-101.671453360559,364.293476346744,52.8583853638862,614.044084211782,25.16758940303,2403.94345692903,-55.844911934931,2105.93046026636,67.2977499949123
240.567228290294,-15.2786677018716,607.205269168894,201.895664829001,1119.57833893738,181.592686752063,1180.13488880783,113.398160732556,358.13649424712,99.5991354028195,288.965326229157,42.7557960868726,852.736935067127,40.5982859761005,787.496550465274,-14.8507831434823,1003.30577935877,280.213777937849,177.428690623152,-24.2849329131467,1150.76411555115,-100.411343327306,367.952982730792,53.1268857548942,616.615178244404,25.7722795590219,2420.03214683009,-59.1575751134805,2110.10912611645,67.3033023681517
245.171996182652,-16.6148495243458,619.160659876483,202.496164773381,1132.79872926924,180.371814236821,1208.66114824087,112.190072064887,369.474930019524,94.5832239969163,290.393042227058,43.1502186784583,861.443131040938,39.4691535371092,800.172275648608,-18.9876498070987,1009.60632805865,281.523279466021,179.217810194319,-23.9168294797771,1160.48502917581,-99.2071602187728,371.341415983573,51.6160172778445,620.439341629968,25.3404090650893,2449.01278622322,-63.9603380282968,2125.18501102138,66.3622548254022
244.880814247628,-16.4787337313338,613.050134413537,201.687513523775,1136.62318455181,179.983589351069,1186.92975327314,110.728902054832,366.109527249069,93.0296357410733,289.421830489762,42.8113776029596,855.401470264211,41.8127706349443,796.479759060493,-17.7358732101814,1000.42193157024,282.105037571004,176.956746966691,-23.7683097010269,1164.2189315487,-107.571814279404,364.381552544713,53.9897754546785,616.621018972961,23.2791623350749,2401.23004416688,-54.1880363328,2105.67836124034,67.3932698998841
239.45123414743,-15.3887450418467,596.565859877521,201.604488739324,1107.47912503709,181.992300063839,1157.75784831198,114.044689499697,361.069732627078,94.8035920751473,286.10765557444,43.0144590353293,841.327491312442,42.8024153045118,781.247519619404,-12.1532524907165,991.176617344238,279.921051285232,174.773582387097,-22.6006417661037,1145.45730581236,-96.6623999341685,358.971871261924,55.2978115481876,607.44503269667,26.3678696620877,2389.66549747212,-53.6180228344948,2089.29254111621,70.1784274867055
241.896501833887,-15.7980693557855,608.264892337493,202.208890001151,1115.85693467897,183.311593143205,1186.72388612203,112.914347135449,364.44573124215,95.050957617236,288.4592013623,42.7034975540544,846.701539894435,43.0028731297377,787.357160663805,-14.255452085226,1000.80774626736,279.063137094372,176.881939899802,-22.827814201381,1130.89467877878,-94.6918896167343,361.456960539372,55.1694257505082,611.358208090641,27.0762204827203,2417.63301223599,-58.9920670557372,2102.31230560634,68.7836872433278
245.450323070588,-16.193389873377,620.314133829103,202.494179673941,1130.9510276745,181.991146473275,1215.78970417388,111.15455072414,366.019741806836,98.0111334423166,290.647923341281,42.5692565713069,859.794844231947,40.4092729448438,798.231875058922,-17.5321818130124,1005.99176570751,281.191384717023,180.083850733075,-24.3226707573396,1158.22988896183,-102.114529679134,366.867253816744,55.6069115363261,618.842834811339,25.7015047935287,2450.40309906538,-62.9381577778242,2121.98029023083,67.3192612906208
241.945419313691,-15.9194792748764,600.689176420819,200.326159699558,1113.45412577552,181.978944826311,1165.57928195397,112.757351903637,362.264001678338,95.8625600719445,287.981228785738,42.7137623555351,842.471841066269,43.2273635470412,788.917304784163,-17.1505618212991,991.210295959057,279.770726784647,175.394681541469,-23.3464313876426,1151.39033367407,-102.001154387802,358.267079982453,54.9149767508143,606.347879765104,26.9449227294003,2386.38389650076,-53.0649374983947,2090.93357661948,70.5987320598425
239.619354042604,-15.538426336124,595.688535212874,203.65408725658,1104.87923060584,181.108235165643,1163.17398427766,113.151910475513,359.319248447903,95.1899792791672,286.668050170917,43.1007926223719,838.061475181041,43.076154105541,782.843978064646,-14.4130282985065,987.174372854714,282.449317430508,174.664696756683,-23.2338212659041,1155.33161451662,-106.831968155018,358.719750007183,55.1257215824552,606.731774291497,26.2104837459837,2394.04332635226,-54.2843623782391,2090.61830139186,69.6889945056428
243.154361083686,-16.096676506186,611.567967500882,203.202613877361,1116.42677981329,183.571724274248,1196.02136843385,112.26059281184,365.284199844479,94.8808354603118,288.667415481909,42.9613313648285,847.19126869404,42.5653745050604,788.435342075056,-14.6148137342957,1000.95102426502,277.037935378541,177.00243556757,-22.6801111079921,1159.5945208881,-109.455421252232,361.578627698956,54.5579444289905,615.82644574677,24.1051340927666,2425.28785612442,-59.2964501804699,2108.37246438718,68.6630480919103
247.083040454846,-16.7694916745959,622.96355513641,203.429674042124,1137.20334480633,180.435651247347,1225.28865728284,109.924721673031,368.344040514261,95.6808672710166,291.983010809715,42.6855171539268,857.382523921957,42.332550377444,796.030845471587,-14.8952954034606,1011.03028870854,278.533948841371,179.281623008309,-23.8571892987317,1156.45626632445,-104.389160925307,368.162163166146,55.386125384146,621.491014857106,25.3040469194403,2458.91578391882,-64.8330914152454,2130.13019680767,65.9364642885327
242.240290048858,-16.0552537615343,599.885853979309,202.18995191232,1108.04784166488,182.788686038326,1168.54991997531,111.290683885457,359.457761965061,96.8394718713466,287.372729181696,43.102472278286,842.506376515133,43.097658233917,784.850346440469,-13.061489842569,989.343209208588,281.033303353332,175.575341448234,-22.9525573109415,1143.5419816602,-97.5597735479506,357.807896995369,54.6255759150887,610.571026716764,24.9331874745367,2400.31162723656,-55.3217886745494,2101.36188046685,67.6733382350629
241.47360221913,-16.0273094296536,602.911991393438,203.214221758228,1106.76828095667,184.493696433344,1176.82123118206,112.026031942244,362.018276509819,95.9398429000813,287.914649329152,42.9985371544405,844.565882560372,44.269517989249,783.476047369308,-13.107522484823,992.263214601052,281.196993262585,175.841973821299,-23.3487893212148,1144.34851768167,-94.7546157419159,359.630778962054,55.0855404691533,611.365262972268,26.4708537479218,2415.35731046381,-58.0441842180464,2105.77358935031,69.073341880582
245.089761242425,-16.4994733780553,617.49936823532,203.000060548022,1124.74267041706,184.134844571329,1208.20083127252,111.388014343971,365.098130008822,96.983826030718,290.514282895389,42.6940680906154,853.171701394502,42.3258197806806,793.169012027993,-15.5332902893333,1002.93401714709,281.424620847815,178.50593917538,-23.9889411023888,1146.88609928714,-94.5308086695823,367.078966906231,53.4836808178425,618.210006988984,25.0554336638339,2446.35901592644,-61.6492892991617,2125.03114920983,65.8215632774889
248.366629337518,-16.9935792642433,629.189412144185,203.487865257513,1142.05303611773,181.950321698932,1226.45225095453,110.640022685843,370.59761260824,95.0455652819209,292.342348698966,42.6197715387439,858.628285745206,43.4139158909361,799.481268480673,-15.3175087553557,1013.17396794754,277.595617275127,177.980079746837,-23.9770968993432,1161.17913918061,-104.960122887496,366.899896226125,54.0535147703739,617.43719831057,26.8755589003538,2425.72338010807,-57.8056947671862,2123.02739297846,66.0065296089626
240.756988468175,-15.7308674099735,598.933156165221,203.759119432111,1107.42181796574,183.418087591452,1168.6232724605,112.405960232185,364.863604989734,94.8306892046617,287.463784017249,43.2890276154577,842.983245628743,44.7048826213502,785.267846461082,-14.5082115018678,988.388761010313,282.715970931469,175.47195450146,-23.0366436854403,1145.02502481393,-98.3287598534944,363.934969695351,53.5564238891437,609.385955310316,26.3341449502334,2413.77734760461,-55.9491269443936,2109.00496739559,69.4608383624174
243.108044113311,-16.0772780893993,611.348309661128,203.339511645821,1119.19044203963,184.372000544397,1192.30539352154,111.296119034768,364.778601775075,95.5943697949489,290.251471568846,42.6574754951431,852.348287913391,40.8006133165139,791.901387845138,-14.2399448401895,1001.23250106296,280.041858013944,177.004622129779,-22.2844460958358,1149.6731476079,-100.652350460159,365.658704685808,53.8630506774324,616.990082307323,25.4695366001202,2438.69524111984,-61.1914143000295,2123.52688410414,68.0327153761027
247.265411387081,-17.1077115049281,624.522558154028,203.459636785483,1136.43616254565,182.07051904499,1221.63305303547,109.586222900119,369.159588428317,96.3120702694768,292.169340308426,42.8416370660708,860.895352640215,41.4034291240142,799.746513279642,-17.0335262493008,1013.48518440896,280.807084960074,180.025391307569,-24.2125501248182,1148.68281619257,-97.2868307557949,371.863097728641,54.1567125909082,627.16406588655,23.388191446356,2473.79393526719,-66.9825493524541,2147.64333801435,63.9439738676392
245.842774822696,-16.6329588971741,617.589267232651,201.689910778891,1140.97782992852,179.444825896003,1196.23737682397,109.695009270488,366.170479386048,96.9268461358262,291.183239109906,42.6340911613053,856.385479299061,40.2652651135971,798.545787948714,-16.6729932401584,995.547048991051,285.266446121815,177.037725292098,-22.9116233693426,1168.74784230222,-106.278635729438,366.50782847149,53.5112792951696,617.99996738539,24.3975165138455,2430.02122822429,-59.8907464344561,2129.47083199727,65.8905765157742
241.764883505513,-16.2560712719048,605.557994364495,202.504419895841,1115.62094913164,181.791588012251,1173.62256129925,112.101544405926,366.341816902161,95.2222320861634,289.492390196351,42.7461094154315,847.133159436914,43.9447716129382,790.208562992026,-14.235771004109,999.853618584888,280.971293561442,176.830911918431,-22.9653903627305,1148.04932376354,-101.804306077911,364.497526966081,54.0257642307297,612.656993288971,26.3526702036363,2426.83152139453,-59.0149908679249,2124.9343712635,66.492361818694
243.954775612573,-16.3880147038099,618.153615323676,202.699063869383,1127.25999308958,183.293288589714,1200.66972894757,111.756947259079,365.217617325189,97.7590713004619,291.283849601173,42.4541811125073,858.232002177825,40.7935570939922,796.265642081513,-15.4624514808345,1009.32836920338,279.654930587547,179.773080528346,-24.2761606350873,1156.49099638364,-105.89795292052,369.272949792008,54.5031051332382,622.174748414501,24.3401129032567,2456.41281667946,-65.1778347573711,2141.60733496775,64.9735013093363
248.411809432201,-17.5717394750217,630.739437545623,202.111834703346,1147.70454992725,179.622278245609,1229.20606875348,109.25021175406,375.032075623784,94.7924755063361,294.394422523352,42.3910633805778,865.877475583671,40.0966486982883,803.056185123655,-15.8602302000428,1018.45348580685,282.746574193805,180.98522981961,-23.9528423341377,1153.44159638869,-95.039362501652,374.497185742388,53.68287682896,631.57348324495,23.7590696977033,2489.58606581309,-69.4740411429425,2162.43449043503,62.7462996482507
244.810706328235,-16.7180681839314,614.537494274724,201.138372164537,1137.17308773811,180.0009375784,1190.47684969593,109.895701854139,366.261826312057,96.718746746005,291.487596319252,42.8933422886596,860.882425930475,41.1085573609361,800.310891829089,-18.1883081522055,1006.09700048222,279.243665254836,176.280224912592,-22.5575472243996,1171.93039468375,-110.287542827466,367.000701164875,54.6704709602192,623.186265864693,23.4094878179126,2433.10967451029,-59.6297129539678,2138.8712132156,64.1890614437265
242.233876778295,-16.1300005242556,608.313109122678,203.383857240123,1118.84635609101,185.186014082608,1179.68451961446,110.990250827829,366.71361817971,94.1378747443467,289.859472227281,43.1467875279863,850.663065205732,42.1630220817287,792.823408326218,-15.4860910971251,1002.75627028387,280.351829789615,177.090572214839,-23.0017799293648,1152.47631174937,-96.7323426283321,367.507390719489,54.5029466134803,618.537074551138,25.7963706134326,2438.47962470042,-60.7729340432156,2136.1365558888,66.3971030646212
245.028018782039,-16.4907413721321,621.045994372047,203.869227987945,1134.38021777352,184.441260763724,1208.17267326079,110.169818235661,369.912686777003,95.0970576011499,292.569151020668,42.5690196748262,859.759836764707,44.0752772000042,799.290395229833,-15.3200529232666,1012.73889835418,282.97440810133,180.026050579218,-24.5688677497396,1161.31850660706,-99.9077161342575,371.178871094465,54.4056881804065,627.574452742064,24.8395109922606,2466.85725432125,-64.7668705249496,2152.24245895382,63.6977426719788
248.563486126925,-17.432094332677,633.605225487993,203.302888475796,1153.1344514321,183.775351547928,1235.1326619309,108.040389765299,375.818668132536,95.6493858146333,295.308399018976,42.4372419451064,873.13663306392,40.8021978289859,810.273735766714,-18.9988194796189,1025.42195474812,279.189376406729,181.169812225726,-24.2032996151419,1178.34175868655,-108.67446055934,377.916581045122,53.3348824246873,633.047026986242,25.068540169024,2500.7238417626,-70.5799807107677,2174.54163253599,60.0216674467814
244.548245517546,-16.7811116960836,612.233615839404,202.84253664247,1135.7851820874,179.140967475103,1189.36538795554,109.671573409527,366.749775679337,97.0883218160242,291.450001087219,43.0353583079796,858.885842369994,43.5363558797713,797.963881846712,-15.6655731675609,1009.12507751469,281.948375020532,179.15058584042,-24.4838569619154,1168.62637882932,-104.066790232521,371.283466667651,53.6003538593223,621.383971688155,26.0955802267508,2441.52901638744,-59.782973723992,2147.26276895947,64.0354607412002
243.5156299731,-16.3267334332159,614.745268209396,202.285800425555,1130.55530643315,183.482623672027,1191.80446581283,109.935102570892,365.794930722138,97.3272302076535,292.093700151554,42.2838450596581,858.177273920955,41.7789427582379,796.047972522125,-15.5791236002741,1011.04867494141,281.710904044439,177.308200345138,-23.231868570702,1172.8138775833,-106.423651301039,371.387212812403,53.6242151448271,625.360066146834,22.3433507497688,2454.84574166212,-62.8436603496423,2146.38832914711,65.5263260536609
246.708035061965,-17.0010873328283,626.121922120095,203.853447568991,1146.36986132151,182.661675050637,1220.41578736588,109.237395397885,371.504669118314,96.9163112065518,293.846689646092,42.691733762297,868.939089995328,40.8996713233717,806.313475038176,-17.7670019886717,1021.14274390551,280.171583210979,181.258398310034,-24.2688282536964,1170.27699890226,-109.641115062907,376.079481380942,54.2265862671171,630.288299066116,24.8506398752722,2483.99679192233,-66.2307207855294,2164.69324417424,61.9032022394581
250.79117856711,-18.0381106122377,639.623671403104,202.240581351246,1166.29793903256,180.29517774529,1245.77053315506,107.300650143787,377.708206455411,94.0459164368755,296.982542907796,42.052725175587,877.593591560832,39.5647466122278,814.483835408003,-19.9745955138257,1031.13244684646,278.160005180846,180.625674200837,-24.0013927434882,1187.69097768299,-112.229275277083,377.780497577991,54.1757720400668,637.435625384855,22.7989488579226,2470.62413708091,-62.6510959726727,2168.38069481551,60.2869339404505
243.640802722589,-16.7390568466947,611.140305975157,201.939813522103,1132.30690802637,181.015625256772,1183.22604971399,109.872844978441,365.689047991093,96.9184924991182,291.733755897111,42.5108972943193,857.294721935927,41.3724961736157,800.318177419374,-17.6412044971017,1009.52996687697,281.52629519243,176.969299308267,-22.9227458621481,1161.37617757936,-102.07531759833,372.355549184411,53.8168241496572,625.620161189501,24.1889827354031,2447.81307471455,-60.6392182336587,2144.85216184758,64.4164380230999
244.791791606652,-16.8438763236928,618.783058117579,203.274326925787,1136.0504673811,183.944064480395,1202.01543342782,109.207756184494,368.582746965568,97.7230931528401,293.119228142544,42.4075958899405,864.275812396712,39.0046384509633,801.524815328801,-17.4372591256724,1017.83534339142,279.701996231046,179.596660747269,-24.1793311499037,1161.87079776786,-103.189065835195,372.908901656487,54.5791275429742,630.038734190862,22.9547380389794,2463.76722721912,-61.7773522272706,2151.67823157749,63.3117484808827
248.384296445103,-17.5691454460513,632.787226733447,201.950331988736,1149.63477100044,183.798638329501,1229.53634617086,107.578051219021,373.542784038079,96.8520324377508,295.893692230936,41.8233604207672,872.002488237485,39.9190173883819,810.527477748199,-19.6737395292564,1024.76817634147,280.18648994341,181.074266894792,-24.2874135089337,1163.93374992158,-94.2342844418542,376.381634312555,55.2302658835615,635.345461681172,22.5586593796252,2494.50969342347,-68.1400777620955,2168.94305728126,61.0549251882629
249.313439736323,-17.6836235237054,633.334856729829,201.984083210879,1161.44500740233,179.353808475369,1216.5077327931,106.7134688626,374.83136073183,94.2242583168068,294.924029351908,41.7769710440274,871.096669892211,41.0480326619657,810.301416267408,-18.9337528133971,1017.71147789726,279.863718488393,179.603487381106,-24.3490240042408,1175.31753304485,-106.915272809812,375.490698005712,52.5358449416611,630.230481963007,22.8425673452616,2453.24039370736,-60.1479609384716,2154.11468257123,63.2047262698161
243.354793954884,-16.918872102456,611.30762143071,202.743550625305,1128.86993985235,182.015336671655,1183.42399765949,109.115657118661,364.571131448711,97.2782576209331,291.466929410406,42.6574190504942,856.279624860454,42.8756616438259,795.659046756869,-15.7405463691679,1007.61023682806,280.433245850433,177.919269425315,-24.0564484452333,1160.41242563055,-99.6747175882618,369.56182024687,54.6626153792593,622.965709203816,25.5072954074453,2443.15943261637,-58.5614626839263,2138.68194282415,65.6980628335744
245.595289860261,-17.268946539469,621.058095289894,203.302823219702,1135.50812814523,184.015840393699,1205.09574439819,108.891743334759,372.884492310495,93.7905672523988,293.139505963887,42.3029524285132,860.815785180131,40.9254483544261,799.804077730926,-16.9431468151471,1014.21570298463,281.496930505286,179.029435059101,-24.0269517903042,1170.31824113025,-101.628318655317,373.764890701666,53.7022016581076,633.511437277315,21.9940754376692,2463.21350777989,-61.3116784663613,2150.07617394974,63.6490438625666
248.407562685103,-17.6289982304155,633.422021632777,202.761941741181,1151.92174230944,182.930037335732,1231.28214617364,108.002282357944,376.191840451648,95.6748038279594,295.921452449004,42.1199404896946,871.225233253119,40.2803230065088,808.068295038984,-18.3980504861235,1027.71139909851,279.756850594668,181.672952272962,-23.8982522789669,1168.72571951822,-102.714890421913,376.241906969871,55.2655578809132,634.657363864193,23.38800655409,2498.02521726677,-68.4571856243669,2166.22548130529,62.4619969591472
246.388851309942,-17.4582007449436,618.940460510847,201.245079473061,1151.33790964582,176.773048074635,1196.62874897997,107.940218900876,368.277280959519,96.3088553786333,292.762937994936,42.7581597065429,862.76955718491,40.3042591723112,804.871362765421,-19.3668524256266,1015.82045010622,277.823397517475,178.532737315282,-23.5278214517283,1185.38998037879,-109.812383502738,371.743690040112,53.9953653071144,626.133626643425,24.0179519513343,2442.25978384344,-58.4907683843102,2141.36771592739,65.1774589649559
243.076215403013,-16.7245172631359,611.582178139181,202.568915574967,1126.52258224341,181.681187020588,1181.70921487212,109.446422333266,366.997434173039,96.3966269589062,290.660265387086,42.4033385950626,859.41892027506,42.0307688486036,796.102744507178,-17.2002464979717,1008.78580179829,278.749909488729,178.471842677331,-24.3558263036396,1171.51717745732,-104.56855994148,367.694242078407,54.9642495242396,621.924427139548,24.7905043455028,2440.97022936115,-58.1951143486582,2134.97268972037,65.4063575784352
245.866146958278,-17.2151607524175,623.156600104536,202.394561261783,1137.15581859151,183.101504887487,1208.0948433466,108.432275127158,370.446716672229,97.7454779053996,293.423550390417,42.0688655656845,859.742643968408,43.373878247635,802.178857532126,-16.5091194272491,1017.56463355564,280.376978873951,179.107243645214,-23.7028674797646,1173.94591816174,-104.647231051841,372.672483210654,52.9629865321329,628.760552158574,24.6305661910601,2469.31573690462,-63.553666489661,2146.59281561385,63.014562945708
249.005352139129,-17.7826538811302,635.303604478465,201.942535471602,1153.52472784682,182.640941457858,1234.420765856,106.5256813644,376.026514702526,95.3278640214745,296.116768123959,42.2890058965284,872.125886523898,42.3439010969985,809.774651867716,-18.9003580842537,1029.86302394383,279.69292296755,183.892912741553,-25.4332401864109,1177.80182645411,-109.825608168087,375.672922958205,55.5639045635816,636.471659021589,23.0058464757612,2498.73377524395,-67.2808021459194,2162.84963952446,61.8740221414028
244.315456243538,-17.1175070308471,612.685804343842,202.245288400185,1130.45532806765,182.167119652315,1185.13341374523,107.851619617077,367.982852047578,96.8287822486592,292.254073753815,42.2323502216694,855.066574306197,43.254768706887,796.716701375805,-15.801465558759,1006.82061867391,282.127775998463,179.79899846366,-24.7824862619908,1177.65166862364,-115.132090691776,370.52564555068,54.2042335231193,621.821965029959,24.3187907011629,2440.05016907655,-58.8838532873941,2131.03066921258,66.9997262640683
243.342039906958,-16.8712159023288,614.034290731288,202.569739659736,1125.56575887604,182.946715863953,1189.50869856281,109.074854906935,368.338208010768,95.2322759985348,291.481121044726,42.5355826345518,854.711398499964,43.1800826014163,795.049826808347,-15.5500710613609,1012.22751047281,279.11197026784,176.918408742136,-22.8613259882855,1166.82580279795,-104.398302826463,371.0427343347,53.2228112471916,623.177941135732,25.2825325744034,2451.07178806659,-59.7049382057161,2134.36460765945,65.8935245594291
247.031088311851,-17.5430838365361,627.027342265759,202.510227914781,1139.80742255524,182.780710682253,1218.8926744594,106.91796761155,373.998365659617,95.0935596829301,294.583835199827,41.9739883113399,864.602510462212,40.8933651305019,803.85607492042,-16.375457199422,1022.53410430705,278.794548653744,180.422320757409,-23.8691808306754,1175.39581462497,-107.016940994128,375.167994526856,52.8695581947079,629.972061056365,25.1882939380685,2479.1113944313,-64.1828013394129,2147.83952451921,65.2008566496328
250.511494994807,-18.0348353129638,638.426416828942,201.816855633532,1162.92091858993,178.069180813286,1239.83214260559,106.060297800362,373.517850865463,97.7206203670886,295.962649375594,42.0628041800986,876.581538917293,37.7874095986804,813.144388070138,-20.4415581683419,1032.87427248744,275.356620120116,180.811485051414,-24.8705063851896,1174.37218041829,-107.177818397027,373.768427487853,54.8126644328961,633.607210854801,23.3836436857296,2460.47204096835,-59.7586284488234,2146.18454260665,64.9843966564687
243.001341283017,-17.0321391634156,607.769661307783,202.591904073291,1118.48189656652,187.693687292935,1179.63284171193,108.551337203088,368.525701387546,95.9496080179807,291.143977028908,42.4714405605292,853.030808371404,41.9426454958206,793.675332946624,-15.5671464050493,1003.2747049119,282.949631252349,177.953383424963,-23.6382543611055,1162.06339867801,-103.374202012286,368.016647019357,54.5828726503691,624.508809229783,23.0145654149721,2441.32833297473,-58.6185927430305,2128.0731856619,66.157307010016
244.567268869861,-17.0853124783963,616.305618425478,203.676644792784,1131.05499443876,181.232665468339,1199.77667794998,108.152511928892,369.717896977553,95.9051956160638,291.897574666932,42.5372751187951,858.924971840275,40.6697504604775,798.505665687697,-17.5072324976392,1010.43670735677,281.837941492683,178.352614971058,-23.4389452100348,1165.54907425593,-103.337254047189,371.031246730716,54.442475596079,626.860648469665,23.049004771688,2459.20256284351,-62.0526995600396,2134.57352177367,65.8811711945621
248.217666816971,-17.7968095369909,630.310794482144,201.504522974416,1145.26695884349,181.37500996181,1226.69858472828,106.542095211717,372.769972257342,95.0444102762513,294.471743550552,42.2872240415911,864.848339030691,41.6539099502493,805.628272159502,-18.0835364584985,1022.61775584963,278.90089806916,182.128168364063,-24.848602538132,1175.70996786845,-111.884206316046,375.879752914247,53.5141036964804,634.447703892457,22.7024273912199,2489.19932559913,-66.3478627099786,2153.19426778624,63.6944260854746
248.522833788238,-17.7103714375409,626.292329758315,201.00419407974,1146.30225363629,181.516981798452,1208.39422302735,105.372002344938,371.554167608765,96.2471244334334,293.737355185355,42.0417199657011,863.39710460015,41.8309654819765,803.418495760214,-18.019112231712,1013.3709406022,282.273534896656,178.562530849687,-23.7545143129842,1168.66747362365,-102.993124679322,369.36699673977,55.890113228825,624.873115748372,25.7245358895812,2444.64132684716,-57.2738386852172,2136.6778065569,66.0607754070595
242.719908047486,-16.7855221661955,606.836015789753,202.387815186494,1117.11258652908,184.490271906642,1177.31765471897,108.185926733396,365.477475214657,96.3030526440023,290.026864011792,42.9287501879228,848.215940432535,45.2196888205872,794.228568825632,-17.0199549807839,997.796373643864,284.398897428052,176.606208967187,-23.1305200484393,1174.17583696211,-107.004273962363,366.24811188732,55.7484778040212,621.234836276737,23.4322114399393,2434.97710924028,-57.9297732443574,2120.05241145003,68.9190842623922
244.327295345447,-17.0108036568795,618.433300349957,202.37127254011,1125.29158174044,183.230131485219,1201.49437015538,107.933621077321,364.526535315657,97.5778406557256,291.982114686773,42.2766930522777,855.490096602957,42.2185334696157,799.503822383938,-17.4238960390871,1011.48192308733,280.942401598232,179.401530699532,-23.8851930320132,1163.0871183413,-107.202816189918,369.342331198753,54.4090000143501,626.510985300721,22.8753764325487,2458.37570081347,-60.8030787007216,2136.22834048635,64.7862223116531
248.399699332377,-17.924828449227,628.943632584607,202.15244665211,1141.60165989752,183.521585578834,1228.49558882351,106.293360962514,372.645538846131,95.4694373551016,294.757771454871,41.7686285676896,866.333655377343,41.9811576369645,806.572571905317,-18.8259472817092,1020.00595533573,280.3409169437,181.131124338349,-24.4528537934927,1177.49871697811,-104.278191156969,375.816709444047,54.0739546537449,632.032517657437,24.3342192356939,2489.0226926931,-65.922460208385,2149.88413160752,65.6017304591385
246.651339733892,-17.834022165408,617.72431745608,200.727991997774,1138.21800186393,180.41746834371,1195.96861620151,106.874339746493,366.347857041156,97.4693416973456,292.276910429172,42.4676226359293,859.568477500442,40.4092040994766,799.444037951341,-16.5441880776527,1008.45181069076,281.324043111548,177.992426502513,-23.7372187729074,1173.70984670061,-105.201019224654,369.224223672198,55.3026419222563,624.58923837153,24.114366243966,2437.99920952858,-57.3233438551496,2128.95309910736,66.5839297597163
242.099194542446,-16.5152150848785,606.964704595376,200.761637858514,1113.6190522813,183.245401874724,1173.97588587921,108.485778240096,363.98484110065,95.4616488111225,289.71892917811,42.5641776219386,849.533692812841,41.7879997725166,791.042936859713,-15.7896830771337,997.982080079174,282.3732195674,176.983431351232,-23.8658713000858,1164.08799123355,-103.759216133262,363.713158439016,55.9999959587825,616.683210065156,27.9874305206311,2430.38189485693,-56.7676177705356,2119.39683725839,67.768387589789
244.856167445241,-17.0859278030767,616.413186996618,202.47303964511,1122.83501297122,185.045535372936,1201.0230708244,107.875891029884,368.217153619342,94.5970617460016,291.857886086747,42.2713457770219,853.456738306108,44.2777328237104,796.044344884628,-16.1361157047172,1013.97946803089,279.819502230633,178.387810438651,-23.8247692223183,1166.11780800478,-109.20214206855,368.6477716885,54.4891104007602,623.602637506121,25.2554383801719,2456.72490579452,-60.8262603669163,2129.66358216312,67.3181430981111
247.69625940596,-17.6690520580388,629.106849409132,201.486540615461,1140.57741706892,183.73242873022,1229.55977513446,105.611740086816,371.905985256436,95.8245387783614,294.506327729964,42.0880293791884,867.04673263776,40.2601690597898,804.182310387341,-16.4489606212005,1023.23192365524,277.726792714787,180.128989330678,-24.2387917843421,1177.9282625154,-102.447695527578,373.594079821654,54.6943372450331,630.046744476083,25.2387072161835,2486.16140353827,-66.5186519537076,2151.50273327934,64.0448555924451
245.563899713526,-17.5828008884207,612.606979577544,200.821697709342,1125.83742563776,183.731924424919,1190.75418402109,107.073979124311,366.042380064188,95.4263346522673,291.568916915919,42.3590746586795,852.870200844558,44.4493784351738,800.718217286814,-18.633891368942,1007.67685476536,280.432555044901,179.386990760236,-24.0872913641142,1157.33412457668,-96.8789854117362,366.658044377066,55.591358060946,620.271239983497,26.3529099291479,2438.10090601046,-57.7034203501831,2125.36815937764,68.5041029197815
242.856633258598,-16.9166411939132,606.897598500292,201.659589806767,1114.41315650032,185.119473904015,1181.36302935575,107.752284090695,362.086180280172,96.8429413136646,289.861372667294,42.7319672514251,850.046431846545,42.2001337969261,797.441889457902,-19.6126406336357,1001.66369053997,282.199745277597,177.588126664454,-24.2059540523166,1164.68008325946,-99.7399360454343,367.005758507575,53.272252955602,619.827030196645,26.6641058180446,2443.15431605881,-58.1924204119233,2122.8882278062,68.5914870618635
245.933715313409,-17.4664384103954,619.817427708049,202.097133049195,1128.3672177994,183.634896168366,1209.5387225733,107.133527801229,370.441879844039,96.3569888882714,291.948979150722,43.040812272174,857.354715152939,43.9596347290502,800.655360412149,-17.3705622140669,1014.56444019253,278.719445841377,178.213462870408,-23.1873720552578,1164.23844193929,-99.9420351574162,371.897233631608,54.3383847739649,627.179930241155,25.2021885012258,2470.1008009059,-62.6278113515001,2138.01314720564,66.09671252288
249.436089624418,-18.1591366036305,630.6847357775,201.706677516514,1141.98835879834,184.507537437069,1235.4263152165,106.150433918009,377.148922037017,94.3036093035214,295.271980636491,42.1331260879475,870.171358909145,41.4766895744907,805.118259659582,-17.570210225571,1022.36991807829,279.958510006737,181.645888991385,-24.4397861565106,1186.5524149253,-114.774066173281,375.922540854764,53.3930685495466,635.068965430172,22.751622102415,2503.10487746888,-68.3282987453966,2159.45515429762,64.029680720957
243.708900246877,-17.0004236815845,608.622903845415,200.427992287235,1120.2303781118,184.576913473722,1179.27098244877,107.176771030212,366.600551305704,94.3251567106414,290.765571611317,42.5806697220639,852.891490089866,42.0301877252871,797.538349382173,-17.3769171503091,1000.54042384599,279.176473245526,177.375784376198,-23.6807302221178,1169.28426382348,-104.281820915264,364.624015659289,55.768524616718,618.874591299705,25.5530684788008,2438.26950827896,-56.379553089008,2127.41173943994,68.3673169847667
242.966511603881,-16.8338086252536,609.286463812197,201.074523608342,1114.81708927344,182.062196445243,1187.03111115143,107.420560172282,365.338724270046,95.7177456804289,290.559380476474,42.5592590266863,852.764982921993,41.8544092537399,793.698444735136,-15.4448054646795,1001.85082381903,281.365855981816,177.992109815859,-23.7931584480413,1159.06153441713,-98.0655558885709,368.430631036648,54.3175518199194,618.765230148198,26.6365419158872,2451.47470181698,-59.6804224794064,2127.76217395455,69.4879262618606
246.993187086957,-17.9138745959917,623.3618065246,201.199570598252,1129.83000938358,183.104230969053,1217.26292921297,106.371237901088,372.359509016898,94.1407775546978,293.963894363815,41.8502528750527,860.41440445143,42.5044745774583,801.093632987502,-16.3284384828623,1013.15415179211,282.403930587701,179.960397694412,-24.2762202042888,1155.27233465379,-93.8870237820897,371.140814700009,55.3795200470587,627.484596949704,25.1182927291883,2479.40196471191,-64.6580088556465,2144.9485143782,66.3237157731327
250.384641538055,-18.4725907482292,634.702943147608,201.318576867805,1147.53927625695,184.853735422955,1243.90216691986,104.383707643222,374.57419462704,96.5983998883872,296.679432167341,41.8415298249462,871.478033056439,40.284180912735,810.157720086079,-19.134116955353,1022.62478568,281.752164013715,180.943946617911,-23.6774349545764,1177.50406732271,-113.153685781405,379.305725399627,53.4822968424528,636.496931859328,23.4107720940938,2511.15320805854,-69.8374507512424,2164.35984707848,63.7152215345602
244.094979305955,-17.5698789023311,610.910113005807,200.545174105163,1121.43131084955,181.514063035183,1179.12177049787,105.674142639388,365.136002819817,96.0901152369292,290.917778262994,42.7836718325976,852.430750885609,43.7841551575753,796.010320476332,-16.8762051647089,998.925903765339,284.865977111027,178.409962096943,-24.0620672472307,1172.74625051456,-101.011466259123,368.269686851309,54.2036081928784,620.580788264783,24.561299792987,2444.45829962831,-59.1643331279636,2131.95966236487,67.8912691090643
243.048760384299,-16.945314619259,610.345267559118,202.840666874113,1120.6810496544,183.658863064274,1187.81727779655,106.958656933978,365.96233908713,95.6257119502986,291.23530537727,42.5826322426386,851.888086147713,43.8716854139345,797.458116015765,-17.7808045276891,1005.43994745637,282.49948197075,177.874832613313,-24.0833307673233,1160.16557314079,-104.305487103831,370.058570237714,53.6887239375075,625.123713536959,23.7151478148445,2456.03366198295,-61.4024306350783,2132.70769257213,68.3657749081519
246.558758512724,-17.7641753470537,625.320780949625,201.118413769489,1137.6050655685,179.899260381036,1219.32758908654,105.325570207101,371.537632637645,97.1152157661306,293.910529061342,42.1090836608175,859.138955411181,44.1185086696857,803.639554178965,-18.1501140791636,1016.21346068788,281.046990966871,180.697502431783,-24.2695167394241,1165.67961589847,-107.421869099001,372.914807394432,55.7524789177007,628.732646803905,24.5786912217588,2486.19870958849,-66.7064141497225,2148.88220966456,65.5131138523322
250.542495226719,-18.7256952509837,637.736434325338,200.916508016249,1155.63769227585,182.166653258441,1246.9000950181,104.079544748856,377.660527959901,94.56524646739,297.26955339372,41.764135659164,873.627128698289,40.7357718847399,809.608147970482,-17.5860076169593,1032.68892578414,276.853127259818,183.747519771999,-25.0664513026858,1179.33824175291,-107.395989509457,378.45345613201,54.1380095508242,635.881573532879,23.7621940597819,2519.91219068605,-70.365959396756,2168.62785309985,62.5154563131277
243.822250607394,-17.5423750469397,610.824590802668,200.167379161031,1121.57594443915,183.635570450174,1182.75244749692,105.378191586206,364.928647193617,96.3403531894197,292.139339370359,42.4027914668187,853.854873249419,41.696778378212,799.336131707315,-17.8984996631448,1006.31444211744,281.571918076495,178.868845607039,-23.9756017962882,1146.11604732805,-89.2498708354643,367.567160383823,53.9059307927097,625.611972950006,24.0014378544914,2456.52574964269,-61.5670985677646,2133.52607269746,67.542091810185
243.802268096969,-17.4148096996371,614.8411331862,201.978218772608,1119.8598848129,185.556194170634,1197.82051298286,104.834261017194,365.845185521,97.5211235857122,292.160190220342,42.4631799716934,854.090945634017,43.3735019499761,797.23044765907,-17.1636353387469,1009.92953808003,280.827067220986,178.397713652262,-23.5569054850623,1164.97949383608,-104.352559739308,370.386477076589,55.0700959370498,625.253670907452,23.4651297405502,2465.69654658104,-62.8376538131816,2135.90435497584,68.2885140278974
246.822786500167,-17.9829579217647,627.656420853619,202.365369809201,1137.20228062424,185.113515352537,1224.25624484065,104.631143451697,373.632290939814,96.9910025352109,294.184466556088,42.454936273491,861.950686907927,42.6612339818171,804.611000660085,-18.3567679321539,1021.73401153554,281.410552446702,180.594944352691,-24.0465582797944,1178.24654428056,-104.884751432798,376.070764223226,52.7996561890811,633.119545426286,22.8535237981084,2490.07852316518,-65.6706606385132,2153.17919994774,65.130000397958
250.069130651834,-18.3818577932581,636.511032101536,201.252294123358,1150.64278428044,183.481462790804,1226.47506868672,103.482269496773,372.463192965785,95.3946367405486,295.533801744297,41.88003533812,866.767836027346,42.4372378828018,812.766702967055,-20.7996897738924,1021.05554308065,280.018985958056,180.072119332282,-23.8021362817956,1185.45279770825,-112.49806882763,371.662341795617,54.5273061634542,626.453578132768,24.0784049248103,2460.02183615236,-61.2946087799424,2141.52267783336,67.3250897718553
242.943858742075,-17.2672978988949,610.709119981396,201.898627863514,1118.03240642731,184.254745291717,1185.87126224437,105.586603403198,367.780985366962,95.35450072644,291.469868821084,42.6050548793912,852.15686304505,44.900322859383,796.847116873651,-16.4523935066174,1007.82782712223,283.149917605574,178.424017552373,-23.9916824602574,1158.02827548222,-97.418477056534,368.575484408371,54.5804167397964,620.011067159191,25.9998846574864,2448.44332570201,-60.2995666528017,2129.67988353728,67.2360971436512
244.814966069809,-17.628124996263,619.590803925287,202.932024046052,1122.64535132571,186.090673426146,1207.55630130447,104.70006963732,370.341457047791,95.7590163053044,292.803892342095,42.2799478132222,856.273170440515,43.513132969077,798.264546542487,-16.5878629921914,1010.039246803,284.685797239703,180.102210930835,-24.7571143128074,1173.23564694883,-109.491597987925,372.069622231066,54.2094463443306,626.552610286898,24.5311161305606,2470.42566356724,-64.7962120714234,2136.60351073549,68.1721161106693
247.879448188091,-18.0658458646115,629.791713229263,202.376735245553,1144.01179236379,182.635242245537,1228.94383784897,103.861500353212,376.606230884533,94.2201418173396,295.064577767598,41.812836059424,866.947320021672,42.1272750869615,802.744170937737,-16.9450768271198,1019.61586707742,283.338631522953,178.927022010039,-23.6367382829796,1181.89154542719,-109.736891200778,372.192097403977,54.6368001971327,629.10629523535,23.0321428689281,2450.83637670828,-59.9153337004783,2134.97121555495,67.6978795393129
240.605536666484,-16.6506200746872,604.71929749176,201.309648565293,1106.8405520682,187.280355460506,1173.54560440417,106.017567490745,363.776155988464,96.4563145657402,290.512796938695,42.3616638431396,843.998558250081,47.6559467673621,788.857941637142,-14.7707523908122,999.091384094578,285.596736688236,176.83617280853,-23.1476536609686,1155.98351716928,-100.75967881952,367.244602734812,52.8944620444549,618.712447511947,25.2282687335819,2431.96187986857,-57.2264358497023,2114.7774324085,70.4851436835584
242.814971159862,-17.2803292909545,614.343938691258,202.476199580823,1115.5233347436,184.689234408366,1193.94519694355,105.888297271789,367.039411138813,96.6879650656704,291.222058728998,42.6074817854859,849.623473598596,46.2727834758124,795.229928071877,-15.8900535123546,999.193977909694,288.722244304327,178.260693380632,-23.4054292281162,1159.83848354748,-100.698833708235,367.045075990238,55.3871652404292,620.588064881179,25.3561271735369,2451.44480770399,-62.1032308582813,2120.80356643997,71.2938613093837
246.131312536243,-17.8095516408724,625.07003767167,202.587414544665,1125.65293761471,188.352543108569,1220.46508044351,105.192919509574,370.451573956892,97.6264965442398,293.865792281294,42.236093955765,863.096190873577,42.3044531292334,804.599465591719,-17.1707806736715,1016.39750632919,281.43239481536,181.758815313156,-24.8945812359875,1165.51890442869,-102.565095329697,373.419714557887,55.0102362934848,626.317571277662,25.8552288911144,2453.9953991414,-60.7607754025312,2129.67074166438,69.1121842627616
238.813003870688,-16.3197948797564,597.907586730608,202.643997695824,1103.56729836331,183.381894052034,1157.14919391277,106.174422679962,360.947805841765,97.3852054122786,288.479172903005,42.8296883325662,841.878941801042,45.2787487381591,784.284333597443,-13.5374374137535,993.37865270446,287.417697718341,176.468990405626,-23.1511563300113,1166.00058959691,-104.544576214741,361.177963690728,56.2214132737306,613.879666992346,26.7716487671041,2412.07998577565,-55.2768284536494,2099.46701883568,73.4807194941183
240.31996831486,-16.5868533420898,606.653698887208,203.346688909814,1101.6415571793,189.465438463821,1182.87887982005,105.886283865508,362.199170577091,97.2728929919009,289.447637551935,42.7823708262029,843.622356251984,47.5661456829144,790.324117901784,-13.1706614479292,997.368324708625,284.332377409392,177.572210085948,-23.8032378925202,1159.63597969997,-102.755152206246,364.546942461448,54.1524675526078,615.399722413344,27.1734572740354,2429.70741957448,-55.7265193096841,2107.22061054387,72.4066803325101
244.412715445839,-17.4535860615412,617.559797870679,204.40895864806,1122.49701770582,187.142235383185,1211.22633669534,105.343342574489,368.685914584785,95.6364585247898,291.95406470668,42.699876544309,855.007930347202,45.0472773578656,797.021139636529,-14.4718040992654,1006.56892422358,283.853972449715,179.314050921008,-23.35349948314,1156.70678733044,-102.129422219447,369.307964865133,53.9495476811588,622.753164219384,25.8731969752991,2460.06643886133,-62.0486721852741,2125.42698724625,69.9818726962631
240.408029243801,-16.8368656159894,597.768052810817,203.034780415308,1101.27178586811,189.371214403039,1161.24040886524,105.139145077471,356.920518531487,98.5201877127449,288.089470922789,43.2948888791068,841.347116625091,46.9588160139507,788.136912591353,-14.7561631088024,988.930999685185,286.086482318609,176.014806459172,-23.2005126854867,1154.22382738048,-98.7881436990325,360.321865698107,55.9575482837383,612.302073365535,26.7875175536852,2400.72715006655,-52.3852607749651,2088.93586519682,75.2873428672069
238.045015207334,-16.2127814103404,597.335614688565,203.402332645121,1093.02242798563,187.753894805088,1161.53782209995,106.266600853826,355.338321029562,100.149087802542,286.641823951637,43.1005009916863,838.109035275388,48.2380807423934,783.529729747063,-12.9749917892871,988.954642638141,286.786972811459,176.83830231519,-23.6974953446012,1162.06032018883,-105.107742729005,357.958856102396,56.1395193838155,610.496056800135,27.0775838365985,2405.58230490933,-51.4261801060323,2086.6941791556,75.7908130830233
241.81169129926,-16.9009295233915,610.24178091526,204.045704710266,1104.1550440028,191.679552454813,1194.56881020097,105.391023763987,363.108288896386,97.4590299575725,289.396785280684,43.0230531607265,844.521145660593,47.554900583271,789.119274120405,-14.2048652227155,997.503919358059,288.208129338233,178.660751398217,-24.3574235972401,1148.04693997934,-92.2000295926376,363.042267024302,54.8156040266197,614.799440469635,26.9892878098968,2437.94527840193,-58.4104457725331,2103.59493254824,73.0948838482417
245.353547509795,-17.7091283709381,622.929408838467,204.466549190168,1124.59932921551,187.214690785911,1219.52887382587,104.02454841839,365.758199102152,98.6090967898559,291.919933730761,42.7109195977662,856.233453958714,45.4595561285905,800.504508994747,-16.8287375678849,1006.52368340565,286.060192581994,178.569783260683,-23.3083817699956,1160.88839711741,-99.5100795282381,362.329587530881,56.5203400845537,617.262582986606,25.6448468697628,2427.5891825631,-55.7808851365099,2104.09131862861,72.6649941695965
236.999042512874,-16.1654092965737,590.555483879919,204.945419252804,1084.96427516451,190.828606520967,1152.96090197673,106.624263440242,356.295294568124,98.212597369781,287.295308521138,42.7341003887793,834.359899666396,47.3945338527182,780.343948455824,-11.7275017776294,985.878101610142,288.059678628945,175.448175479706,-23.0863104719653,1144.99702844182,-94.5151846492474,358.196893145359,55.1015390913437,606.658305255964,28.1884802408061,2409.53542293382,-53.8778068583537,2085.86771929666,74.7196735040778
239.299380423107,-16.5061909381675,604.241872194511,205.221716726491,1095.05446823239,191.407488181363,1181.98072517428,105.506004079345,358.563230099426,99.7152210726038,288.279611384593,43.1356704978302,842.987316485236,45.9774862398132,784.347397503459,-11.6834097296088,993.513051535523,288.790054852914,176.411300587355,-23.3476831798749,1166.69921934412,-109.990058674988,360.172646533939,57.0760505723989,613.025312799028,27.2424748832505,2432.22960979584,-59.1309558085845,2097.15845734401,74.2658354204748
243.55199453745,-17.4908173158213,616.731912147222,205.488615509989,1116.85831265935,187.729299870979,1212.39294946302,105.582612937569,367.992155444121,96.5348168551353,291.3302956663,42.8674775973551,853.915009391124,44.090519179441,795.819906772675,-16.459689879265,1003.87954463209,288.162802360964,179.554957846147,-23.9146561268289,1167.58180907047,-104.780818218995,364.500000840837,55.424532992561,622.137090124219,25.0826527056616,2463.46360308097,-64.3338801482093,2119.47462484381,71.8217815911632
238.743625373649,-16.2673479734317,596.25397774829,204.305268074376,1098.75464916571,186.223686084354,1161.12564637492,106.815395925302,356.674122012796,98.903109130137,287.973102851598,42.9861223249721,837.429781983313,48.637815545135,786.780924691086,-15.3735425961282,985.076496870361,289.31144070224,175.198593114216,-22.7043482219385,1157.07938737193,-103.902429732843,357.78504395385,55.610326481019,607.854301697168,27.4896627010561,2412.04170233123,-54.8229036908103,2092.39960550623,74.7834679123685
238.137150300489,-16.2493181380723,598.881124377369,204.981406629081,1092.67004049685,191.70473001673,1172.84090718144,105.465746430196,359.189854915543,98.3979052634169,287.732955569585,42.8120572906061,835.919503418321,49.6579251448876,784.721459498252,-13.7782456098109,992.329916204714,286.168293491968,177.247823230985,-23.9553001090475,1151.5532593718,-98.7499493394947,356.014599439873,58.308491280487,610.236220438968,27.2709186097569,2428.17264228005,-58.0407052107289,2096.19914547575,73.8908191396822
242.819096355585,-17.4038315153195,612.859610084392,206.122489414718,1109.27030008594,190.0337847053,1203.48897247876,105.538413142833,365.286606608467,98.1386366019293,290.442689439265,42.8602729938247,846.618588701661,46.4905268333298,791.612898975549,-13.7131487360445,1004.43713607612,288.574564577629,179.381632784085,-24.2595894900598,1173.58075341592,-111.614150379928,363.237753435617,56.9144666546432,618.442873776932,26.3728218745461,2460.53353483794,-63.7977718079441,2118.38477630676,72.3810788692836
240.039552232672,-16.7256880076943,597.100562977048,204.734750829707,1099.42147946671,189.237484343981,1168.78490313213,105.153619495206,357.30779530729,98.9238759512162,287.317445466721,43.5009708576957,837.958985779973,48.5024247164728,785.656008598852,-14.0813377222984,990.563790475334,287.454472476089,175.868166892491,-22.459744663726,1157.34526259132,-103.676660777178,357.999150054269,56.2928163219009,610.248532990484,25.8608384227684,2418.17562444435,-55.9551309925164,2098.69385230097,74.3211216341813
238.280914815878,-16.4003398232815,596.470060283698,206.639427571375,1091.70081544766,192.568602080744,1168.35710709885,106.29746624169,358.767423330493,98.6641049209459,287.24836367774,43.1419583034279,833.963824375493,50.2972888625131,784.690203813442,-13.5902047992116,991.83670644651,288.979421732253,176.3580980885,-22.8902991054445,1140.10549107764,-96.7422507331084,357.635751008213,57.0943974117128,607.279542694242,29.254058553646,2431.35554137212,-58.9110358897652,2103.35652712666,74.0139139471486
242.436849327859,-17.2543685295803,611.57542390688,207.127247235387,1108.68938904352,192.330571228592,1200.99048508916,105.202184128981,362.622015008845,99.302743785492,289.809245037755,43.1786503184522,847.413652763817,48.0514914101491,791.603306106071,-14.6033773888024,1005.0004612018,288.179282060371,178.319153020922,-23.6384265244876,1161.45722638357,-101.584212374644,366.687333766528,55.467385403334,621.77647151299,24.4660195515702,2463.97998423356,-64.2999127817238,2122.50373821521,72.2762909492424
242.196045039616,-17.1700573023213,606.051899680404,206.09727155977,1117.96398812495,190.434527444313,1179.80725838791,104.688952607164,361.532756129275,98.3955729331275,289.354748521861,42.8085831652309,847.356276748336,45.1252877110644,788.649260877151,-12.6975124037252,994.297530412951,289.897334446778,177.685854869341,-23.4349181642193,1156.2088496356,-95.7559042939219,360.242219934982,56.4703480355383,614.541605408639,25.2335660329532,2426.97462815992,-57.1585599037125,2110.20890110588,73.5221294114259
237.425970871589,-16.3325158407664,595.756034693445,206.921362446506,1095.41747708238,192.069627709828,1162.95040810973,106.844938498611,356.877765208729,100.400928486538,286.362660956689,44.0042927089481,835.922495326799,50.2132412837486,785.84615929677,-15.1597008867651,987.017453750484,292.587174682197,175.4872341023,-22.7017256668716,1160.97729562974,-104.881465940708,356.701921979502,58.6231198795254,612.317016956655,27.070218734752,2427.41820234566,-56.6977321807118,2105.45829063407,75.1165516749133
240.570050256199,-16.7814491430245,608.433803259225,207.676609287109,1106.96025784886,193.514277213891,1192.34730997201,105.3055883738,363.550474087597,97.6232056535229,288.555840219926,43.6059760780087,846.347952834023,47.5921827014424,790.321845290079,-13.0020927668964,1000.12082935275,290.712737478646,179.164230221376,-23.9425903906755,1156.79028950768,-103.898274323226,364.9506304684,56.2591363934144,618.098522295422,25.0538636656583,2458.43288491305,-63.5569585606,2123.19861318216,71.9647328412182
