255.843014101322,-17.9341185598372,608.687014287004,204.881914197437,1088.5310890636,216.194740918092,1278.04145226472,112.976322504656,362.778562018373,103.525244797501,288.296633256233,46.2475873542692,842.742529414602,64.3722989169051,800.233173069527,-6.63503656515895,1021.68385372589,311.324414808045,180.544647337439,-23.9671887792435,1168.08210484947,-98.0773486623595,358.733008916358,65.4890547001037,599.641843988262,34.585464430402,2420.85457578677,-52.9361986755248,2051.03845425485,107.050178742475
259.6618921141,-18.597988783404,617.28578750526,205.889922134115,1106.67859649764,214.973436587531,1304.23147577259,112.346773100348,365.725891579095,105.683474192284,291.796166638433,45.6973292118386,848.230601143268,68.7875951951717,807.086536002295,-7.01912357048147,1033.96814311191,313.963526911955,181.850463741038,-24.0573674889406,1188.14606159564,-108.206723175405,362.145446080765,66.1198787649598,605.5596047716,34.8391030849887,2452.08516934302,-60.3175595125524,2074.2933450544,103.7748989516
255.758545812732,-18.0832278219805,600.662370264267,205.001070238788,1090.58936694244,214.926457038829,1263.13124325331,113.255593950299,354.673082932798,107.821767184856,287.326324526416,45.9838349799752,837.547886834968,67.6426236180155,800.344339838954,-8.20517682379064,1021.56295982441,310.017013918792,179.285631720234,-24.0697145902866,1175.51930803031,-102.598376071563,354.683484590207,65.6922151633009,594.451939062956,36.2131934032804,2397.83453706203,-50.9302033671229,2040.79933559135,107.785258096739
253.769285652107,-17.5147886336691,599.014507081015,205.43005088473,1075.35876142241,220.714580821877,1257.5527671538,114.522681173365,356.511178765424,106.471898224869,286.83658331754,45.5899009339296,837.822741781892,64.6406699173517,795.664930555466,-6.17257637402352,1020.0439758055,311.459116327813,178.182297227408,-23.2502796489504,1177.69058588739,-102.663031640924,358.055240393783,64.9853445253817,592.334525669739,36.0281475135476,2402.12220364016,-51.4419123108715,2039.18717516906,108.46192729819
256.935486621791,-18.0927649350258,610.023005455719,205.296626417183,1097.77250247741,213.566736838495,1284.37125688033,113.152916857945,361.661277902683,105.595184466039,288.89901884433,45.9010347424279,846.367412015532,64.9607189870902,802.059842503985,-7.4244383986465,1027.78404325894,313.202759520695,181.128633976569,-24.5169911975433,1168.93452569434,-99.1848651554684,361.32173354137,63.4957376931289,598.52316032966,36.3494431424751,2425.75011362767,-55.3946951064891,2055.30953865003,106.993003447523
260.356742547616,-18.8132307661441,620.846922953802,205.314524487017,1109.16525756619,215.437184368722,1310.56822099754,111.675000746845,365.405091330658,104.831565445269,292.290642458663,45.4236235506599,857.747808250687,62.9583715812924,809.663496542524,-8.21335229370693,1039.21959175718,310.869050382981,183.414992911514,-24.5868850000565,1177.94654105435,-104.461486069547,362.667119347837,66.8377674634246,610.206388488761,33.7473058705932,2457.21075438263,-61.2427176050808,2074.97000346879,105.161209674719
255.028368053937,-17.9505663714478,598.453228101909,205.834720916695,1084.53327068709,217.042064227615,1260.70018120751,112.326078011939,357.704339346025,104.782824898668,287.558488482551,46.1089030658693,836.79323076998,66.2946170042805,798.199189729913,-6.19936296228347,1016.08025683279,315.464129281975,178.096592778887,-23.4188994186594,1161.23487677033,-86.8977954555694,353.723783003965,67.2897027105397,594.821373863101,35.7345080063267,2399.5421845349,-50.9260590404797,2040.92794694681,108.356588657868
254.891047113894,-17.8442783038844,601.520434089788,205.874171850787,1082.61925647398,217.422567680533,1267.18067348515,113.401384064094,357.560565463965,106.027895228284,287.559841447955,46.1531725611952,837.870272670408,66.632827139784,794.51933191543,-4.63986711122475,1020.61136586098,313.770128516333,179.32752882031,-23.9639624777353,1169.90919442735,-99.955407169615,356.110853757557,66.7535730581265,597.87902835277,34.2447562464615,2409.50011436569,-53.9988277904258,2043.98762328956,108.483635728425
258.400374832069,-18.4416540288311,611.605923327231,205.956506234828,1097.39128900179,215.840125345587,1292.28061737076,113.077929072931,359.709588214854,107.661020141418,290.805839210973,45.3005930310668,849.6986306919,66.5218445594419,805.597709170246,-9.04841696753342,1030.2640536424,313.472678686681,181.485952260037,-24.8770490971108,1188.74627007544,-110.731910544093,362.000106480409,65.4142689944449,602.457289015806,35.1605720504156,2434.57849725989,-57.8093964807391,2059.66941899359,107.251117158663
261.905876153635,-18.8921878129005,623.422934830673,205.946044867277,1112.28062997492,215.242892679786,1309.68211526169,111.152326291843,366.075277792641,105.133326501748,292.283578988135,45.4927877017911,857.959253736644,63.1975296964918,812.019651910972,-10.0759918217241,1039.97301329218,309.870667483118,180.985034915896,-23.8392463840661,1184.51336732395,-101.282869790696,360.42387988223,66.6439596659443,603.584636440498,34.5268001083326,2412.92823748296,-53.777408959111,2056.7035403479,106.167805494856
254.390019796617,-17.5485042982629,598.14378089053,205.30852591122,1082.71650500425,214.808816214439,1258.41699551675,113.732495429784,356.323936784683,105.689655387043,286.929345659311,45.6865025295353,835.974655022885,66.6976110578818,797.511196751586,-7.31048091771994,1015.83654429723,314.441756978742,178.640204044234,-23.6150611344885,1162.77128921358,-96.4254556908175,354.913748974083,65.6077314229914,597.796532691012,33.5478662539015,2393.97601937093,-50.9243451978047,2034.70494687969,108.556480376465
256.070592154199,-18.0237812827898,603.980603326133,205.759798537317,1084.19308009177,218.338009908786,1271.73333184875,114.162465963227,357.752489290876,106.168866912281,288.675737967434,45.3413065135156,841.139070629289,65.2045290820984,796.613998479459,-5.55144845750308,1022.66108744015,314.219907273022,178.737799012114,-23.6954246856003,1172.9872484548,-106.08728425661,356.36232672273,67.079191596597,596.797711978526,35.4016414296683,2411.62688547379,-54.4577261184875,2044.51643265105,107.166328671049
259.048388506105,-18.2948634349274,612.615466408986,207.339883990733,1101.53560183987,215.839147980667,1298.43104837127,112.369391582927,363.364812223108,104.579786523196,290.518097027079,45.6642939120763,847.691170093647,67.16760768913,805.136314643562,-8.43067633650576,1030.97306387772,314.878909238529,181.043806450456,-24.3463116758703,1170.4695470097,-102.673276473231,361.799046422751,65.1703516641864,603.881994584355,34.1337653738578,2438.73014694428,-58.6414456375905,2064.75121102633,104.582605776866
261.367686870288,-18.9273272653081,618.860094477181,206.501542577911,1116.22503235897,211.624087412171,1297.32102664932,110.692214315917,363.30708324268,105.37260219403,291.226681819409,44.7665670012881,851.492640663635,64.8220800254538,806.547189567678,-9.20806807355767,1032.8535902744,310.397536160379,178.733557134588,-23.4264175552784,1180.03018880189,-106.90028226671,358.008486105616,65.5529660753522,602.762405184766,33.0307649570106,2400.85833392394,-51.4724274196707,2044.94904897243,108.23987664162
253.822562547021,-17.5298718910661,594.162061134507,207.336987345232,1076.42262134227,217.588391012366,1254.34433889774,113.471026070491,353.335939911092,105.778283168421,286.397144194254,45.8323927042986,834.403557622437,65.1730368165432,793.00812883896,-6.46931027938817,1013.80530910598,315.179779955991,177.411362221012,-23.0338407447635,1162.55479607337,-95.8577751087128,351.723316480947,66.9788908756594,596.217267552014,34.2566571000004,2387.72964487971,-51.8918818607421,2027.83339926129,109.82548857718
255.48704490421,-17.8554033136984,600.348358506944,208.734187610689,1085.84576325635,215.667902898165,1270.84576653981,114.177892029189,357.040823768111,105.55389748676,287.740408828898,45.772136972632,835.373360826282,68.1613298431598,797.991403321039,-7.76257530334958,1025.82673835794,311.407085051855,179.615713528447,-24.2231569664802,1166.77741083934,-104.49988214578,357.148057753153,64.8132226890542,597.806609636727,34.9665260311505,2405.43643490077,-54.2110966925259,2036.6924669618,109.903061761602
259.085816130677,-18.5833778846041,612.598778753592,207.014986361373,1099.95459950174,215.00770893414,1298.0641959375,113.019118666364,359.488339461635,107.218099806318,289.666924632114,45.9287625347552,847.784600179889,64.8439681484862,807.053012754479,-8.06785178687931,1031.98343704494,312.091553389043,180.651755144334,-23.1876084862572,1185.15812518039,-110.811313362919,360.592183242136,66.4424968847799,606.023460444786,32.6817957594347,2429.86047157296,-57.9557390495331,2059.45557673157,105.769115421391
258.617521280773,-18.2645108293042,609.680688722659,206.63354681908,1104.73930630705,214.145948453288,1281.32526184473,112.803121458267,358.825418722223,106.363268816074,289.194618059201,45.690074150213,844.745671287384,65.7284384775996,802.346324226541,-7.36897253667402,1023.42308044571,311.842995101756,178.964003147505,-24.2119294305196,1177.22277612759,-102.533302219904,355.66601570455,65.925155469009,598.678535388295,34.1903183893896,2390.96150333103,-51.6539078068536,2036.39196606063,107.952016855905
254.24109404453,-17.8848308347938,595.253858380624,207.152721583038,1076.83206467462,217.409724663878,1257.23949520918,112.363590184815,353.977063952255,106.077328239553,286.306405384592,45.6590841137492,830.890121063729,66.334979418118,792.191282704688,-5.93740024959054,1011.84908302898,318.549659547913,177.374714694566,-24.1228548485555,1177.55120975262,-107.905734223898,350.338688635556,67.0791014007295,590.565490036367,37.1276043885467,2381.701570586,-50.7904209899551,2025.88970302822,108.098065421435
256.069533369535,-17.8695009105628,603.234705821265,207.989011280825,1085.67545503186,216.585695009978,1277.39930287112,112.834514090465,355.065845729633,107.80330325614,287.739232069148,45.4974230047718,837.844822462422,67.4185571769948,795.704018548638,-7.2989649166631,1024.2527462963,314.357328398598,178.436427411131,-23.4368525691595,1166.55927111978,-95.3087175693423,357.261001743352,65.1604084550874,598.856961505002,35.0502108538012,2402.3273814762,-53.6701740406589,2038.32452873387,107.657484709591
259.510229816665,-18.6483049581246,615.564525808373,206.700627817759,1096.53834696465,218.813340464142,1301.87876643388,112.602496009538,361.270441396713,106.242918687575,290.388660860856,45.6093249487125,851.505927639898,64.8484670435657,805.120519153132,-8.3339109889463,1028.74393547091,316.013804163034,181.261419126324,-23.939694656285,1192.75344403184,-107.044029741622,362.189261645921,65.3269281490111,603.336944854711,35.3686712413995,2430.00244870764,-58.0429077007439,2058.41087654229,105.698473953617
256.238980560485,-17.918991170891,598.688713707539,207.159418716257,1085.5733116281,215.653637786389,1268.29776911133,111.924237866556,352.812048522105,108.390040364165,287.725095228899,45.6857298365016,839.506412248879,64.8693577639963,799.507891324801,-9.11569744272312,1017.60958834887,314.963886015945,177.835490991705,-23.3452817859557,1182.66220634225,-106.56630406881,355.133881179144,66.235851069954,595.849620401775,34.183306531468,2385.19963009873,-50.682414064694,2027.99433211783,109.230469864567
254.692320757686,-17.7604557118775,596.401697949895,207.841639456128,1074.84011061261,219.932426838743,1261.0092798657,112.589324094837,354.543620454122,105.474034511026,286.615187405416,45.7954272320551,832.388627592624,66.6519571720208,792.236760836474,-6.05076127581524,1015.42553199904,316.19819044353,177.256650480511,-22.4754353591767,1151.36893871955,-99.1168304316795,355.95550456561,63.6102510330975,591.748830728849,35.7965939682356,2389.67546623244,-53.6324467957238,2024.45687653174,110.368780864975
257.633827350735,-18.35690148608,606.507301752908,208.263634527853,1088.59861520593,218.081246437305,1286.03991439205,112.477778992256,357.263149799331,107.033078018535,289.26300272256,45.4513558329024,839.657434153034,65.041563332033,794.477191790435,-5.01710470011675,1025.10804911397,316.203689093071,179.73008881483,-23.6154408671724,1164.5120015048,-92.3569085274484,358.283219768467,65.9343966917951,603.967003335327,31.3070848285,2412.81868476492,-56.349909831573,2041.98999711038,107.636521741028
260.826806035636,-18.8332262173494,617.282284005275,207.613716234206,1105.59183984647,216.734713997645,1311.70669010839,111.289892591346,362.374688578792,105.174894199546,291.752519462465,45.5951669631001,852.590790737504,64.2105287671287,807.072816028,-8.75560407841743,1040.81959011777,311.271749171203,182.410597844986,-24.9169945255675,1185.89784155731,-113.868680545971,362.968708257403,64.1892393454201,608.540092883432,32.6283396893587,2439.80000458102,-59.8038042219872,2062.97218755204,104.014880474197
255.48821485675,-18.1128244860477,595.273179273483,206.330325542074,1079.07738590251,214.136784928097,1252.98421697465,112.615213373772,350.838357028723,107.721104294426,286.982761013648,45.5807271818544,830.814927499485,65.7662061480342,793.041628517194,-8.01772073120397,1015.30828540965,314.627190692324,177.617919604845,-23.7290629941325,1169.48944986796,-100.420040218131,353.363316756739,66.788842350283,593.224062545594,34.850905827803,2379.56796530785,-50.712515176288,2022.34295330001,109.672166674926
254.717607041324,-17.7873303151414,597.826636786321,208.111535488272,1081.2082432461,215.506239199769,1263.04278685999,112.492962175183,353.634245405331,106.642994911815,286.811052979534,45.8177656294454,830.512304906891,67.8285510084689,792.735121993993,-6.705168863443,1018.45560275057,314.252873299806,176.859137554539,-22.5378853607222,1166.47862380261,-99.3388835053856,353.64437898243,66.2754676779418,591.651865901369,36.1167720865553,2388.73085208775,-53.1555842237966,2022.8148732505,110.749065932464
258.157348736786,-18.3940532028912,609.148005938204,207.921877034986,1091.38606747762,217.289837274981,1290.02940378067,111.796510681807,358.302653824523,106.465022256584,289.099569828884,45.491323134198,838.569748698979,68.0822538834087,798.794779622573,-5.3926785651997,1028.47940776094,314.348019093844,179.891807591558,-24.2040265271996,1178.80733586514,-102.395667925934,356.463949040179,66.1868113893132,602.330713487999,32.4467118141267,2414.64043516148,-56.7073760449845,2041.35016635732,107.987641667558
261.606793298694,-19.1426924136647,622.378153100217,206.615337649882,1107.39925910856,216.493005112161,1316.12106404261,110.7429180736,362.537273291471,107.893930122793,292.374542755379,45.5084245799643,853.088502294265,63.9928950918266,808.224403788989,-8.7919277849569,1036.91637665713,313.378235885088,181.034406420406,-23.70197880796,1164.51220487544,-90.7322566760337,363.373509293859,65.5326374266076,606.127605844381,35.3824903521983,2419.66548544327,-55.6138010277983,2051.97044903309,106.589449326384
254.542640550757,-17.8498749562069,593.330138669081,207.287844295111,1070.19062484363,219.039399012633,1247.28349099359,112.246873341284,351.633561569905,107.109737262901,286.212369356492,45.6874332248248,827.834690890291,65.3815651575261,788.673529318317,-4.8123604641964,1013.76048618798,317.61954003666,176.454225677334,-22.9155846373357,1171.96390744322,-105.609424258299,353.018239474295,64.4213595561388,590.663862990656,34.911014394117,2376.36163880756,-51.5821506759449,2017.98027138465,108.286247827726
254.747820677873,-17.9103484348696,598.575929302916,208.810163377499,1081.70372134606,214.061449923356,1262.60354449335,112.798465202348,352.93606876722,107.102952494464,286.840697379846,45.6278471319467,833.098781952422,64.7561838912072,792.672652364657,-6.80503096533411,1019.76644550623,315.469580894309,177.039225848671,-23.112976499124,1162.91823697526,-103.469281393736,355.354487997776,64.5190883408728,592.368776495255,34.0244815825436,2383.97786720155,-51.3882671688871,2020.81731060906,108.425838517414
258.220667968763,-18.4749429765821,609.828684372955,208.510682996708,1091.20283043168,218.089928570695,1290.80422632565,111.12904030853,354.739879402314,109.015039848915,289.6003077895,45.3031931196069,838.828209002594,66.8142526418813,800.281677069889,-7.96924204745763,1028.21953306988,314.250294378009,179.7714696429,-23.5624793165077,1158.17422514604,-96.9588453484651,359.538660293622,64.2337861053531,597.63530419701,36.0825534223235,2408.82980945656,-55.4074241986195,2039.27985714452,107.05725464553
262.181228068397,-18.9977912541491,621.629182975915,207.145169323089,1107.93268994648,212.816720913614,1316.06948905749,110.193301775245,365.939070088551,104.155941194274,292.345563645052,45.4032656335054,850.460949075208,64.4213307156715,808.962429388725,-9.35422891346169,1041.50179683761,311.143246513949,180.856052348493,-24.1962160819922,1170.75191132393,-104.070198399429,361.222571654703,65.6009279882828,605.222370441438,33.6927569875282,2402.55732435756,-52.9170823312471,2043.22666419829,106.404284663815
255.196067185833,-17.9469437249995,595.621301759646,207.992332317519,1071.94728749571,218.065494655999,1256.63084963585,111.803600685596,353.734607166946,105.686256942075,287.084183127652,45.1770282115591,829.474251677279,66.4336931981399,789.718092145203,-5.85442782081129,1015.9834342008,317.165176648891,177.067369843091,-23.226391560184,1159.50772561613,-95.6484484624019,350.924945210011,67.1444869472353,594.365015281275,32.4029018635956,2376.36124554443,-51.2805389374621,2015.50637070583,109.742497633384
256.691880379538,-18.3754885871236,601.362593900637,208.624565756555,1078.24184049435,217.742013947063,1271.42253311193,111.336335633263,355.09498669007,105.417232782925,287.764009063517,45.6774741651919,831.566703347983,68.1661353353089,794.511308722324,-7.34369016869144,1021.48536071324,314.716765570565,178.388456725892,-23.6641183015524,1174.82975933116,-111.567122519618,356.439545833739,64.6934059153977,597.153397768325,34.1358109711343,2389.9852419336,-53.8784830641571,2025.42906552049,108.241650553225
260.156299853373,-19.2018234877887,613.258018100802,207.993102248794,1098.34470384441,213.389434259856,1298.75943244698,108.905070258439,358.386604050356,106.711516397594,290.494156491093,45.059608803194,843.386630061233,65.361833476646,798.553683096465,-5.8277049185212,1029.10489108517,313.045418351603,180.258581185296,-24.1768495473133,1169.24302314892,-105.479962574501,358.837027923397,65.5487281194064,603.182054898096,31.6280389958529,2419.35157373895,-59.1705278449723,2043.13624374175,106.846832832089
259.639735535896,-19.0219105720973,607.785986338689,207.13148706882,1097.25123545419,212.840980477406,1278.71252487135,109.771134714504,358.036304803192,105.227057626517,289.292661370869,45.143944377951,834.757786766386,66.7156541030173,798.210057723341,-6.51322723909298,1022.50480718244,314.88376818205,177.542239216548,-22.9650349611289,1162.42423562068,-94.3828525574324,355.722881541051,64.8073455846523,594.504708679709,35.5190695440335,2383.38699924256,-53.5764946535363,2021.54087480011,108.396688034409
255.636243063738,-18.2407373483253,597.674555393075,208.088426674024,1075.74999635465,215.696549563957,1257.5608850232,111.345401627372,353.520565964649,105.575873186837,286.998786000095,45.5735561457855,828.126960298491,67.3819079230681,789.837687423719,-5.67037921621544,1014.16501815728,317.469945254205,177.156269029834,-23.2871610390476,1154.61081352316,-100.5261157866,354.100987791953,63.7458622904914,588.545448129387,36.1957371715822,2376.12039955056,-51.1294507973988,2012.1560428952,110.183800174689
257.638669407263,-18.4794054648699,605.68732959064,209.330372042694,1085.56925042272,216.230982159251,1281.29656130158,110.658000520305,355.382823153658,106.083108270424,287.699376284519,46.0286845295901,837.914732512484,64.8843378317103,792.979170816952,-5.85884504889118,1023.00046974286,316.693740679098,178.364656470655,-23.2467925853606,1163.08407464882,-100.671002286929,355.876001186973,64.8994495217872,596.952940664116,33.8080065000089,2400.24445987587,-56.0199313529581,2028.26258772135,108.453327267035
261.69200737355,-19.4950601810315,618.51725821498,207.510243860586,1101.07298696044,214.938908234637,1307.01967395155,109.316578687991,358.753204227512,107.196272450298,291.932570238036,44.7499955793267,846.184738021944,65.0036256862354,804.101776534751,-8.86316698772498,1036.88170421026,312.267647865101,180.574050446908,-23.9367554615475,1180.74300523175,-105.246572017351,362.565226117831,63.96991694927,605.131966438978,33.5150317892445,2429.73370169716,-61.0362179142216,2049.35311229687,105.343865733119
256.276224721985,-18.5360425191616,597.718123914186,206.950634109703,1074.54875550115,217.919527746509,1251.43569239648,111.076307750571,353.186185635558,106.651355859903,287.300810394866,45.2827755507211,827.85940538504,66.2985764681135,787.670615310918,-3.94901267802231,1013.24157009564,317.009759301581,175.201231704305,-22.4030663304947,1160.13765535823,-96.6461163939017,352.333746651909,64.729824840332,589.660199056983,34.4872909422392,2368.24631090401,-50.8840375465479,2007.57833940463,110.75211688094
254.899989978011,-17.9202258474655,596.080108319606,208.375029852288,1070.23282238241,215.707270165613,1253.76809530667,111.738797952616,350.681601852656,107.657765037983,286.527940364358,45.3038362465149,825.338882350902,66.876532470103,787.122481890239,-6.11815988751696,1015.83880339167,315.556182593434,175.815590652201,-22.6702336953962,1160.09712669563,-98.82867961704,350.298678152838,65.609767183299,591.453413677353,33.2107770641679,2372.84436279496,-51.7991853670593,2008.28524510589,109.470687410142
257.810390524109,-18.3195497509926,608.402533091899,207.940709309247,1085.21841079085,215.65166201779,1283.03956311648,110.163907796749,356.210310601634,106.038422076559,288.799368070309,45.1265485220276,833.433900952321,67.5483362530124,791.182141921845,-5.23733617098038,1021.85667084177,315.216048636149,177.794961516594,-23.5064082535296,1167.62910640875,-104.133124642193,354.35631353714,65.7795291374486,597.154789653618,34.5453527783584,2396.17950768215,-55.1998831383816,2024.23309709809,108.214673635435
261.945294933299,-19.4342915411708,619.639813644519,208.03838680578,1101.55031650618,215.10764074773,1310.12191594717,108.715659976586,359.241478381693,107.038158658167,291.312426513444,45.2903970749532,844.235385603238,66.3284083202486,803.326694328026,-8.41593774841571,1035.64262148231,313.127492933324,179.505635560898,-23.5137976871135,1168.70385153234,-101.856818439269,359.787439826883,64.5895377708411,604.025992691656,33.7412030663128,2395.52488338839,-54.5792291660125,2028.14672717669,107.893966869969
253.546882018341,-17.6892742078105,591.061624745154,207.51997290975,1065.07005587394,215.90279918354,1240.21298756091,110.641985847835,351.60369560531,106.341488984025,286.179074206092,45.0179240024131,818.584166044948,67.8815153315769,781.057726563422,-4.1684002616851,1012.54263954046,315.628149734513,174.910262526977,-22.5712491475263,1149.66586640733,-94.176604889176,348.746999874377,64.7886310878185,586.614544369937,33.9340685847129,2356.86939652647,-48.5984214962099,1994.74520624,112.659543603651
254.376591901885,-17.9000255117675,597.741816262926,208.040056500765,1064.7320843136,218.386099095793,1257.75929605856,110.923899715505,350.196905114486,107.583532979444,286.939528560461,45.0063293307968,820.381143782244,68.9105109012179,783.452485103572,-3.12741017922372,1013.93234974848,316.005028730583,176.889327302999,-23.3023382647623,1162.90444295712,-100.971706824749,349.708371425648,65.167102321606,594.260976394127,30.7652775291469,2369.87395391153,-51.7750615539564,2002.51809735861,109.322733609703
258.603447313584,-18.8995596274248,609.016351619243,207.971788656879,1087.03512966766,214.709028339288,1284.770172962,110.536250267974,355.813548221998,106.637220460681,288.761112487199,45.4675216658531,835.497430141219,66.2871917534865,793.727264702892,-8.07338919537042,1025.61268023733,314.868071224535,177.296435347317,-22.769652678935,1167.83323369415,-109.731593339074,352.299420791862,67.0551686667661,597.163073103567,32.5472730408915,2392.71034901882,-55.602083133951,2021.68764429768,106.893764311018
258.682651976926,-18.6605272158485,604.783241045419,208.842170132048,1083.53311274226,217.4239506144,1266.27362303016,110.490400108675,353.887651020997,105.380647213531,287.741749252472,45.4212954227007,831.306575900351,65.8479061425399,789.080090744506,-4.71499558345905,1016.09760433447,315.257750541369,175.825687135149,-23.561385089008,1165.18678528658,-97.3659217475669,349.152745759413,65.7032582203917,590.495359339457,33.0872923685889,2359.8411392585,-50.533017061223,1999.48907241954,109.794201024274
254.421988902293,-18.0838466704728,593.420757912422,208.269384767959,1061.06760034666,217.185101541999,1245.22393284396,110.448262681676,348.095064420239,108.089934758092,284.95819787922,45.5918888973575,817.111148067914,68.7891074413887,779.636533092253,-3.01843578872474,1010.45539838647,313.802299828119,174.166069625161,-22.7761891822352,1161.3566661836,-105.828615833332,346.468216129618,65.8117301036733,586.122523930983,34.0359023053083,2352.40566717649,-49.6574481200288,1987.42408944281,111.837971849379
256.586811701918,-18.3603165632265,602.025770288473,208.88264703695,1071.43043365422,216.592969004652,1271.47539489393,108.689377509358,350.678436621477,108.154963712984,287.20297219963,45.4866664506686,824.320740770801,67.2214691400658,787.753938578201,-5.8067224117254,1013.49969903924,317.188342687326,175.495481758598,-23.0410702644067,1156.9181826717,-100.245845629768,351.65454515655,64.4436423098099,589.569307518996,33.797187130276,2376.64516167378,-53.9838557727915,2004.17287404784,108.059489275567
260.072198655372,-19.1516895444842,612.542143664927,208.908207712976,1084.7963604009,216.17011598813,1297.46063518892,108.571176000517,356.103726043506,107.799589844609,290.492073773349,44.8528355914624,835.334732126939,65.6679289588187,795.150435371373,-6.80630834041992,1028.95185221274,313.778119496449,178.458975709691,-23.4453186111835,1164.92173279716,-102.105966428476,355.98176009521,64.1032966400849,601.734044466054,30.7014711175128,2387.41305534442,-53.8465225421254,2014.82709555344,107.691555179809
253.759080098789,-18.0842170063249,589.474495712104,206.897054551533,1050.6113782837,218.548881806199,1231.70730956436,111.241888341755,348.135411525439,107.180424456462,284.261040763592,45.796286302506,815.228470138057,67.3718013376486,777.925121398428,-3.13563375032569,1001.92895220569,314.6334581864,173.568375730202,-22.0814851010181,1147.96587094863,-94.160396507225,346.123131698163,65.326531745464,581.208150291251,35.3227955276463,2348.08585504353,-50.4146060844844,1981.40558124494,112.271610374608
254.477201282784,-18.3530326761995,594.912902060386,209.05808034152,1056.81274322421,216.667449127544,1254.78299731884,110.233833309223,348.763557316439,107.442013134336,285.509581181584,45.3066088760838,819.548549403678,66.3508867602335,778.962695007597,-2.71448151058587,1004.27523460702,317.265423628068,175.18845960775,-22.9425248506215,1148.29219064208,-98.1104249461938,345.807725235798,65.9846205837678,584.92958352782,32.9857421041511,2360.61881424637,-52.6941748518299,1989.52173724796,110.957808363148
258.173521821952,-18.7476222545196,606.349668452764,209.337315698934,1075.44658948384,216.14397793396,1284.64115223266,108.828039989598,354.994509447128,106.169071246117,288.029140598664,45.4422011095157,825.989569061786,68.44181784203,789.089398935774,-3.95183891128579,1013.30063270716,319.140070147192,177.354437147115,-23.3012826313932,1152.82293216994,-101.81474668735,352.795566316248,63.6915979152804,593.696151317309,32.3770443629767,2388.61393102817,-56.4816788278264,2008.92542395845,109.487505169073
259.656232372121,-18.8747414201137,607.28569898586,208.885384847306,1080.89944723678,218.218376651433,1271.22232591378,109.267184916533,353.511989627148,106.087531078242,287.657277368164,45.5315016753158,829.588305359651,64.8693237689238,788.478937203196,-4.9471892419776,1006.95065823771,316.986845767428,175.028469005709,-22.7927126719016,1146.02118288568,-90.941764022125,347.579715940246,63.7234910073891,584.308480231601,35.8960184247815,2353.02070250694,-49.2870198438588,1988.27941705376,111.353963208812
253.652233332525,-18.1347214532821,588.537449907479,209.184166897259,1053.68411021487,215.794771613851,1238.4561195493,109.95512716529,345.748947611463,109.225536601829,283.755475639503,45.8365740982282,814.911548003514,66.7622031924567,773.925808617923,-1.87494092523314,1000.55343611641,316.163786147228,173.482053849425,-22.3474909503925,1145.150388213,-93.6127187740162,341.989585455374,65.2735015746756,585.920581652457,32.2019173995146,2345.52826416688,-49.9635942321085,1977.48598813107,111.74336851526
256.13602866353,-18.2866133522335,598.954694650481,209.485522257831,1061.2588181771,216.930176774727,1266.01012665373,109.127393757121,351.288296704426,106.979829236411,286.010458372334,45.3907759721161,822.333948056347,67.3394008263801,779.633445634919,-2.29379873841791,1012.21680366697,312.497219156022,176.55654997332,-23.0521269793898,1151.88214142013,-95.3912596756318,349.727224824118,64.0091821474923,585.523892522344,35.3906020472021,2369.14040381578,-52.6385427720944,1992.65757773889,111.032328804242
259.747905671403,-19.130731085823,609.724431182982,209.51661565365,1081.1415147227,216.139730187701,1296.73730197429,108.065229259288,357.479719188401,106.836354366713,289.380736249672,45.1989005129855,833.790390268293,64.851095782041,791.064202632467,-5.35819174673759,1020.85133252439,313.815366122909,179.144538774458,-23.5291581510477,1166.75088535431,-100.027366116955,354.396855308929,64.390361132046,597.74674815083,30.465884156481,2400.86311031328,-57.8661405364388,2017.39072281714,108.552944818073
257.047678289186,-18.4732486942537,595.810622113859,208.617489322291,1065.21201427078,216.751442310653,1261.07648374122,107.685604359335,349.237561184129,108.625605915797,286.282828805412,45.6101136771579,821.097949947208,67.9860901614425,784.010640406279,-4.10071285046485,1005.85954491295,313.092640073108,175.130494277728,-22.3793710445802,1158.31568560594,-89.4066892324222,346.073816988867,65.3401340321813,583.379350072734,34.5763140759037,2359.42877537338,-50.0423118659902,1987.13871851192,111.454251436042
255.501696357051,-18.5604556559033,591.191704833357,209.977262952068,1057.95135847059,216.527374528688,1250.95014871957,109.110112714745,346.689476820778,109.179290967525,284.863105844435,45.9403229974935,816.921927662439,67.7670573430267,777.519337383602,-3.1349966982231,1006.88055276943,314.521021514934,173.526148522782,-22.0424533466505,1155.28375482966,-106.554151266129,345.375698024727,65.6878463921015,585.092673066709,34.8454372311852,2363.70191669004,-52.0951006781826,1987.30498824584,112.188337938262
257.861656037252,-18.6750397835159,605.079618381123,209.069255900766,1071.48827201881,217.474108890441,1281.43444019753,108.983558680709,354.428238308431,107.897874035206,287.230955014868,45.7399983730865,824.245932360039,67.1839685126857,786.510853315251,-4.96863486698857,1014.81459384505,313.854279149343,177.326234647349,-23.9506290446545,1154.5848790155,-98.0606968691899,353.174833864979,63.1865968772998,593.691883845201,32.865779198389,2389.37814782849,-55.4162767714642,2009.26021212398,108.610141651244
262.160622245984,-19.8072330004979,615.908431223697,209.59723298672,1083.86127683308,217.084853105502,1309.95653635025,106.540957125104,360.668986391804,106.310477572428,291.346080446558,45.0468580853039,835.878524470702,68.3811990686448,795.077896293709,-4.68177151732234,1028.27735324916,311.551314813198,180.611776964562,-24.0940206702662,1151.36326511196,-95.8531274007059,359.914604605818,62.3183106316963,598.740055665971,32.9957482651307,2412.71091316799,-55.6223506455137,2026.78802637362,107.679261643327
255.985824690621,-18.6278683592278,594.751802406384,208.232502612812,1063.83887837044,216.259220548137,1253.45191494461,107.556445746844,352.187202022214,106.290758779981,286.025751485491,45.610513707226,820.833221927158,67.0027452705802,779.985774217231,-3.24092589886144,1005.60919774936,313.991997464548,175.720156881796,-22.3141989822313,1156.0838776583,-96.3269018934883,348.981626234558,64.9038882833133,588.035653357935,33.5243122027633,2373.67659006081,-52.9646335339048,1998.22411722693,109.744731026984
256.400701146104,-18.3703352639,604.845775099173,209.833346301593,1070.38476872383,217.529977835554,1270.43644867576,107.306946929215,354.980587890385,106.725119605298,287.427270700852,45.437458048569,826.286287001044,67.3065389228686,784.602132847541,-3.77238974206103,1016.9584356703,314.348808677511,177.090738511913,-23.0782147657935,1165.53358421842,-99.3123692963853,351.939484788018,64.4445553086258,589.653869895627,34.6891715446928,2390.28462451331,-56.4703621784527,2012.07751426942,106.766291262362
260.912681560192,-19.5350302761717,615.401235371349,208.657037007606,1092.98046206067,213.365091374245,1300.56405203713,106.761138078991,358.766988518863,108.007151463174,290.071232836871,45.3058115954189,839.015735341666,64.4087758436083,795.094778686225,-6.14314210410112,1031.24228780813,308.280391242916,179.832634006839,-24.2258666100416,1180.47756295623,-110.995636733666,355.429688529436,64.0729170887921,599.183074198298,32.2684385099711,2418.58057323206,-59.5192152025464,2033.31469728307,106.535165238121
263.548877410448,-19.7713881145052,622.157370762015,209.022699303116,1106.41725040535,210.202027077763,1305.28869121216,104.952694718794,361.003579555174,107.813138216961,291.393577438352,44.9564333302477,843.410060320489,64.7656993044525,801.357929889114,-8.84632272213235,1027.99111839823,310.781286223418,179.85262650811,-24.6128195845422,1163.61352137329,-96.6402049296552,355.754703147207,63.8123995528204,598.565595116773,32.6146180095334,2397.69632694112,-56.8795397843181,2025.38972293114,106.317563420235
256.421775001215,-18.7685218151817,598.975454789149,208.447306867443,1071.96584336447,214.577250927025,1260.52542606034,107.232377347736,355.234096304057,105.508778189819,287.241830671456,45.5828083644749,822.101841096479,68.7503333885218,783.8267477996,-2.70071610568382,1015.24789176489,311.389424718543,178.21388167042,-23.4704339932994,1150.09441950305,-97.2125519522346,352.394805796359,63.471826206229,593.603538604528,32.3575058274492,2389.17611163092,-55.5928566883482,2013.12380227411,107.256335988658
258.4710403259,-19.5893855783488,626.722482979226,214.966807787225,1093.78022460182,214.863933388452,1278.90370026717,108.163873552527,360.152188238386,107.316932927646,291.69847841492,45.7961056368686,835.122028562452,63.9373251212358,790.292211034666,-7.20688308534714,1070.40707913284,326.036765552534,180.350707599806,-24.0176089903158,1163.90898295381,-89.5723166865661,354.491135899399,63.6656548341637,609.226116807367,31.3444162990436,2396.12698416466,-50.7242016548706,2013.59769835017,102.760464416503
262.553135154687,-19.9499569476522,642.383662957641,213.641009923997,1118.77267669079,215.206317526444,1318.90152931323,106.845050105076,365.686784811068,108.235814879476,293.067418026983,45.5180616485322,853.147211374135,65.0621205159024,803.278006531109,-7.45676624349241,1061.20437860267,315.301607178297,183.066896047816,-24.9850822905745,1177.64888328844,-100.301440624297,365.108147102455,62.8116097453137,608.751587793085,33.0512136790977,2456.96785089419,-63.0854107672187,2060.66271050062,101.665797026144
259.388600609081,-19.4040152848058,612.116416420458,208.945165547065,1097.63878536656,210.687206896868,1285.15309536261,107.268982771537,360.519065085865,106.253669302566,289.708222757117,45.5514768806468,841.549372186726,63.2237760305925,794.454427658052,-5.35723838123809,1028.83192124841,312.506622107581,179.308178337433,-23.8842100562897,1178.23259677497,-100.305562909427,357.362659651715,62.821943317128,599.975831324738,32.0068741855648,2412.06883519173,-54.4674278366145,2029.42614853169,104.798771115236
257.38523287417,-19.0785964563541,606.777673470254,207.61663599124,1084.64651916021,212.681149442388,1271.7620111995,108.450401128823,356.680092466641,107.881116351747,288.382837003479,45.2966044896875,832.749060332741,65.6727996616417,790.400706425863,-5.01034378986768,1027.58548269658,311.41504096787,178.412874144904,-23.1837898487463,1173.16297823743,-106.187714955831,355.751210254953,64.4832572513614,597.084418981954,33.4818952885698,2418.350066089,-55.6422719670767,2029.74873155718,103.72209920556
259.526815338845,-19.2014122085982,616.676950696099,208.256377279828,1101.04918270455,209.959658283484,1297.67511277878,106.557341681069,362.242187148018,105.971795585089,290.89507921423,45.3345053609411,843.855740113816,61.4939235054947,797.405777708275,-7.62983200057308,1032.24486395102,311.745813665667,182.491347673004,-25.0173761809612,1175.81528908044,-96.5209311954264,359.905056533774,64.1737646091576,607.430359950062,30.1161885316934,2441.48416305931,-58.9710990770774,2045.82991387468,101.639825225217
263.2952898602,-20.0226723167053,629.204013607574,207.447237742437,1114.56089036976,210.488844937144,1324.54600336544,104.106017502969,365.099235635739,106.317478988605,293.680520362877,44.9794734372497,855.328505378441,61.4585923624017,803.807549316853,-5.74088247084326,1045.82514959782,307.631548672783,183.347754287854,-24.91202930678,1175.83124460149,-100.144107998254,363.876233904794,62.951407090822,609.066126275845,31.4235470167255,2437.25322617296,-57.3221951762023,2050.06163086369,101.463065254127
256.924016560314,-18.9944637688988,605.185801520073,206.383973528509,1083.50164512051,209.77542916215,1271.02018024389,107.020408021228,359.754897272896,106.072055387583,288.426233184632,45.6722331512636,837.353039257197,63.5541491259319,794.444084213825,-7.5174478132263,1026.5722225053,308.849291513459,180.603692917174,-25.1628408147819,1172.06160547746,-99.805158614612,356.836398089616,63.9402131379176,602.259883037306,30.436526391493,2418.60925617772,-55.9213082606668,2027.99912635774,104.184079633175
258.012665926081,-19.163423166956,611.757611860665,207.407830765574,1089.72928872909,212.710234589245,1283.35723471623,106.971137401732,361.202100201874,105.008935488846,288.974219938804,45.8181748531495,840.126739918884,62.8635272529929,794.975390773844,-6.32098681017766,1031.18234601133,308.359349609648,180.064840106755,-24.1855174534198,1174.7989545418,-102.827903399905,358.969872334026,63.4049954427976,605.105464316912,30.4372312932571,2434.60881468269,-57.1447452742074,2040.49867365609,101.410413284197
261.245903148585,-19.8404001250371,623.520191425399,206.364691712268,1107.27798627365,209.71654938316,1309.28582353122,105.631815566921,365.07931357153,105.542249880859,292.306838198725,45.163704494961,852.13670435185,61.1547790400083,805.502821142696,-9.59462420894146,1043.76230969643,307.434309475374,182.651597849099,-24.3670186014811,1195.78511277745,-117.002996137684,363.536727123294,63.4886405490134,610.449205612007,30.9274919430313,2460.3221644062,-61.3641683975114,2057.89627500423,100.354899383618
256.670524055664,-19.01720275938,604.37395980034,205.884140852047,1079.49151294587,213.779091655955,1260.70339485793,107.147661626821,357.912732218496,106.73569782564,288.545389189589,45.2469244326813,830.145983433396,66.2403647169126,789.795098149092,-4.9074263006647,1021.72319247326,308.773669581367,179.498798372406,-23.7321743522521,1180.12451505133,-104.841413868636,354.845751334423,63.6812587192435,599.396511854373,30.2397298731873,2411.37149089651,-54.717161152967,2025.48824709451,102.196852913565
256.363133887968,-19.0729991328294,608.5114297605,206.745984881516,1082.35346270889,210.602346125334,1270.33255071131,107.9325956662,360.469173708777,104.561905773255,288.707407931006,45.406114377828,835.162463298134,63.4272987574895,792.431577233956,-7.24558164362412,1024.95286413046,310.201674297924,179.224609137707,-23.6439156166464,1180.19061190133,-109.873695098159,356.948374692683,62.4580706906912,598.075771483434,32.9834957537525,2420.65486776516,-56.7356734226996,2030.49384391019,101.287459372577
259.505117141451,-19.3528938351625,620.727551236529,205.86179494498,1097.7448051804,210.646090912773,1298.44668197394,105.971130221576,365.302372610946,104.113717588709,291.698353368642,44.9795292404821,847.952123364977,63.5581915462944,802.388299937835,-8.30637382978551,1033.56867520683,310.515064181932,183.750233875699,-25.164296316903,1183.03310738546,-106.208264472963,363.543578226415,62.5328384821593,607.868305206281,31.1259885185328,2447.53373441451,-61.0698005214713,2051.65434574474,99.1058765556605
258.940743368233,-19.5684194008614,613.208464970511,204.323673691607,1100.03720841367,206.415976591498,1277.01104197838,105.77630424671,357.680681589815,108.172842538877,289.679977705173,45.2567830037348,842.711050131316,61.5124918707143,799.621069154774,-8.36288752798615,1029.31454254211,306.534828504362,178.972787909927,-23.484074669219,1183.75749960316,-105.167036929026,357.673862332577,61.9740900808456,599.214346463789,31.2951762711167,2407.06138733082,-53.9244806108867,2025.70681361519,102.42586908982
254.896103344354,-18.6771287327787,602.769328067816,206.177034219278,1081.59963006151,210.245700833352,1256.70086237669,107.014006898722,359.83007426191,105.284971838839,287.439589822432,45.6663239951852,831.824588831267,63.3807909325094,787.900064708289,-5.27783640726673,1020.24218638538,309.43432554613,178.988793429446,-23.9246429453946,1178.11596203881,-108.937318887389,354.260466988099,62.9767421309749,595.2171084597,32.651566327109,2402.56844510632,-53.7394764263057,2020.19662070922,101.97031752128
256.900089068619,-18.8197026662258,614.032890448805,206.363832053864,1092.12778383707,210.11140668559,1280.65649512174,106.113366032937,361.148385353894,105.934613560993,289.5589410928,45.5654009630553,841.426039820822,63.0486691220833,797.709394985659,-8.02567320402371,1035.85304089007,306.503977655271,180.570427273566,-24.4192735439568,1181.79422466028,-102.748231701633,358.706280947886,63.1867322752533,603.87288448471,31.405046687525,2427.07632345984,-55.8135843838326,2035.70103730813,101.220044150446
261.988857782895,-20.2275920475455,626.577263182682,205.940075520772,1109.09923569513,210.574938246664,1310.73958984207,104.952777033907,368.659096546046,104.57094533287,293.050676454338,45.2976801450978,849.536677832506,63.7421461535096,803.408216563779,-9.10873527711336,1050.90616711949,304.349565372216,181.893212673982,-23.9705796931083,1187.28211750521,-109.033768480321,364.831585063134,61.5716388279634,609.340036377996,29.9433432656807,2431.45409217198,-55.0225001104657,2044.2919380289,100.585534216821
254.552950133714,-18.8369894806731,603.916113171117,204.982201257974,1079.51811915617,209.977170654795,1254.39707186193,107.324349413109,355.870875068818,107.80036639015,287.553353105638,45.855694081607,831.028192889204,62.3296985656797,787.944327126861,-5.13277708451385,1021.30142984271,310.057410113897,178.261382997336,-23.0959262834767,1160.13239163074,-103.75896484406,354.612320758975,62.4209843579982,598.133260738115,30.9903437577087,2400.82999262085,-52.6611135513542,2019.14695064783,102.227459021169
255.668936859793,-18.9296991263274,609.652367124745,206.106167913986,1086.22780925857,208.637856800799,1268.92325732743,108.235020108143,361.064877670513,104.481353603732,288.412288765046,45.4172495814505,836.495016628469,62.8653039765986,793.585134569181,-6.94547122743219,1034.2457270507,305.633245611597,179.425723769186,-23.6632949041684,1176.64798357678,-113.162654064567,358.43790827256,61.8744028167898,595.314178603266,34.5154933571485,2410.90891348633,-53.5345499870347,2027.04037053448,100.712900770953
258.805542628631,-19.3359144313546,620.968965453452,205.444638340717,1105.18222595853,207.869401757692,1296.07871811397,105.712615654128,364.363677726877,105.636622290636,291.689064529349,44.8787528789169,849.214426519203,61.3834040278396,801.433881287977,-8.74512687056581,1041.77124147515,307.745670345301,182.805553248679,-24.8120164770334,1170.32856153665,-102.935118222236,361.299953901498,62.7063759561672,606.642240152769,30.4870638374531,2438.23863328187,-60.6601859012761,2042.95494269456,101.567357496001
254.463502937166,-18.4151336525649,604.134848067651,204.178986883274,1084.19987887712,207.074095425656,1253.67267152701,107.677231950229,357.012246645924,105.882507855445,286.569884293115,46.1492836531733,833.900884478416,62.0148657084329,790.864272432471,-7.21298308530547,1019.28575864762,309.920901510143,179.307496489896,-24.2329375581487,1177.69525417826,-107.719277636274,354.547852410704,61.828681219229,596.098702377403,30.7862138592688,2386.53965423692,-50.535683626242,2014.42372722935,101.667066285325
254.525878643332,-18.6431984512593,604.496874855536,205.326597317553,1079.16658889058,209.091047707705,1260.74391859656,106.908674342206,358.37711509868,106.199876207426,286.919893092051,45.7844953574517,832.491021392706,63.8538685008403,787.989788981206,-6.77826438716736,1023.42166965875,308.726447646057,178.439756940192,-23.3400250975827,1175.67733940025,-100.941211737905,355.735793210717,62.5454300752295,595.915580219191,31.7519786714198,2393.33918586524,-51.5443904605341,2015.71616601437,103.703597277601
258.067310351992,-19.3417903038211,615.37711081881,204.980421669913,1096.10445980647,207.321455405112,1286.67402695281,106.566485286571,361.895327077906,105.669113102298,289.783000302919,45.2223087930379,843.05612735273,62.3356834089008,798.951641283121,-8.0411421605164,1040.18596209156,305.301886872958,180.979263063001,-24.0796081117369,1172.80690998709,-103.666953246874,360.512765426673,61.6293641831714,602.982002911875,31.1001446129336,2417.02477352036,-55.7016860092598,2034.92256274528,99.9343228904729
253.529571295668,-18.3073961237008,599.141214648185,203.717376604304,1073.03030245152,210.048889909263,1245.84514320992,108.499054064265,355.270007556398,106.598127665086,286.17855731422,45.2841693486976,832.05725558094,61.0570746356954,786.303914918735,-4.6980987913717,1019.20699613526,305.673649076088,176.736589343519,-22.7176188976071,1169.38794217521,-103.441877164072,351.299343985813,63.3641525459597,594.269080190424,30.0348241522979,2373.48471984922,-47.9150380825518,2005.43461271692,102.636186203588
253.082218372714,-18.2893800479878,598.655599656773,206.145650796375,1070.22881179504,209.502890162645,1252.26212814645,107.529419877934,356.766270858684,105.858065141759,285.339864249563,45.892632186748,830.022841944478,63.2607233293695,786.810449941514,-5.56820421691412,1022.19958371023,304.600175764576,178.959691434739,-24.0439900921112,1166.43445943758,-105.487516556347,353.250036633829,62.2131403754357,592.266889309979,33.625451444443,2381.94367541131,-50.4662586899576,2006.39014752952,103.057538670883
256.335103246187,-18.4938452070912,610.575685516978,205.629634608629,1088.04110672491,208.111991771396,1277.37646033321,107.867985571964,361.657255908577,104.167007353043,288.55305533075,45.4821485269008,841.598246723004,61.2696304306565,795.038918763947,-8.26544106763801,1032.24580135125,305.998018299518,179.675817389445,-23.7492505769874,1174.58065595721,-103.390145626797,358.827991105694,61.6077586275726,597.691170877042,33.4730630575292,2406.2140474127,-53.9690734909159,2022.43912127202,101.880230033636
253.849607833666,-18.2528441592588,596.635662127822,203.950516461814,1073.20699418541,209.062989293945,1243.05241860628,108.553247555123,355.093752159672,105.040374616186,285.672482541989,45.6694504728368,830.563577425658,61.6890676229264,784.373964935021,-3.44018987049932,1012.13544195979,308.432630371646,177.032031996716,-23.4737389932737,1171.75734230075,-98.0438209717412,349.681090017,62.18989608799,590.462835647883,32.157299678238,2361.7833473021,-45.7662386217392,1993.962797566,105.801024890355
251.372371179129,-17.427312352109,594.134897601144,205.038071123773,1063.16037827397,208.917015510406,1240.61656240001,108.885302016821,353.483021546221,106.798747897755,284.0391123689,46.0207440075699,826.838025087959,62.5762635444012,780.597572989606,-3.74304801881978,1009.44643735318,308.893515468216,177.495795566812,-23.102742342522,1162.20963175036,-101.188977408058,348.024611481141,63.0216257193555,593.701680692727,30.8538638095162,2365.35402048138,-46.3042421422982,1991.55824509263,105.998773257072
255.743316454737,-18.8293570718677,606.090463258507,205.206421649735,1077.83506495995,208.522694592177,1269.31957418433,108.238543622586,358.474919520355,105.544970291515,287.23957426241,45.197996543382,834.523030961775,62.2614689583368,790.933870411241,-6.4229955717815,1022.27591014423,308.717666440858,178.894067404918,-23.6880777055599,1161.98416330917,-97.4576795426597,354.562127546095,61.1829400493744,594.980373639445,32.9611192578919,2391.03880569789,-50.4818919833685,2009.64907503228,102.840695776056
256.992975220334,-18.938508152711,606.387528787695,204.723093100435,1087.50619155465,208.073377941483,1257.5251037939,108.097810863805,356.417517926107,105.497872111796,286.674194051212,45.3366908806398,831.246445621192,64.8895546856184,790.617453773927,-5.70964786974468,1017.61916429045,305.875919330436,178.920300946251,-24.0860786694141,1170.31425591196,-104.880907393346,351.641611248291,60.6634028954063,590.032796461997,30.8902563173756,2360.07647325439,-45.3215776295703,1992.03860688204,103.847641891386
251.347458651119,-17.8616837533328,588.843762800694,206.142282630279,1061.70007835376,207.191864982255,1231.78846110503,109.731686532933,352.450835654653,105.562602646933,283.388458836351,45.7130738479778,825.341511623891,60.5069452041686,777.5879649729,-3.40460057286226,1007.68916157174,307.482049033771,176.245618686759,-23.4069260091769,1141.92327051396,-91.4737464602433,346.019156143451,62.1831778498398,584.978232462423,32.1946529008129,2355.29715937766,-45.1452459243841,1980.07550524876,107.041281663391
253.95327496376,-18.3676445818028,599.582799703522,205.963493395131,1066.11507240228,210.517586798112,1257.88127141386,108.528160046768,356.710530481321,106.064871764114,285.67250838252,45.5631910695309,829.92571617051,64.3239619859747,785.80254211135,-6.0912174514155,1016.20419251075,307.028020679202,178.515651488998,-23.3517072052803,1169.44398567527,-106.486403697364,349.870303920228,62.4662489353896,587.651213684853,35.3242334275483,2381.72986806947,-50.6045717036411,1998.3562858944,103.479106520362
