242.852263537176,-17.3106114203393,633.154807163862,195.386913264601,1145.26899463713,179.019749228475,1184.28542602149,103.912574208194,367.60247733784,94.0284389672751,288.682384893558,41.5337264645351,859.014210992587,40.3150176506638,796.759407039908,-17.4351838481191,983.693653389061,278.340969932117,178.246753838478,-24.5962464259078,1159.09731596628,-105.378960078124,364.319914538599,54.9675544841333,617.228745508596,24.9234081238,2465.68044949878,-65.5251594389456,2117.06843371286,66.2455102026845
234.213158669742,-16.0908974546468,601.442106457101,194.778459780611,1102.06104209882,179.84220076715,1129.19531783409,105.226936176526,361.728736852512,91.9539956809281,284.240300412561,41.3824308594232,836.721245570889,43.1779143999622,782.040984590828,-17.2871918922802,962.769574897753,279.753861593945,174.250094910185,-23.5324839582924,1138.40830298992,-95.935889727714,358.839991047202,55.3768322935286,612.496990558185,24.8970936039404,2444.01842924633,-62.3890229890589,2096.2837013865,69.4288852187324
236.969516351893,-16.5288123004511,613.330268134375,196.313679403643,1111.56618882498,181.581753679771,1158.65334828895,105.403013975756,360.131794971114,95.5975317744882,286.055166724805,41.339776878365,846.835669266442,41.1015156771876,786.442900685637,-17.1724747974298,969.093849643945,281.604873413005,176.18000529885,-23.1170329100389,1150.32260534912,-109.266189518043,361.869134527658,55.3899379822131,619.472474035147,22.0698144245544,2471.51310743201,-65.6217759978253,2111.67098312008,66.537392549842
240.552907595863,-17.1117199248807,625.311511838099,197.289923483454,1130.3350019269,180.177669819198,1189.16396031289,104.716521542013,367.440565999431,94.3874335080959,289.220683013554,41.1841827139161,857.116017643179,39.996813294676,795.929304557506,-17.773652073789,983.267178199049,279.366658999885,179.931866503539,-25.1868305906921,1164.51983954853,-104.697025149371,367.376710451424,56.7254879814044,628.138024181343,21.2798291368045,2503.22646633296,-69.884598221088,2128.55045854771,66.5819246114039
242.161430990921,-17.3028201043966,627.747609868762,196.379950592323,1142.61377761858,177.459711921967,1179.13315670486,103.265340096748,368.268726648513,93.3026068911121,289.303852356344,41.0214297003112,855.211744349867,41.6515508204942,796.731121957336,-19.0127707475023,977.671480071756,281.206076788745,177.607103274243,-24.6060196343513,1171.06343973291,-109.38965886816,361.72089265342,57.4388845923797,620.752121365834,23.7748505698245,2463.84812853118,-63.9147398597878,2117.76653659466,66.0426749275612
235.209668680219,-16.1291732674586,605.099413441074,196.650808472101,1108.33796475495,179.884960482401,1142.29531099933,105.392443646233,361.208886067018,94.0601784384182,285.915211388435,41.0701596057286,842.566280737749,42.8339691460475,782.936547745883,-15.4788276256885,965.039826643587,281.985769386584,174.764048881764,-23.3584813141838,1154.50268211204,-101.69075739703,358.217169197206,55.0640057370995,612.061177168704,25.1762403671432,2448.05069516319,-64.3245249311241,2102.97436804271,68.1794893607958
237.805994857262,-16.4588206702071,615.338350099329,197.659960656258,1119.1974213542,179.155572539894,1169.71837669132,105.685612234794,367.971420173571,91.206938475589,286.820967187052,41.6834745455245,851.9625604874,39.1820555277707,789.917696730957,-17.8748196418583,978.474742552389,278.980924394306,178.397239719696,-24.8748931954216,1151.26670120528,-106.262205984545,362.445092704603,55.4300239003385,618.985889542106,23.5070730948958,2471.70199882329,-69.4882965192841,2120.04712232168,65.2752927327049
241.368320068983,-17.360157726057,627.902824469912,196.076525616607,1131.90937397306,177.962210389157,1198.82621711288,103.978022206138,372.079033096787,90.9043889444757,289.563421061818,41.3356857103513,861.188107053336,37.9482490531674,796.849763858809,-17.6180855280446,987.224313861318,281.244134593227,179.869778525005,-24.6236534603719,1155.7601209091,-93.8240075321026,367.393766269168,54.7518986645651,626.503366243909,22.2795325557843,2498.63578105416,-73.9691655650705,2135.58147127083,64.4930850641271
235.496070326104,-16.4378726151811,604.032251390026,195.499908496255,1105.99764563989,179.563077469317,1135.42283643324,105.556064923925,361.999918222851,93.2501206089831,285.100384237373,41.4584538906107,845.648652074639,38.3628843879813,786.75499996063,-18.793906697144,963.802723963984,282.154157457632,173.631531584834,-23.3521245252913,1150.90975261577,-100.109144989405,358.346422000058,55.0257931017375,614.060497936595,23.2815589104396,2440.24548475266,-63.3466893489821,2104.69157827781,67.0317464155441
236.069000491884,-16.1203481322205,608.536941462733,196.786597340132,1109.43357126633,178.841793823395,1154.82398215347,105.988356102136,363.466383283163,92.7144025045206,286.631607341913,40.9724787200193,845.761818280363,41.8457931063774,785.571947270825,-15.647700691024,967.004885448631,282.628238201313,175.719598347539,-23.692223218576,1158.4040236337,-110.325720510539,364.219515802041,54.0655268602029,615.322635774828,24.7130752711025,2458.32045730635,-67.6914208104262,2112.89366738116,66.6728993539922
240.411632002526,-17.1641626361912,623.873750084059,196.898385787217,1124.46820276744,181.887454762667,1186.62534094902,104.973382110206,372.864212284959,90.5088074874275,289.409400146567,40.8091725916169,855.494792105011,39.720997159525,795.528753836235,-19.8710856104204,976.916924324303,284.882668905478,178.523992177286,-23.9272185163027,1170.33062062778,-105.833046975736,366.955039808989,54.3321631338474,622.470785562029,22.9865109591923,2489.51762899575,-73.2594070146648,2131.02062673702,63.8135916637777
236.919576600829,-16.4486425589946,609.849174736587,195.189009658536,1110.41276410872,182.302244726903,1145.5936641546,104.802617591159,365.561395171375,92.0849374981,286.743817396666,40.7946494262308,846.638794919546,41.2590255388093,786.821951997076,-17.0177348224595,966.856506270108,281.882748922617,176.138837926526,-24.5203144877795,1149.71742338085,-101.894770190505,360.475200793418,54.2614320761358,610.166725853024,25.956126141446,2442.46855053448,-64.9985854760885,2109.84443290434,64.6061415660716
234.528958193075,-16.003070805502,606.155548589885,195.507602824158,1103.35179243136,181.868820254778,1142.84868264142,104.873564452449,362.630280755067,94.1171958522348,285.175919603899,41.5074281757009,843.977585205985,40.0489865374783,783.498523348652,-17.6263108307892,966.021256594148,281.93882390177,174.157571741301,-23.127771978548,1137.34472060326,-93.3470549162534,360.822389425722,54.7993339836086,609.009412109483,27.5827860926198,2451.94445667587,-67.3247847610974,2111.34959742809,65.1087143561178
238.128742438278,-16.6911380386797,621.493278545686,196.059967789118,1120.74683011716,179.421500994699,1175.0163186399,104.870167938466,366.718761824199,94.0644471300368,287.759453633991,41.5281410099656,851.702665993675,40.4741821529574,792.715438923411,-18.2921428348163,978.250889827057,281.494819176092,177.499732043949,-23.862338426941,1170.81442328218,-107.41681201804,366.429234879612,53.5583567470066,620.358459955337,24.0056554827262,2482.91600989779,-71.4716156051116,2129.56997327847,62.9308974368747
241.883515774829,-17.3244017743649,634.105928825762,196.114365087715,1140.79703757803,178.869834322964,1200.69234151201,103.940830527688,374.565382124262,91.1494793004836,290.967114764514,40.9331320960555,864.204960105866,37.4904055534701,802.695058665173,-22.1027056778022,990.415127769352,278.81520311911,178.005013655995,-24.579199901873,1169.25389963547,-107.86772970193,367.328798644069,56.1643278300814,621.234541201369,25.1316940197193,2469.13717363319,-69.8254846456972,2130.07146671659,63.9291854875163
232.990639008088,-15.8543065413252,602.242746438112,194.170158560841,1099.15412795442,180.865112933829,1127.1460779929,105.928438396946,362.722799406718,92.8170527435361,285.024132797782,41.3003509325652,844.014298486103,39.5276832170708,784.07105631124,-17.924872773613,965.372794298457,281.449495833515,174.407030592149,-23.8202532056495,1154.62466104306,-102.708152444638,360.285712923888,53.0255037250691,610.821605531235,25.21035593581,2446.40833351925,-66.6493979320736,2111.01871791075,65.3749614370116
235.925397112024,-16.2454087204544,614.285681109515,196.61157437857,1110.39917390367,182.553984517699,1155.67949913154,105.047881777291,366.357536435047,92.7466986025838,286.98699564942,41.0634305056035,848.925019658609,38.9825608962684,788.591390032858,-17.4073873273655,974.47424054766,280.153507881215,177.040289935833,-24.1990896667079,1155.60631881867,-102.987944238207,363.785300155929,53.8902664993123,617.660579789928,22.0883650553274,2472.77394530765,-71.0106248959837,2122.94231492745,64.9037850875311
239.436094556026,-16.8875356821065,628.939203975264,196.481101842937,1134.98467020815,179.762246609148,1186.52543317225,104.047110670126,369.913417899632,94.4729874313061,290.049561375768,41.0327827717261,862.373754624286,35.2881639137129,796.294483225335,-19.0471155712645,983.664891629117,282.172668950592,179.399364796929,-24.944960671522,1164.56964122129,-107.401708851687,371.77075624517,52.0475163910704,627.011876005049,21.0310262306753,2505.02990776378,-75.1525484267699,2145.61551926136,60.9068969014846
235.94667710342,-16.5144490752886,611.603309408288,195.233188260681,1121.46895567589,177.874353365064,1141.55981968004,104.876880147958,364.014909917566,93.4889443425255,286.807630411214,41.205204924722,847.154295199815,42.660671031967,789.414301164817,-19.3473879922497,967.748198213116,283.158720405127,174.69556932928,-23.3594941584082,1156.65004883754,-104.59057219021,360.143773445274,54.7500710004968,613.78027782394,25.2501877570342,2452.43913159108,-67.6193647679367,2118.50576827215,64.7814121095256
234.215555657219,-15.9989288162978,609.886354065266,195.796403637334,1108.40328334405,181.842473271151,1140.48758068471,105.432567453146,364.276389436532,93.6327843964248,285.625615168872,41.4620610029994,844.801712361264,40.2233267395074,783.880819469871,-16.410311895752,972.937283398012,282.32393868524,173.81675856998,-22.9092645967675,1149.89917672555,-97.4194765022224,363.514948054177,54.2949109907374,613.5327545309,25.3751647325936,2464.14212822653,-69.9046476920493,2124.04976142745,62.7598944520993
237.696157586203,-16.3959407636081,624.102997130074,196.310889025878,1130.60621247251,179.204855728547,1173.74168873124,105.466517840397,371.478256999708,91.7184503317941,288.619509108195,40.8290122442684,854.521459032423,40.6175147864728,792.285854334183,-17.2629927629981,984.444409881409,279.714205165829,176.490082473811,-23.4200587527791,1160.51866410752,-102.135685945465,367.924280093569,52.729738768918,623.95786725099,21.3432369877819,2493.00442413909,-74.7479624262708,2142.57913590362,60.4053480742421
237.852022529391,-16.3998000088564,619.857039607174,195.035460256951,1132.45473082936,179.037921508581,1152.25542583923,104.424080105918,366.477241272671,94.0675084818957,287.387564379087,41.1594201899025,853.074258196354,40.0044299013819,791.990129426225,-19.1695627190521,974.672380802641,282.827480114728,174.443389612368,-23.5909319163068,1158.19499236186,-101.565993907524,366.305868713178,52.9036547322822,618.540015276224,23.1072111681818,2457.41034013975,-67.3600137148591,2126.76481661819,61.851087229281
234.119243927397,-16.156852810044,608.616246717807,197.241811388983,1117.60148133058,177.999746243056,1135.97459775226,106.434620110406,362.423323772253,95.2887229322897,285.217658540229,41.5427146334468,848.591701191694,38.7558088445123,785.280551346436,-16.4358080254036,967.0577718824,285.80788778114,173.719423931257,-22.1778004452634,1165.2999421482,-111.681268583465,364.674678519759,53.0874662030048,617.403736888928,21.8957612410539,2457.48790266855,-67.9592219477063,2125.54417794342,61.7978303943827
237.139151902336,-16.262195489211,621.988409688256,197.481834404897,1128.47861483673,182.325499637881,1168.8545187592,105.28469145301,370.157453650613,93.7607518286813,287.829541813956,41.6794667616513,852.30936846424,40.3645467609954,793.127636946583,-19.2105945696421,981.010566315436,285.131854925678,176.852330398991,-23.6498180016026,1162.51462519176,-109.259753316254,371.713224938143,53.3140505121647,623.260116154422,24.5143045293731,2487.66741376878,-72.271894286732,2142.23608157325,61.2075803031694
241.118802746349,-17.2071353546834,634.595974855494,196.658019950226,1150.72800519386,176.992073428505,1176.07017487455,105.12486479512,372.72484098513,92.0126237148447,288.787791332697,41.4385847328017,862.770241743045,38.358644411348,796.268744080798,-19.0842631549115,986.259885321212,280.092828600876,176.385480932834,-23.3319656363334,1169.80017439365,-109.641238194615,367.499169826518,54.1491432203916,624.563563420302,22.2452556595522,2462.95048106616,-67.465330435892,2139.13474451261,60.6573551021588
233.016119893399,-15.4178116239218,609.766919955917,197.545843608907,1114.30347043484,181.25134684475,1131.43346144766,107.426553567723,365.19108535767,92.9548999669187,285.129214500595,41.9008073965049,847.16286617863,38.0101132435205,784.130356872846,-16.7549655490857,974.490122070624,281.368942905453,175.040900658405,-23.631761821554,1163.05487371507,-105.221036237124,364.262706761857,53.6741028332661,617.472833593967,23.3635439024779,2449.78886385996,-66.4472490998968,2128.85890249857,62.0166835229338
236.101964520684,-15.9635081301394,620.919640927947,198.590212558315,1129.90554629375,180.173300631389,1162.22378173042,106.487437976755,368.814822776182,93.0019442733091,286.632546302922,42.3139505828179,855.707327802256,37.8386664711609,788.984375388107,-17.7692440811368,986.002951263797,280.170052149879,177.140537686374,-24.2163127169396,1157.77437113212,-106.384797650014,368.273319674223,55.9638294989553,621.97961969241,23.576314115599,2473.50879404204,-71.3931203664227,2142.56698397494,61.0349499863311
239.923397089028,-16.7510211949466,634.588619981634,197.682591152401,1146.91633406109,179.485095747041,1189.20702446695,106.714370480343,372.224220180137,94.2704273740234,290.26540374593,41.2131507918795,866.931927527447,37.840632198818,797.842356463869,-19.9047749112245,995.646159025336,281.874585187667,176.127420980641,-23.2733302450853,1180.79443310201,-120.486234096118,370.755736987625,53.5683936931503,628.324691440299,22.9518679037667,2462.8325312344,-69.0770072477346,2146.27030023034,60.4112298027389
232.027832352355,-15.1727081878191,606.348685310798,197.921542201022,1116.97254443824,180.656525304045,1128.67731943767,106.846177287609,365.533125388828,93.24745464887,284.871643901481,41.7392953099526,844.057528194027,40.9516534240676,782.433455644352,-15.8006876663847,979.335043432532,283.008108336161,174.293135695299,-23.085595809349,1154.13464615408,-100.381762019378,366.403092646854,52.3199202009267,615.141526540529,24.2293499738143,2429.78890856973,-64.8801399736627,2125.44011686048,63.4600504825205
234.440257192226,-15.4277512905281,618.040282817713,199.028418104779,1125.34701929934,182.102245076855,1153.58815509727,108.373966949682,367.694489761069,94.3142498629996,285.684063859314,42.2570770401667,850.45563949386,40.8005919359652,791.434746587352,-18.4810885249199,982.232054673345,285.841508052718,173.580276290746,-22.2549021211467,1153.18136772446,-101.045193610434,367.135178966422,53.9022685905233,621.266741195526,23.8334543940569,2448.62271564903,-68.4600101988374,2136.62780479894,60.7713978750244
238.233527922237,-16.3614936563413,630.093662823608,199.305555297507,1144.48818533481,179.201758239979,1182.88565704351,107.512880099185,375.255822387015,92.2645744543535,288.362158130078,41.9149136411893,862.046263058203,38.1900801645783,796.00820233485,-17.490079999649,995.031774532138,283.521957969644,176.629963328969,-23.6848701977152,1170.20550705586,-113.932449978229,372.768775877205,53.2665404117898,624.586951032148,22.9208452020497,2444.1289151657,-68.3638567818348,2142.41897023245,59.0970742055258
231.619867259928,-15.2086854684594,603.544651716089,199.375406508005,1117.06322718012,179.687247183027,1123.17347321707,108.064079199568,363.605292965534,92.4393476111197,282.85313989913,42.362675143098,842.31208496419,39.425202825766,783.052066860662,-15.9023966613997,976.877762034879,283.608275735081,172.865779639278,-22.8065684681485,1158.29340819685,-110.347354454798,364.154828196574,54.3291381352607,613.605052636461,25.4886450798623,2415.65007055636,-63.1483078602684,2123.24929861103,61.9563388193035
233.495471897924,-15.1749892687315,613.789102645695,200.352878444666,1130.34235483566,178.630276598505,1149.13768092741,108.240659869306,364.78040701642,93.9674718689032,285.039600213726,41.8117834950063,851.659351610226,38.5693963294066,784.827274510524,-15.502883605842,987.06514829855,282.06020362919,175.308671081765,-23.4137075013053,1156.11902788217,-111.619895307967,366.889212852656,54.2616035107754,621.053463756757,23.106929071526,2437.24416971193,-65.8842038806207,2130.9396561559,62.4863070266904
237.491792503358,-15.9206412938052,627.686098359873,200.034838369756,1143.80984653272,180.933644503862,1175.39025000233,108.130779028644,371.597937567399,94.0868164902169,286.867467631466,42.0400499310341,858.319818005622,38.9331382610698,793.583369586604,-18.6182151925416,994.488739222294,281.224971421139,175.370335088673,-23.4431231085604,1165.89978682063,-109.278644324655,371.037166337577,52.8493411971988,621.672601942747,24.0360709402361,2422.9857459402,-61.9266512524399,2133.19161417436,61.261392943761
229.801160065788,-14.6477261582378,600.403947785134,199.67801963447,1112.6184969164,180.694403610614,1114.95119123059,110.9162792603,361.013168645823,94.8304369620442,281.557938379003,42.6890113770178,840.946625536749,40.089809060726,781.485476711961,-16.3402504024132,975.018615930437,285.699114452906,171.511100881717,-21.5559285222943,1149.81159950098,-103.582154335109,362.837733225911,54.8726003159241,615.220283367983,23.479287367336,2398.13289740768,-58.1702191508305,2116.85182381968,62.5918742114418
232.514451158453,-14.9564226533507,611.398830729622,201.090053425769,1126.24287962564,181.903572118447,1141.91188496278,111.435928581452,361.587785051621,95.0224139888669,283.108167256307,42.5738474027461,845.982250746474,40.1960451592337,785.421666044878,-17.6002698109067,985.521022280821,282.387430362968,175.078160046128,-23.2999497914868,1152.25799518161,-99.3319248505024,368.625240227536,53.4272254954386,615.535072221156,26.571419279776,2420.65182098212,-61.8476238204992,2128.57552436741,61.8681784039302
236.377062311555,-15.7839069879021,624.184461568813,200.982991966985,1147.77969586229,178.751280916367,1174.28321478387,109.277111050121,370.592656473717,93.5086429324741,286.339292525703,42.0331299026082,857.738264615117,39.8143786306753,792.67695480022,-17.4240963324241,997.933549496061,280.980627240022,176.365727987009,-23.4237139525374,1162.61626182329,-105.445294716241,371.738059039196,52.4877226342317,622.324552990909,24.0263745191187,2423.96953745224,-61.3704029279252,2135.33509179052,60.1990292914214
228.730604682181,-14.3792412232815,596.765806058236,200.883180278966,1109.58447326459,183.124147174801,1104.75013205037,111.944832893997,358.867347940837,95.0420448523461,280.662052619966,42.6618681288948,836.060012878651,40.9781005215215,777.077655188413,-14.5290246924901,980.286002889688,281.353663937667,171.418412113809,-22.1208031231536,1161.82475388753,-103.967859729834,362.411827647945,54.3581830793407,610.674565425016,25.7601571066642,2385.34108377422,-55.6223926362143,2113.29787927351,63.4824690756825
230.588639379189,-14.4315045557855,606.960345737547,202.339412158604,1118.80552208045,184.127986352526,1134.44329165698,112.376647072164,358.964474870781,96.5379582473672,281.506034133438,43.0543051089132,845.698390243977,38.8224408972487,782.116644711998,-16.7352405996874,983.782168501915,284.855021504014,173.491187392038,-23.2319303213108,1140.75355996629,-95.4462739636596,365.990171645145,52.9899444729874,612.29468744065,26.583789614657,2407.75532822687,-61.0954664819394,2123.58157361945,61.6084454375589
235.193075791594,-15.4438990747243,620.093306618274,202.520905216559,1138.73786508534,180.225881280972,1167.30790199306,110.855019711867,366.169364846944,94.730889634312,284.187614117834,42.9739777456405,856.563249804892,38.4723722541565,791.139017615806,-16.5799270661795,1000.05531248806,281.760288836066,176.258926926263,-23.5530130153018,1163.76441941036,-106.85238677332,370.666883434593,54.379549084714,622.811338155503,24.25105804788,2440.98445550574,-65.7110612913962,2142.8225813461,60.1688530507613
229.919529418462,-14.4422902728524,598.417372760463,201.63888413881,1117.1122509338,181.911043377524,1109.85860200429,111.699305085698,354.890420193803,96.4505597398901,280.281386551428,43.1651104445057,839.795504511803,38.7528080844878,779.38085739308,-16.7978306320629,975.771783716804,285.107692126058,171.317024269162,-21.8315372625364,1154.3987270041,-103.660110870358,362.360943838845,54.3472466741764,611.303851998549,24.948464198016,2386.92116979992,-56.18318155517,2120.62375647168,61.9004970990452
230.68586729004,-14.4878086937517,604.676113197624,202.956340098037,1122.55991700844,181.006014501725,1130.05494915242,112.765548992243,358.203382574508,96.855318518349,281.416633254379,43.0809001597648,844.2898884236,41.8796492054083,779.408739884121,-14.531635432442,986.136487145978,283.681094677224,173.23578371947,-22.6048851068505,1141.82217944042,-95.2466585027688,365.578388557,54.0638143885474,613.508125630325,24.5828438204833,2405.37456921131,-59.6655412861023,2128.38495331884,60.8665809461906
235.329906596247,-15.5204017025821,618.306254656525,202.25144286554,1138.03346038577,180.648798455293,1161.87001101109,111.811795422342,365.681639511898,94.3333421856043,284.446036505184,42.5409187919222,855.801859140701,38.3036628334605,789.736823374131,-17.2458623915533,995.783310713236,283.783363614901,176.326424234634,-23.1718402669443,1160.46140512159,-104.781662093823,373.353280668771,51.5526618674237,626.981967125158,19.998812588255,2439.50108846512,-63.3551826680543,2146.44705845444,59.5518590733161
231.329383885378,-14.7467667514973,601.783270386882,200.880681967538,1126.79582161695,179.52845225481,1116.05225912934,112.301848932618,355.535381562847,96.1684889999563,280.55300063904,42.9347910481818,845.280773823519,39.1589226291869,779.744512788714,-14.7674928620684,983.168225983147,282.129731463456,171.413080915272,-21.5668098856845,1151.93970037226,-106.214699989417,364.610086376099,54.0287059074988,610.884755847225,26.0926690798957,2392.30524604126,-54.778478773584,2124.9367981062,62.5283245012447
230.629549365579,-14.2718584248168,602.734279853617,203.2503450847,1125.46568219497,181.231534791274,1128.2860572675,114.016677132265,358.847543512887,96.9463557843176,281.511830802173,42.7763562640189,846.776757554558,39.1077057383327,781.464660989292,-14.8021561156795,986.286404791824,281.496985667102,173.311215152134,-22.3220627880191,1143.47200058276,-98.5321793760085,368.447656821043,53.5206384183274,617.319060549779,24.8577423666575,2411.39657413802,-58.6134689444121,2132.89229837776,61.2071842392629
235.5199151928,-15.4189155838543,617.260719041449,204.537656353889,1142.56377255053,180.922697266861,1162.27077875518,113.151034728234,365.348998194592,93.2527771412636,284.143885456318,42.5229593447325,857.991351123044,38.5301918860924,785.849834373581,-13.9364123132462,1000.07711943342,282.474840460642,176.520394209928,-23.6875056734258,1148.82049196296,-100.411461204787,373.180430166484,53.829150571043,625.027802164886,23.3863964506068,2440.81299994735,-62.97289310757,2154.82301720765,58.4159717207709
232.722805964911,-14.7237683413389,604.896685379481,202.839667413592,1136.68366003526,181.191034138802,1130.20568793107,112.332715603315,360.176984603533,94.2527819350827,281.615565419232,42.9042222085295,852.250543758362,37.8787885676298,782.051158738121,-14.5284842275682,988.372766863169,280.941576095243,173.804107440855,-23.0147252397333,1146.991486675,-95.2367369197534,368.604290360482,53.3199421978846,615.90034186531,25.5700178428533,2398.70104051575,-55.0885723225767,2137.2704275752,59.8055341165971
231.269811918619,-14.688075147059,602.534988458892,203.817663891424,1133.30965737972,178.010271038442,1127.20790064512,113.548971426821,359.373377866534,95.5740953376058,280.855447774297,42.7861977306333,846.004854934019,41.2406224452319,783.908087693379,-15.4450246136814,993.099095366671,281.357350371891,174.696923550335,-23.1024936620812,1150.61204792275,-103.93263949222,369.231279567847,52.9356109406678,618.134034634525,24.3125870671542,2413.89971522511,-58.9828151046717,2140.48156522325,60.7547000720048
235.296859147073,-15.1197553627839,617.859940415024,203.437706659431,1144.35157181594,182.143110887193,1161.23749052724,112.911200560082,363.028189536033,97.1357667090887,284.145950911407,42.5634686429402,857.763002684059,38.7288139773981,792.534956286744,-17.2604955418444,1006.38704704456,281.381662621547,176.795809768089,-23.50434984397,1142.63522493048,-99.478027362123,374.257193711287,53.9966534624139,627.158935148827,23.5067928109092,2446.72758642204,-61.8432620753387,2160.48718249998,58.2623431980456
239.15912185894,-15.7009537706345,628.211293669179,202.554362559696,1164.71603208195,177.243962365354,1170.10458683879,111.703641274801,367.363084517246,93.7936505383984,284.644368389749,42.8037693346677,866.271865099548,37.5200913764569,794.682170090573,-17.3026235222528,1005.69394004202,281.284848930897,176.580423382893,-23.5292816522653,1161.25498076542,-102.531672266764,377.106598720597,51.4901267602967,626.235841097075,21.7643599390016,2428.61656144273,-58.8762738103876,2158.0132439139,58.3482932537476
231.826219668656,-14.5148370023352,605.293579205272,202.94020530224,1136.54699369452,181.38774091062,1129.5033174209,113.916414759093,361.556441110756,95.2332426399615,281.604153970366,42.8108896988359,853.817636017572,39.6739930920071,787.41221881628,-17.1112458362032,995.376286819588,281.351643903416,175.015757166338,-23.3291204099136,1159.77918547303,-108.918929315168,372.29939257489,53.083603195238,622.799600247336,23.1657733010208,2419.8992462871,-57.5298656300067,2148.9544622509,59.5966609608931
234.484747425217,-14.8414967159823,617.259008516088,202.717761779535,1150.26123921731,178.374156371456,1158.82685718958,112.587358153374,363.721922390361,94.5456983379501,283.769815364056,42.9781578567372,862.990390399475,38.1432035251312,790.310506463005,-16.4288193079393,1006.57386130446,280.393031817604,177.556688966395,-23.7892126177003,1151.62846958108,-96.1838114256167,376.46688159317,52.0698832997772,631.001267140583,20.554854552838,2449.97119853706,-62.8808591338322,2168.79286528899,55.2406376396228
239.173583448795,-15.8619765374578,629.885470638159,202.487688731853,1173.17097652149,174.540572663011,1184.53967964226,112.541853076133,371.713823840452,95.0791703094478,285.81021731594,42.813461778857,875.447636460759,34.6127893653477,802.387774211117,-18.4128246690909,1016.8424635626,280.372127627428,178.113059337177,-23.4909455990498,1170.01477087607,-110.438706760498,379.899512437475,53.0263404844219,630.710506437666,23.0790121520274,2445.41919266566,-62.2231671861047,2173.48082986005,54.4016537314183
232.34816982389,-14.8608907699542,606.454097616671,202.838112369938,1142.78988240443,178.260927853914,1132.79810868364,113.748337775031,363.595805618513,94.3000680942345,281.891136516189,43.16023418274,855.341544515658,39.2508919150887,788.890147886039,-15.9041134889176,998.69958999773,280.005648985517,176.070690243293,-23.2894798750877,1153.56297359172,-94.4471741405998,375.929644927089,51.76207750777,622.453099107738,25.8243459915153,2432.27377626186,-59.7930776197195,2159.8191499985,57.3559039826926
235.561308162919,-15.2797646141803,617.047343528209,203.705786396962,1150.84641493698,180.714564782505,1158.07551604613,113.475383853948,368.460371096042,93.5754608666628,284.022010452762,42.9200102471827,865.581741679895,37.9522899768912,790.435098958305,-15.4098039635311,1007.88668804248,280.727576471821,177.825614763781,-23.5717291549817,1164.7686481237,-108.688583240918,380.920434008438,51.7279288940597,631.577245512536,22.5514399710717,2459.33768213159,-64.7086253794589,2174.08775166313,55.0235413715873
239.126949362196,-15.6527644681049,629.795509982882,203.597654556971,1172.76860257876,176.724093173943,1189.22394539675,111.853581994535,370.573985059575,94.7790015946189,287.485199104192,42.3643503090968,871.587093114937,39.0464947237456,801.557859357972,-17.7883223581953,1023.72802419193,278.223888764033,180.550398329367,-24.4025401357806,1168.50320790569,-110.184979368258,385.385202565208,51.7379808381306,638.683451813973,20.789230197627,2483.82271269786,-64.9331073546329,2189.32597807195,55.1739864259643
232.973905049525,-14.8534687830603,608.656205675123,201.147017237475,1145.32528901511,179.357019281609,1131.34273346939,112.746721067161,363.982299180027,95.1449679212866,282.560331247832,42.8584661236452,861.088951354474,36.1022251023382,792.698575906052,-18.4147798860849,1005.35782354117,276.5498467407,177.329011068824,-24.8201011083678,1146.97385008859,-96.9355686581611,375.259404505735,53.6437676508411,626.510798160745,22.5316934317449,2434.53474772731,-58.1793917861281,2167.17145366341,57.0784992071996
234.813028978331,-15.1107199734349,617.45920822126,201.855607783619,1158.46737649824,175.816513817309,1153.77741554424,113.473501510431,366.183330337386,96.4295830052365,284.472859057903,42.8662039580629,868.310102805379,36.5152417158021,796.974391425645,-19.3308423388175,1007.31916691141,280.328340904894,178.261632449659,-23.9419247258249,1164.93027947187,-106.233106466549,378.401799617204,53.6104493390429,625.467498391649,26.3815467049322,2455.58658381942,-61.4897482755161,2177.33887205228,55.5353094852157
239.160101461872,-16.065544299127,632.325808615547,201.663989608264,1177.50219626499,174.681620044088,1184.54091965423,112.473019682092,373.377251265302,94.0321385256651,287.134070469079,42.8475607609223,876.422067356109,36.0979592552408,803.217653588675,-18.9940264850769,1021.97700675797,277.368460489583,180.125129259851,-24.1465266423906,1171.49050631136,-106.508669062854,385.549622120222,51.47204613419,642.298240909011,19.0351414091162,2490.07951639766,-67.9554169681338,2195.53661660164,53.5346064219583
235.729132628415,-15.278728445677,616.77102747013,200.630764043221,1161.26098533988,174.789200383921,1146.42952706318,112.706944480361,368.383818951852,94.3548670813693,284.643316808836,42.9093101377283,868.68391330357,36.4637708240282,798.335995520298,-19.6429274489724,1007.39513663661,279.383103848998,177.051438706207,-23.4675191296442,1172.94118014002,-110.27489749795,376.824866208379,53.5025798725022,628.285929365847,22.6827816816216,2436.3519908545,-56.6417819047773,2172.74125376252,56.7205615370949
234.733859489345,-15.1429668796627,616.170363180091,201.972609240954,1158.16897473568,177.956292457065,1148.11019895951,114.852750878717,366.780610601912,94.7300342028266,284.577471444841,42.5729960292927,867.248254949197,37.0435843680979,796.52928812021,-18.4684315637397,1013.0981712936,277.889158526653,177.042724292495,-23.7818028802477,1162.8677104885,-101.150015702676,381.26820247727,50.6838411123606,631.08967953612,22.2117455224231,2452.20347024813,-62.5909733762944,2176.27322355838,54.8555728824825
238.589997826174,-15.9702735134133,629.444253817521,201.221988105755,1170.91662538328,177.446826827795,1179.66757849288,112.561800486751,371.158691924301,96.1125436653654,286.460667164553,43.1073318632236,875.994815282476,35.8067194059881,802.197594660184,-18.9017489781378,1021.1614650262,279.008267764365,179.769454532599,-24.3969300594127,1158.61976156305,-90.9727447824621,385.383326582818,51.3722376368896,634.903377407653,23.1000246142589,2481.84568215182,-67.3247944034067,2193.54479233392,53.1268610233313
236.162913989148,-15.5441771971679,618.606843634122,200.747789971591,1168.34413645186,175.479076495626,1149.56085013723,113.716604550691,368.468621542238,94.5477151244617,284.550588675944,43.0172772054672,868.055675702833,37.0121731348227,797.268722203471,-17.9306249057967,1012.26433446997,277.665793581439,177.309978521039,-23.6202809067367,1155.03832072581,-95.7321133745334,379.115125662932,52.3948469287617,633.036551149059,21.2701902679367,2436.46127856456,-57.6918138094531,2177.1770156489,55.1877529372769
234.137185714443,-14.7525996670185,616.117898431651,201.859292487087,1152.11898445727,179.07747812486,1146.02254122263,114.305800093381,368.217113641485,94.3427940685828,283.85142154499,42.9297379692775,866.431778134855,37.4405057044223,798.314795392194,-19.2005017864661,1010.34235709019,279.903515814325,177.643073567668,-24.2018914327808,1153.90287550307,-98.7423702287284,378.665390974182,52.9924562091779,629.16769082857,22.110998950225,2443.65929784969,-61.3414221904355,2174.96632370236,55.7168967095232
237.693546861076,-15.461317948218,627.696249235304,202.273697459392,1169.1381996932,175.70968233231,1175.49665431445,113.113021181488,371.779294021748,93.3800661543979,287.272579543882,42.5800920196353,875.601058455524,34.0799275064514,803.125980055616,-20.8780629597052,1020.35132563744,278.134010281999,178.934302943776,-23.7860234001175,1177.0245080657,-106.13426574264,381.542815940067,53.4018083832953,637.351012135661,20.1209074196677,2469.61155432453,-65.3078040632946,2189.66046057426,54.0769689766553
236.039377385803,-15.3831037545733,617.859362894062,200.757367209703,1165.18118692284,175.501676288813,1148.47004499171,113.655186358586,367.015897259021,94.6508788917351,284.837731793964,42.6043390586173,868.759278840121,35.0011360325745,799.384679699098,-19.559864782369,1010.3811161895,276.648830770859,175.769687850542,-22.7093901255854,1158.76775375119,-103.631881498334,380.568373895247,52.3739264868079,626.836221899235,23.0789097362134,2424.92404965112,-55.7240312829038,2171.79352133709,56.4011979188649
233.298348114322,-14.7270855907546,610.999077354607,201.717803907105,1152.78208592779,174.095416270669,1138.36216229449,115.052790072798,362.612179413088,96.2517777421322,283.584648039284,42.9440235967663,863.510035944822,36.9238184445016,793.043518582094,-18.2699633781171,1005.54149195691,277.73924667066,176.466868137883,-23.0646937316784,1149.38571236896,-89.8389788477937,377.606607398564,51.4259093856732,628.975166277793,21.0014683923159,2426.93392501225,-56.9836316210582,2166.29715973658,58.113689405506
236.403385965148,-15.1518901782327,624.71790972568,201.165566282162,1161.6866565544,176.472988712006,1167.21558562816,115.21954167664,366.271803594666,96.3830780093395,285.944352439314,42.9260774055168,871.033331940629,34.9474086376797,800.040864302295,-18.5490262547102,1016.36660295237,277.451725754066,178.666881082466,-24.4811498353625,1176.3899400869,-112.10186457006,383.462141877391,51.9963282573638,631.751852389461,22.0655514795879,2461.58042993151,-65.2609542608606,2180.02679679962,56.1709872689093
239.524510728836,-15.5767689335616,630.802911803739,201.262083443776,1174.69092948049,175.458567663451,1170.70113834219,113.162219748535,367.688005220992,96.329973915582,285.782127653548,42.8675109510113,874.371233774599,35.8167447453222,800.207774773839,-17.7790857761237,1015.40600371132,275.382823051702,177.593126782404,-23.3308722478366,1178.21730248718,-109.44450319331,380.963968641589,51.1507428326511,628.745460485969,23.3256819995879,2427.61832775483,-56.6624907852615,2172.24305109495,57.1948543471332
232.505385360285,-14.431885630874,607.575535494816,202.26269614298,1143.51228453744,174.475474785081,1133.51206545859,115.963956582758,363.165455739422,95.8042098704761,283.171212615078,43.0830253863159,861.275787995527,37.0379129637222,790.16876390171,-17.4536795236172,1004.18679392413,277.337199133954,175.356841677887,-23.0929067122674,1171.5616086458,-108.445389663566,377.598725483743,51.1139481263195,624.785162257252,23.386279306855,2422.78945131467,-57.9561396719223,2160.30290432057,57.7591293468576
235.278130606931,-14.936337764443,619.333709181081,202.191313906696,1152.47499437456,178.368025552119,1160.55424052214,115.609074322909,367.551369747286,95.1984493207444,285.062049905425,43.1807870904997,866.980321715487,37.3905092152938,796.44426105121,-17.451072054546,1015.48069688092,276.564508879654,177.687663047982,-23.365845409882,1151.12704616234,-97.3720911259121,382.566019945578,50.6362229019275,629.865781342928,22.3803185535391,2449.36291697848,-62.7253541941343,2173.0571545976,57.1768247642705
239.195065552619,-15.3569508615495,632.895216006999,200.854204987195,1172.19467797076,174.296979246319,1191.18803221211,114.18866526012,375.317477220747,92.6601695721384,288.662820181935,42.4643441425757,876.108365739424,35.1357864528315,802.378724846556,-18.4405055545943,1028.22957857963,276.094364081202,179.794811842861,-24.1555610249362,1166.29306434485,-103.500271520307,383.66874411074,51.631650950474,637.333961121647,21.9202030469694,2456.73725080548,-61.9992556623765,2181.55735436244,56.347339509558
232.1716397475,-14.028430477379,607.21630242907,200.388716955478,1140.51482775262,175.539783938684,1132.79253573242,115.50501284002,361.63877622961,95.7559295560195,283.126655350394,43.2490451339725,862.06394649106,35.3124348989095,789.683781931206,-16.5964804158014,1004.86729998808,277.39646879471,176.384805783895,-24.1178797295345,1175.22628416065,-106.267454730633,374.830536774663,53.0625390231488,623.637564679329,22.6600073048552,2422.73622133941,-59.0518052039214,2159.70016600533,58.2399859289779
235.016404225766,-14.5004689109562,615.650933201363,202.437320997053,1148.45434734066,174.829702286221,1156.5123707303,116.38023159186,363.979110644785,95.9981253750802,284.226542581024,43.4029746088915,861.963395121286,38.6449055860063,793.717768359026,-18.0272773117723,1011.99201634226,273.477910441497,177.85697286732,-23.8413761088668,1155.22424116736,-100.495636233997,376.848688111827,52.600325196619,627.492773257305,23.454443602009,2442.90163946806,-61.3751173949716,2166.20995239934,57.9787369113397
239.110972895667,-15.3834593239755,627.630410730779,201.557782369876,1163.55175667785,173.997461892114,1185.67571724165,115.38806230709,373.796174007391,93.5111451561512,287.830360654767,42.6820579949358,873.499997534823,36.1306077808753,803.203886394409,-19.3441536685271,1022.5362153754,276.480606902427,180.016068378524,-24.2692242630353,1159.08763854042,-97.4231231654277,380.470011798042,54.1016610328257,635.822542607512,21.3689630698784,2470.91893599927,-63.3971643485809,2181.80333384214,56.1731363044869
233.823933490979,-14.6123413814007,603.850229522064,200.076476515912,1135.39152706881,176.522875567227,1132.01267545549,116.344576319647,362.316349121205,94.2956016105406,283.339339526998,43.1968250677685,855.679744328633,39.578300383531,789.062058102565,-17.6456425048937,1004.65270802083,273.777583848226,176.334388381805,-23.7133996501742,1154.88987786647,-93.3793412382155,372.456331909565,53.6956569376425,622.626694941186,23.172108353552,2426.5984325512,-57.36212460011,2155.22862049284,60.154405393289
235.578253835457,-14.7348696912729,613.528929481513,201.231231812721,1147.62341857361,173.828548987285,1158.14088391405,115.17745877004,366.521108018586,95.8553277700762,284.43495321781,43.4488307547442,863.050112823284,37.8078987924047,792.819942524198,-17.0536102259488,1007.33915590292,276.599315344079,177.077293236398,-23.7118310504707,1160.71923138794,-98.2213988265367,375.825474628459,53.3123501221727,626.232158972129,21.8205193787172,2446.1254975338,-60.437431765677,2162.49919874583,59.6536142925383
240.199314904491,-15.6107673421113,627.729829409442,201.041250251137,1161.06357424041,177.05905792069,1189.79856720478,114.535689313063,370.992211585103,94.6084755801401,287.616562213757,43.0124982251985,872.42040134299,36.8075884360665,801.205952449893,-16.9073962823357,1019.26522674411,275.913722390024,179.98544754705,-24.763107645671,1179.49979483135,-110.179803724483,381.907623070681,52.4722901837917,637.041614133721,20.0946255278548,2481.87908042301,-66.9519966075452,2184.94480333451,56.2473133306528
235.348427932893,-14.6565838467859,606.952838436327,199.970802882042,1139.11961501181,178.613282280595,1139.32609256091,116.427596135431,363.179608035628,94.7660937376544,284.104106645941,43.0485727699734,857.071749571797,39.6139374822774,789.422092029198,-17.2450523675871,998.896389632436,279.744131306184,176.610891022517,-23.7067181671839,1159.80303101813,-105.813487766503,371.627705536804,54.3084978629184,623.010093321871,24.0131699032041,2431.16365083081,-58.7130783516077,2155.2263620491,60.3659768091422
235.8448228034,-14.8690879954693,609.828957999913,201.017107082485,1137.16656450634,179.023985934593,1152.73894945623,117.046055021464,367.379237003131,93.9290446013132,283.879252660957,43.6585262598863,858.611240004322,39.0230111841614,791.179660754943,-17.1391156631638,1002.03328341703,279.249034338251,178.260883834276,-23.6406973695654,1154.36048471686,-101.538339987772,376.184800791588,53.0957488082797,621.533545289713,24.3739821754858,2447.46404108611,-60.4396339446498,2160.8486105042,59.9747311815816
239.71171924739,-15.2584708899856,624.705820644563,200.854446978543,1161.6554283454,176.205860631334,1187.99444221086,115.058105918647,369.469331776502,96.3188939036719,288.113998290699,42.9655811765143,873.028877586645,36.5482088116139,799.996087620479,-19.5556484248404,1015.59669197699,277.614524735851,179.857671448947,-23.9986753811007,1161.49200540304,-102.710423413687,380.883438450699,52.095193759994,632.544745334678,22.9650296953697,2482.3856552602,-65.8141148691801,2179.52795730077,58.043827501584
243.468721723865,-16.2104937852059,632.11663959622,201.173289159607,1174.38177694961,175.070172176278,1189.0566181259,113.529802909597,371.844316938979,93.503478596779,288.462485512947,42.5621210269491,877.942332189621,36.4781321386597,801.758199599411,-18.6596990018718,1015.90021233455,275.021613646045,178.441827028671,-23.4837301746543,1168.11162671608,-106.941341323146,378.497717648033,52.9480790091435,629.365719422714,24.2921134208646,2457.3379011794,-62.6749121650119,2172.79021776125,57.3812335259109
235.980080575059,-14.8297359098187,608.960352183844,200.463688956677,1135.80081587252,178.250686561013,1152.62818965693,115.991078236527,367.013331130033,94.6050386542236,286.051217510807,42.6250358574704,860.310127465437,38.5758357230954,794.067197509614,-18.2086967055609,1003.69991159823,277.642000451508,176.543776520937,-23.3009307536035,1170.1404074265,-108.858702146874,375.488684892274,52.9539884007497,626.064563323222,21.842980163699,2449.71298410071,-60.0734457961295,2163.63057810736,59.3984279842607
239.566304259045,-15.5112683177019,620.433862624097,201.342092173137,1157.08743835886,175.167859716712,1180.52801985178,115.94096180252,370.724156453199,94.9632780064299,288.163068955027,42.8245009838154,869.220885243713,37.6374699479737,798.351915954519,-17.6723036452615,1019.0875224966,273.634879802845,178.793039791173,-23.3168968097852,1153.33941692222,-96.2713875399494,378.786025389,53.0218706855187,630.027521154679,24.2166150658254,2482.23665297553,-66.2311021233006,2179.86590754002,57.2590119137183
243.410196973599,-16.1951618473681,636.137320353554,199.945529287513,1176.9593254026,173.439906659227,1211.84604794702,113.730457008261,376.942171639175,93.8427909020544,291.142326305153,42.6747738557638,880.841861537398,37.4710471769721,803.383117634478,-16.7111726904399,1026.96241265048,275.835253210248,183.332024004894,-24.9928719285115,1179.25269188393,-107.87511235023,389.006236820592,51.4936727285477,643.547709054564,20.66227627964,2519.48141185688,-73.1923043196532,2200.65562746566,55.4949262229886
238.47511305364,-14.9353665347592,613.760593894209,200.089926975097,1155.73562601976,173.979535827979,1164.47532607332,114.806321520351,368.10586750895,94.6019407454636,288.321230234934,42.4005223491742,870.644006078476,35.8086894097549,795.262070584778,-16.3838910689076,1012.27600625267,275.026760585559,178.585906995702,-23.5189436271121,1168.05585219141,-101.012229264517,379.579269885165,52.7338794466418,626.581091281885,25.228416919295,2468.07605195956,-63.7438174899852,2176.6027971537,58.549246327889
239.345275529432,-15.4192063822375,616.769227072627,200.889576509085,1153.84755979542,177.19641102068,1174.24042711879,115.800837106547,367.783416878048,95.9941526019557,288.361428407671,42.6107502299816,867.094865739366,38.8531320336402,798.55474655211,-17.2748175736668,1017.01937270598,273.476088177323,180.473771555938,-25.2215847729971,1168.25729455221,-99.0973237647344,381.152427215876,52.8603475926899,634.864825901927,21.8870244017339,2483.49355283885,-66.0498189368904,2182.46965357064,57.1038087079088
242.900102891623,-16.1152503509847,632.903223894965,199.761538144715,1176.84378427968,171.665714367391,1206.19720170087,114.041705630306,375.313730242284,93.5038849555952,291.255926266623,42.4700264510313,880.756359901718,34.6224037705339,808.704518762239,-18.9888646506434,1028.63710800352,274.511648858279,181.471925297144,-24.1918104780967,1174.43385053943,-107.074350525137,385.679673895982,53.32974771768,640.447771289743,22.4905802799271,2519.49510281599,-72.484452458104,2202.27789520551,55.0615985062182
244.08265507247,-16.4273204765039,631.867420623581,199.062432843717,1180.22183433834,172.983649301131,1194.22291242403,113.249367079266,372.51089288364,95.6422075784977,291.751289285553,41.89136873943,881.749592560911,35.6205474220563,805.800528373628,-18.028131781234,1023.12030013309,274.978959664987,179.869992917078,-23.8825328896192,1179.40613127266,-106.851329074226,385.072524009158,50.55514077482,637.149126743228,22.363135581734,2482.87099999722,-64.3205383028906,2191.03621411823,55.8800693553131
239.929680142995,-15.5372614645855,618.674644892406,199.409010677353,1155.51708861512,175.480769594959,1174.40092411247,114.783258322356,373.355314442527,94.2081486525213,289.113849722109,42.6673244449496,873.32853998239,35.9757559490809,799.366899923166,-16.2493753336427,1016.75568339148,277.023709402783,179.654364576888,-23.8747664081604,1169.51291750608,-107.320532844875,382.407897895197,52.0713793430116,634.996699925468,20.9059169302588,2481.90602967528,-65.6177495561865,2184.01916273755,58.4446172522091
242.708261590697,-15.9966156854771,628.272852244025,199.807021188986,1167.05524382923,175.541648264352,1200.96323382223,113.765506355721,379.536161230511,91.8150667580828,291.720844756687,42.3210773611507,882.072277133931,35.6053659495726,804.201238734928,-18.310572323083,1027.99323497421,271.945821792476,182.057140625724,-24.2474979489779,1174.61960967616,-100.496912326252,385.671858184512,52.3215170635603,643.835572763041,18.4036618139148,2511.43894194977,-69.9745618977577,2201.99123479942,54.6326253984264
246.344405473626,-16.4852959081208,643.032479447459,198.685163347091,1187.20338544645,170.831608814397,1227.08464042266,113.169074780093,381.490208665297,93.7067690224645,295.088413786909,41.7521383918137,887.454166685833,35.8773504765726,816.48500834398,-22.0996858853677,1036.26932557174,273.998457104283,183.482706289964,-25.2329059416743,1186.24883214381,-113.076934520545,388.452550877938,52.6563282898581,645.168667367826,21.9484419418478,2503.62518817347,-67.825665080728,2206.05387153239,54.8322918631557
239.30189636105,-15.4325909944913,614.948643162805,198.603573290371,1154.67321113352,173.650914371203,1168.39639445593,115.122431437778,373.611337905576,93.0636390464174,290.032774433598,42.1519469574486,870.67265900715,37.5393015857517,802.895359752247,-19.528569958586,1014.97277218236,276.635487170351,179.054102829847,-24.0988274853182,1172.69797324434,-104.98847790412,380.513347083744,53.2756310303906,634.204338672403,22.3267111255787,2476.07773107975,-63.9975091297289,2187.09632300436,56.2999320958292
240.964783998699,-15.6031715138296,624.618073235812,199.156523067755,1162.94212567977,175.619738304991,1188.74726854558,114.682887763608,374.124737067597,93.6987051472988,291.76116809971,42.1954818171175,875.272653324247,37.8484474308221,804.692620564334,-19.9154970503135,1021.15822376494,274.491160947388,181.007816168628,-24.7936629543795,1173.47628044662,-108.230826607182,385.746414938481,52.5082145937388,635.672696502851,23.392102960067,2493.56831939323,-66.9199493047322,2195.96983684869,55.6067161580297
244.864007060899,-16.4266705849066,637.442779328858,199.323120969113,1181.36793105488,173.859562825914,1218.4208336874,113.188680315735,379.202216798212,94.3271321301333,294.462711136733,41.7930227048474,884.717290299244,36.9712030857882,814.715592200009,-20.1921594853384,1034.56879327079,272.930750554394,182.505936200632,-25.3712142168991,1194.08120500174,-119.026929397165,390.828047693644,51.1028561176609,648.595652941236,20.7556103940068,2527.34552985197,-73.5400880995556,2213.56889475674,53.3592033586322
242.661532690065,-16.0271741823963,624.271788071227,197.723712008063,1174.43481345703,172.224398194296,1186.09828659024,113.545099195628,374.043979482924,93.8185215450413,292.002403805598,42.1975860907308,880.92953420104,35.5290371765374,807.038388327819,-19.9922340261956,1024.07264621718,273.886483535503,180.607724889614,-24.2536500211783,1180.84340019308,-107.384403935037,383.435979064143,51.8951649473099,638.927465335193,21.1734528670068,2472.54038341887,-62.8954482584842,2190.56793999583,55.9054030865177
240.02983553946,-15.4636451742865,617.736871246687,199.165161343183,1158.50911835833,175.5867182853,1175.44178953422,114.697985638146,369.400500172758,96.9356376857283,290.548210636363,42.3608625001704,874.815639158933,36.4307139299115,803.596007332871,-20.3576708550118,1018.1915766967,274.225505490445,179.617358138452,-24.5473075582439,1181.83675986259,-108.724729593462,380.716092462643,53.6342048058394,633.565021475918,23.2707692231661,2476.88986986994,-65.5297687737191,2185.59648089747,56.824986597983
243.894106874458,-16.4704265964471,630.803846846526,198.608329054797,1168.93660935466,176.041607290848,1202.44915219382,114.715040046704,377.23409384056,92.9757539473463,293.12010905964,41.8339572621708,881.909808554319,35.6144896711636,808.235788773961,-18.5639443564251,1028.77197770269,273.263259138948,182.583589859838,-24.8470878024106,1179.06783525922,-108.595099317454,383.391612629288,53.7035766764019,641.470273180396,20.7491047239802,2506.6071493954,-69.9978418532965,2199.76879163079,54.8120833305235
