256.764950532687,-18.5660402265849,602.868010888855,204.277464673291,1084.51820199888,202.405650227029,1279.3828732803,111.722818344245,356.868864892426,106.817218560636,287.948982624928,45.7900919299066,842.629074627058,61.5519419765344,795.159547171273,-6.58136930271989,1029.08140306422,299.102488134086,182.410120133551,-24.477291093516,1180.62110805196,-110.335699433181,359.630545490155,60.2604312977733,602.666592943044,28.6558763335175,2384.58540298041,-43.5346580713813,2020.33822932059,101.634066144909
252.395239926941,-17.747040727721,583.619830302751,203.810862756306,1060.88585471959,206.557727625323,1232.56195097902,114.197990600287,352.993860694783,106.353629915685,283.91607652555,45.9445379588847,829.367895629617,60.2581677662568,787.326848731953,-6.94524495945491,1010.78502312412,298.773752788785,178.981125896626,-23.9286235104531,1171.06490288485,-99.6284678106981,352.666444620277,59.4684370079856,590.690213056961,30.7810495645055,2337.1968236009,-35.6314912378062,1988.64312410662,104.237183008267
251.604048126668,-17.2652227092786,582.891778481575,205.05078178731,1058.36101120317,205.778969631169,1239.72142753868,114.587351560749,349.758892050802,108.275322114886,284.183823436329,45.7453093014094,829.341908769856,62.9845187096467,784.449250213272,-5.60805701124169,1005.97898982044,300.955244178317,180.908095630689,-24.354288747041,1171.31979724586,-102.673107424131,353.226364280546,60.1937498886998,591.006168571268,30.6218754501619,2342.3796082611,-36.7274164900654,1991.12082082465,103.618790243188
255.867604620043,-18.3098490323941,595.564866241337,204.918912136834,1070.86040228731,206.373478923363,1270.11139969199,112.74601080533,355.07388905982,107.467676848518,286.873293121181,45.6670192906323,839.999556086575,59.8084527236038,791.736279274794,-5.64263233588541,1019.53885782993,298.707903905551,181.53987870088,-24.7769850881911,1183.3184923421,-112.560292374408,358.840205959166,58.3614610429576,595.381945438959,32.5674437448285,2368.78110682025,-41.0617233712449,2007.05857936153,103.051395791486
255.693735981468,-18.2836751642994,589.834734369726,203.304787020278,1072.7059267871,203.907101880562,1250.54404031536,112.023645659192,352.622836732395,106.895876890277,284.969247248492,45.7549996075438,837.080642748402,58.5803208604585,788.535284325066,-6.45436985872321,1009.16075526214,298.666975976198,179.769322064119,-24.2734019937603,1185.56444582036,-112.46945749602,352.321261314987,60.0067403183146,590.818212762764,30.8203992157026,2335.75080073183,-34.8944091829008,1985.95657895996,105.693618581059
251.437043105175,-17.0647146231543,581.695102991803,203.738761116904,1055.27545347797,203.560624141673,1235.62145202606,114.560298110931,351.655570475192,106.663328052604,282.948499160843,46.2559518525723,825.471056980577,62.0038198755044,781.960140931968,-4.99961568623176,1005.47138071161,297.478148831141,179.260445069861,-23.8117574629252,1167.69232579636,-103.036266694795,351.262634217742,59.2314341387577,585.123079982014,33.6030933018588,2336.17208751022,-36.1919380103117,1983.19556296993,104.914192034943
254.575176459902,-17.8579110931773,590.760445005044,204.859104926787,1069.55235734502,204.353818890547,1262.51306805723,114.236169418675,353.727549268432,107.512884074426,285.016724035668,46.3574185920583,838.847114598934,59.1443549180944,790.606708557813,-8.25262344849773,1015.33273049238,298.081650312841,180.436256393166,-23.8385736715916,1175.25115236141,-109.253063769262,356.408745715572,60.1482857555554,594.565291422178,30.8726997091162,2361.86899445293,-39.8912646251523,1999.84537465084,103.753341887177
258.93846631789,-18.839051246244,603.378789287162,204.825363900909,1087.46368694581,203.394748733704,1292.1305945711,112.334764501306,359.824375348878,105.710882055457,288.826030675143,45.7539564505677,848.97738688713,58.0168431247025,798.088637909132,-7.10103219343902,1027.5934335283,298.279476406315,185.076800863261,-26.0641991813037,1179.87019908952,-105.797004337099,360.222328634125,59.9153019141975,600.840082760271,31.7949450509873,2376.0045007748,-40.8456370478833,2012.00255803837,102.7979468995
252.060899880647,-17.5436781861456,578.253083909813,202.933224033112,1050.67758874537,206.031905298352,1229.12877668837,113.538725867835,350.916552028504,106.223047318168,282.443649814766,46.4196712669831,826.223375437471,61.8877773744822,781.4366089358,-4.59310679423432,1004.4533988998,298.962654427382,179.597100505572,-24.6911158326644,1165.24323334398,-103.945234792341,351.956158725208,60.1809029142588,584.554099773267,32.2319997790453,2337.44599408635,-37.6008236877767,1985.49826841743,104.108421854488
253.838993820208,-18.0282644105474,584.705000026681,204.624186614134,1055.9756833212,208.526346795745,1247.66956356151,114.473426375475,352.610602973142,107.391680630895,284.087146431528,46.1188623393077,828.826622038509,61.9782487391348,786.947514412379,-6.79219487533856,1006.92344183817,301.791955492734,181.08848615378,-24.8473760837853,1181.79718390588,-110.545248127768,352.252395974417,60.6329112762689,586.778855557283,33.0660073262152,2349.34498241087,-37.093280843627,1991.370808848,104.406721095044
256.888601612935,-18.540804195861,598.181968403202,204.424314449237,1073.84188196363,206.78708342644,1277.40334470993,113.507601561524,355.776451675633,106.523925814092,287.131913257227,45.9653733036941,842.584312908738,59.878592469177,792.040016039371,-7.0594040805518,1016.14779616912,301.463509853869,182.664407405452,-24.9686760935046,1175.09622176316,-101.070244174057,358.108970642815,59.3638693767705,597.572353564667,30.987421055087,2379.93323082425,-43.0851603725698,2014.40642195883,101.09268477572
258.976552834882,-18.9031760652521,599.09126710825,204.436687729705,1084.72511090234,205.463933796748,1267.79083996381,112.16970858879,352.971361919325,109.26942624006,286.96680707904,45.7260469235755,841.692417683748,59.2858285128913,792.164048629174,-6.88163152625374,1014.20412371983,298.566466443882,181.711013230572,-24.860188328304,1175.09215060396,-112.711789836744,352.572276660074,61.4346285972526,594.413728683461,29.5497164681041,2348.23036464669,-37.3438891217665,1994.4547439734,105.860596611256
252.088896579729,-17.3771408214774,579.884455346433,204.983346411788,1054.66832805026,208.11664633643,1234.7393764809,114.988769440292,348.961746284299,107.949741543683,283.032591591722,46.6278436218285,826.81287651248,61.2070042375442,780.851925082682,-4.0761927900722,1005.72610762076,298.497204369837,179.329255887513,-24.0116552583861,1174.09048471609,-108.182993707648,348.354961957285,61.1246483141115,587.604051080143,31.3391083502403,2341.1941298146,-37.088192814865,1987.237979761,105.285414298721
254.64954959788,-17.7819548239667,591.218524158951,204.208380221897,1070.39950919907,205.495314667983,1259.67372663484,114.129814444316,353.267613920075,106.64429171978,285.190832540966,45.9700582095479,835.936057616113,60.824387557397,790.430631327879,-7.7439268584859,1009.02954454457,302.811837389642,180.442412274439,-23.9951170022697,1177.23928043685,-108.568173222608,353.254966389996,62.8114683065284,593.374770923434,32.1829688878359,2363.8564645528,-40.7401053966706,2002.78286246051,104.324595867974
258.635936530543,-18.6685066362272,602.461249054674,204.930694033952,1086.23896753724,204.814243797654,1287.65566039061,113.134608694005,360.208553919618,107.1023048601,288.078628833663,45.9805177878283,845.041123660646,60.7420044543568,800.53838268856,-9.29842037864263,1030.63048999359,298.314756877507,183.373040974214,-24.8459615250027,1175.44652895726,-108.183840095369,362.487954797372,58.6949609921515,604.346418615461,28.8746090956336,2395.38887727538,-46.4579924927893,2026.73713179668,101.16070336711
254.611519196753,-17.8514185536258,586.814675007878,203.621022356342,1070.86266543702,203.746983385272,1247.8344436917,114.206790406563,353.459851963172,106.512091190782,285.322722574156,45.8656606244319,832.92635511281,61.8639831755239,788.998059605904,-5.4015222567869,1010.34838185517,298.374452866406,179.682185488095,-24.1839000237512,1183.77763670446,-109.697627263021,355.646457807615,58.6528468126822,593.268244333505,29.0417088797967,2349.43610052077,-37.3015307691018,1997.02947570238,105.141994293273
253.573305788464,-17.749319627226,585.010764039108,204.347427589533,1063.65586670584,205.575259243976,1245.40911836785,114.902221192539,353.529877511457,105.531590658121,284.492423624138,46.2415907517462,830.79748601747,60.9273808680676,785.195265212146,-6.47072156817485,1010.4128844138,299.033769981203,179.083225232459,-23.7316635673251,1174.33764277809,-103.666592075758,354.774461004008,58.7239601092318,592.747237450332,31.6876436401085,2357.42094848659,-39.6806442468595,2000.71425526952,104.693123760449
256.822139513249,-18.1583155554545,599.110203225802,204.346876538073,1079.85067019484,203.880494516255,1273.65713044505,114.347278144255,360.068249337496,104.71607757702,287.149194590379,45.8140174054346,844.898210226999,58.1347378226675,793.300339424269,-6.87309318099288,1021.62050339925,300.664937376214,181.378684361333,-24.6438893697902,1187.67586552505,-111.058383647318,358.228751838056,60.685482552147,602.113519595995,29.01241931649,2384.71389954493,-44.5219810635551,2018.89275162755,102.672784423059
260.687805056177,-19.2719973494488,610.956677647177,203.448377616867,1095.10165109883,206.502713770363,1300.30747158406,112.338178333534,361.539470589171,105.867061795116,291.023056115237,45.3394558132112,855.698439335119,58.4530099549949,805.910710119279,-10.6636778699393,1031.73757965976,299.54446256285,184.144842821561,-25.5839683884278,1180.32639684384,-107.539427213317,362.735774775752,61.1696691751865,604.954240144029,31.0773061129915,2387.81049222594,-43.9083190094244,2027.47663212157,101.913476666998
253.874946672442,-17.7908381860016,585.5333488101,203.269171014619,1068.1973504141,204.872809453392,1241.84092987973,115.761026310869,353.973529269337,105.914558060247,285.11855434711,46.2277028024652,834.928139543101,59.093928252324,790.559062482502,-8.53116683228604,1009.07282540332,299.176841772023,180.968965122047,-24.7814997624554,1168.54724300299,-100.679046054274,351.666113307735,60.9947048150528,591.765888893843,31.9801554404568,2360.33781608503,-39.8852755070563,2005.91115642634,103.322063591724
255.058349776678,-17.96531990073,593.389965836617,204.188472128421,1070.70104654493,205.904839943176,1258.17358421602,115.159965418814,356.129967964725,106.418110324657,286.40110501789,45.990523670863,837.779213823864,60.1922739838707,789.223213413474,-5.72790804183787,1019.82453960882,300.924856431913,181.582994751261,-24.8296497996522,1180.25972355926,-106.563883240019,357.070889835069,60.3894140962755,599.608055076193,29.3836589687739,2375.86665888434,-42.964527310156,2014.33060796823,103.217821904835
259.13478907528,-19.0317446921468,605.749089929171,203.636145002932,1089.87390492942,203.807713950135,1287.01567116792,113.743903235404,360.542514894877,106.109494464415,289.06025880781,45.9815132661806,849.066041730423,58.9036982402294,802.204625079452,-9.59569744259558,1032.11409845345,298.177212813775,181.846479786409,-24.1452610905118,1180.74637967108,-109.897806297057,362.16762480298,59.7095049403881,605.295067438468,29.2002363243765,2404.07253968996,-46.8903732267633,2036.22821502393,100.204599712216
258.828216311131,-19.0120130234334,598.637294479546,203.896434114504,1089.49293104986,206.333414877215,1266.93724553752,113.486352075485,357.766009198871,106.642589899832,287.700463331486,45.9234708489263,843.829133282282,58.8793370291168,798.009383167118,-8.00512149144652,1014.88346815291,302.776381384144,180.857266281562,-24.1114168906834,1202.84589594173,-117.999582611838,359.537597919617,59.7492431982295,595.187160779623,31.2222911054206,2365.90218320097,-38.8225188648417,2014.76250601994,102.419967019672
253.807382193504,-17.6149984612818,587.332230595942,204.26849060088,1067.07341256418,204.831568278267,1241.49263564687,115.550328057988,353.223861616501,107.046065338658,285.4044273408,45.9103421229333,835.31856988592,59.4317945886028,787.690591444707,-6.43964108327507,1012.44039074326,301.079570145362,179.140695685049,-24.2600856763374,1177.99961232401,-109.337926873995,355.327887649166,59.7997693400956,595.791867761718,31.4801231437905,2361.36835726256,-39.2990343136429,2006.70323541344,104.140584397519
256.095159845331,-18.1926374834981,598.045394585932,203.920126834842,1072.4142099548,209.795808845508,1265.56475819968,115.505576217481,358.985000731857,104.279878709197,287.615074662074,45.909981005464,842.822341583618,59.0062874585276,794.354245356188,-6.78120394682425,1023.06968388599,298.599663380593,182.493059312623,-24.7670590134307,1172.9037653207,-101.566925048238,361.032233336045,58.4027028429972,599.505099911498,30.7932141614238,2385.31764757595,-42.9688016524506,2020.5613612735,103.497536355118
259.605725344391,-18.8490801827521,610.380359848371,204.23822128983,1097.19727269146,204.324486902806,1293.59183621454,113.83237658777,364.043552907592,104.92611775348,290.738273730513,45.522229572716,853.239848725217,57.4611203278031,802.402025014703,-9.39634939008517,1033.89095549506,300.005331196397,184.332659751412,-25.180842459646,1192.17332963263,-112.169703516716,365.750591807075,60.1276554818311,608.125492083934,28.7671952992598,2413.84513953809,-46.9609903879066,2043.775639357,99.7208988886885
254.699096695616,-17.9468336478273,588.963948279585,203.505294525756,1071.83022194181,205.864305545368,1243.91984424643,114.269045433349,354.613937899642,106.978714250927,286.30206890899,46.2286668514108,836.053420498583,60.3404176684779,790.774065962485,-7.35482963366699,1008.65418968658,303.499176920729,179.168201476859,-24.0263450234527,1178.86450258682,-102.320150495055,355.488274515698,60.4041316455207,595.792172969907,29.44130389096,2358.27377104031,-38.9888785562048,2006.83712447602,104.29801351838
253.489971032979,-17.8524199874117,588.317213200856,203.972438204271,1065.08044882089,206.039469044646,1244.21908304219,115.745548717784,355.248298960281,104.995374225376,285.587737384335,46.1300093022321,831.84281666421,61.3394851735141,789.919083341911,-6.30068830224169,1009.6171977073,304.011905144427,179.201195562097,-24.089411356482,1182.44113511485,-107.152421511195,354.299843795896,61.6573573976092,596.080521114248,30.1232704039657,2365.67569510296,-40.2744689608286,2007.67612861818,105.368098622046
256.768065048813,-18.1680536935795,602.61927835961,203.794969272106,1082.55601237317,206.626843906211,1273.69586859998,114.114074725703,358.538681740144,106.173135026685,288.078006800804,46.041540225975,846.414962959004,58.6724641840276,794.314995877716,-6.46663585346645,1025.29549164129,299.948758691873,181.303785755878,-23.877016781569,1180.93655029026,-104.961047860202,358.621520466657,61.5965601752921,600.876913866119,30.451825773338,2391.43152750272,-45.2524789765828,2027.09717705924,102.93817565891
260.128894627799,-18.6873847034545,613.839876105726,204.3957338662,1098.95163909006,205.348032106994,1302.78249009258,112.70670095591,362.615389286016,106.87290357161,291.629702850987,45.495550710113,855.532168665342,58.4906457074433,805.811119246505,-8.51902070569727,1036.83527503577,302.294347717725,184.332678410835,-25.1856603495354,1197.84367085621,-113.835120187757,364.002737629258,61.3128893809604,609.38060513085,28.4342408081416,2398.82827719129,-44.4086550051566,2038.07324466617,100.927450443795
253.766655509098,-18.000622455289,588.844807555289,203.485328880031,1069.10854373376,206.079236673428,1240.46401925271,116.826273670034,353.671605665484,107.38381397059,286.070712620191,45.9282536776937,834.064438676774,60.9666729716318,790.137549530046,-7.53341856128773,1012.11406299314,303.16408171738,179.485876184955,-23.9686275013079,1180.88597967254,-105.402012435704,355.491714136147,61.0591775710472,594.608591872161,30.8846440667177,2368.63404626646,-39.7103015011943,2010.30798934691,103.673040827556
254.627454458175,-17.5853029626803,598.185157908083,204.254117719618,1074.31433655397,209.425039880537,1258.11593386672,116.074687300236,355.253087267843,105.641029513669,287.242899566337,46.6441338895732,839.505748301593,58.9375085848858,790.84277283793,-6.82552976660701,1021.2487861979,303.41961797438,180.89092956553,-23.6624500283119,1178.65794905849,-104.810386734019,357.684140420393,61.7274191728212,598.388773783365,30.6518504290382,2390.36761557502,-43.3762411543471,2020.9624628736,103.51870603075
258.295527580721,-18.4762108776689,609.933081810617,205.371798038586,1096.20939505355,205.407343284695,1287.62086221756,115.252762773371,362.808995461516,104.509713677977,291.373796620695,45.6156343486645,851.259465292087,61.1359038639133,799.817187143403,-7.2734859110336,1034.65058145151,301.317317571951,182.614894760529,-24.2246399878944,1195.12741953066,-116.437185375684,364.445152454675,61.2192067036872,606.106028531745,30.4752468198682,2415.51711811285,-46.2880315545127,2039.55600298721,102.524366653497
257.179638293076,-18.2709513506798,602.588534011387,203.626787097802,1090.66660587571,205.716075823618,1268.64966782677,114.950634452029,357.074553146823,105.508112661815,289.371101674076,45.808629079525,843.146926750591,61.5780929533874,797.530570650836,-7.55876442283543,1026.52562359918,300.655481400895,179.567108208039,-24.163737778782,1169.99934641134,-99.0279302516989,359.445065050098,60.9143921649305,595.471451041741,33.3188830736209,2376.75326165043,-40.8188547568597,2017.14743524382,104.143962906402
254.416328764304,-17.8915433608891,594.017691176231,204.342767896579,1070.01409212526,210.0830626863,1251.45829854676,116.611293107033,355.751052556452,106.509940298165,287.349868590058,45.8894488368366,835.695591246512,61.3586889686443,788.826267806801,-5.27384131519213,1018.51118128194,301.282412543196,180.955601058651,-24.6284426563643,1179.42594136446,-113.749891799902,357.233021814578,61.4210317264534,596.809886685607,29.1321434030752,2374.34686391548,-43.3796178287717,2012.90578364982,104.125677258053
256.689201930102,-17.9816574673678,603.927118348513,204.532870907004,1083.00025702902,208.717335607833,1274.99263293559,115.98297265667,361.746465398757,104.280347599555,289.509345976438,45.7660193562028,845.815829493491,60.0003397282308,797.166993352287,-6.02449899047875,1028.92762666548,301.339224082256,181.80361106064,-24.6105222269748,1176.5817725364,-110.097269385314,361.006689841369,59.9712464738598,602.683441445646,28.3210847020894,2395.1664581758,-46.9046656171299,2026.90106681763,102.796192731261
258.671958412574,-18.5158973898503,604.202595176971,204.402097468272,1089.91550697551,207.702932890077,1269.17321950003,113.818142273599,357.299772864562,107.144866328393,289.042856251223,45.7041705598449,845.721900171434,59.4415511744384,794.651149816813,-6.08819092481498,1024.16695370984,301.68198186049,179.93602348069,-23.3645650915532,1186.50166139189,-106.807324223012,357.582293625636,61.4949777564957,597.975129529443,30.9914488062152,2366.56995228858,-41.2366124625785,2012.14501696663,104.949237109548
253.067646839927,-17.6347380166219,590.083373791213,203.896759488639,1066.33769575471,207.379204923647,1243.10850638383,117.611853188181,351.430098626431,107.319352224879,285.923022228875,46.3280075091237,829.998435616131,63.4544488473881,786.181239994517,-5.56782902766612,1020.83536287508,298.386437946843,177.673125481386,-22.7832450282912,1168.39405948149,-106.450761979226,354.972532653855,60.1737913971297,593.603888680813,30.5734624525916,2362.58138377361,-40.5734119569971,2003.14174928998,105.51871747788
255.930657586079,-18.1917236416084,597.319024754171,205.022268726204,1070.74251008516,211.069425946009,1266.08052091336,116.939048367977,357.390678721939,105.492984454121,287.753359390778,45.9138401945231,841.691895981252,60.5017668352483,790.091841351454,-5.29514994802649,1021.77076310822,304.97001393212,179.962655293313,-24.06265857643,1186.46317332554,-107.469722101671,357.683915855596,61.3048969439151,594.341065429269,33.6214191616415,2382.37175929598,-42.9150666192623,2019.8338414929,102.603960242469
258.727525620789,-18.4412434208428,607.805420432744,205.073699818116,1090.70611075331,207.542349875655,1275.96947001501,114.46150842996,355.304366160188,107.128167520786,288.778785978101,45.6511974707119,843.544703898971,61.8684827120195,795.137433097553,-5.93710221464432,1022.08525149062,302.471113970626,179.137264032562,-23.5675645127009,1185.75839430313,-115.510682089202,354.338594515223,61.7886771647894,595.374417745211,30.731795941559,2358.92272872943,-40.7197293313705,2008.11001329533,104.302790515755
251.91270114801,-17.0218810113324,584.753807452022,204.958131955594,1055.47069743113,211.409607888363,1237.02737024658,117.234906629577,351.613015971951,106.256520933256,284.78283513534,46.3078377407985,828.735818424404,62.3670319971681,783.081431603207,-5.15088775812205,1007.40419134179,305.593537014942,178.23671647167,-23.5342661681181,1171.0144056116,-105.768427729087,352.548429426793,60.7725411449238,590.140327207261,32.2796158818858,2348.51109369429,-37.9410852224423,1994.25710728833,106.935488028204
254.840414950569,-18.0505585617246,594.21983161123,205.07522200714,1068.93192090284,210.845185479577,1259.75190228962,117.162825102561,351.146795264755,108.709314485121,286.588516842742,46.2702770340764,834.764851331598,62.7243629712724,790.763944938141,-6.6278373569064,1017.35902380495,304.476311617385,178.976893321964,-23.3233296123347,1176.11513800137,-108.755964841227,353.914397280317,62.3670836825208,595.048513341209,32.0727008171055,2371.9950218862,-43.2346074538393,2011.96326379035,104.344771794136
257.979616845885,-18.2338523232468,606.761983290508,205.104328717433,1085.88525861026,209.99798298669,1289.06865124963,115.438923853223,361.310795039826,105.532296591122,289.793895710859,45.970531788704,842.13484240825,63.7734652366195,800.475316242802,-7.28963155500594,1027.75106005075,305.149634702093,181.885227659132,-24.6667317254209,1175.66404226309,-103.238599048845,360.692471035693,61.2744505268637,601.393003575732,31.5431197454262,2402.53030003836,-46.4429903040586,2030.59499074055,103.157783522534
252.004022945376,-17.2206090690385,582.705242133595,204.018382346289,1059.57090809784,209.341729519723,1233.46630095952,115.752844830063,348.745787884186,107.800933406926,284.349419276121,46.4652129049628,825.824491610505,64.2305495130286,783.352232724053,-3.99129881512912,1006.42775701205,302.780919833239,176.556773953517,-22.6633364208763,1168.65936502369,-102.647572329239,352.509219345953,60.4317919892974,590.248724317805,31.6109065522038,2346.83827483895,-38.9490013873912,1995.41387490268,106.786594323841
252.421848334741,-17.4230247120123,586.30636169477,205.673170619516,1061.14320945518,209.776995820625,1246.9068761371,117.124483578197,352.407944877946,106.369263185828,285.445025877143,46.344411093777,828.287379903141,62.9509189633959,785.089173771981,-5.1441433946809,1014.32614247765,301.518267577411,177.585890738675,-22.9959194945505,1168.79543801673,-104.324704331305,352.091309704549,62.3806497242475,586.718932241237,34.9036318453287,2360.30808065334,-42.286964740749,2000.45407660562,106.297569671504
256.707145103181,-18.2191001363692,599.064259174417,205.680903240057,1079.01453733038,208.459808700198,1278.19962153668,114.314398922499,353.745619964183,107.895552671987,288.664612278156,45.5820243397503,839.578754990612,62.3424760092558,796.160213610369,-7.32955804034992,1024.99468405631,302.011949153013,181.151545351929,-24.1316412218625,1174.41975581035,-109.444481034171,356.872106241952,61.3411238120599,596.755388480243,31.4636767954618,2385.93392899755,-44.4240951413437,2019.92258551024,103.231234531252
259.243649109395,-18.5073336878962,606.139056979204,205.876983754,1092.64260049345,209.818296362546,1278.72556721992,114.204589920481,355.756364127953,106.807109038248,288.391743691119,45.7236811658504,843.850817443431,61.9635230999517,798.603541560797,-8.98821794889372,1021.84659192278,303.117451595661,178.744497748359,-23.8507034712029,1179.85504990069,-108.036746590515,356.582014714185,61.0394923750388,595.255264463648,28.8907518218588,2361.21436498343,-41.1044048967842,2006.72127578934,105.168759119439
252.040908785544,-17.1124260296681,581.811769259398,205.865132748866,1056.6007734702,210.29102206958,1237.48022198678,116.516878100154,349.768329026261,106.406269736799,284.444972904127,46.3817173719684,828.024139049925,63.1011068422742,786.306099232056,-6.90511029217944,1008.12016838618,303.161758079336,177.192553164016,-23.1389941448905,1168.5927040934,-102.577136422906,349.38165778853,61.5094207603522,588.572057221599,31.5063751265602,2352.35689493402,-40.8657269543339,1993.80741322377,106.688518550276
254.891695965128,-17.6954549739079,591.685975229921,205.439792622579,1063.84552668908,211.451673116264,1260.66479300828,116.536159720481,352.768819605608,106.88989618126,286.587076644698,45.8691507852187,832.759550831571,62.9783645324788,789.330599664443,-5.9890416824951,1016.80884774245,302.842256351647,180.19240098385,-23.963915661377,1172.84404908732,-105.89910222595,355.513623020656,60.6092849582896,591.707268039583,33.7026122437907,2375.69394067491,-44.0604301673749,2012.71354888157,103.978296912681
258.532148191387,-18.5261317142529,604.51075676173,205.290397179221,1090.58948918388,206.906495464368,1289.55347854559,114.588242488217,357.967830995309,107.842532659102,290.265364551108,45.4059392711333,846.550558861338,60.338002094074,798.043761388495,-8.03920002704495,1027.55289848791,303.078688233069,183.019368299023,-24.7535492219537,1177.4820806141,-102.865756006129,359.680200439927,61.6235951888279,600.524371448768,31.9614251288421,2409.41716546264,-49.3320428952889,2036.09278057622,101.580782387237
253.533461926335,-17.8567173599412,583.786846182985,205.013593970806,1061.43093087719,208.117117104699,1239.99769921636,114.700410619991,350.975815309767,106.105235777843,285.038230156711,46.0352137215839,828.545535469794,60.9791292793649,783.324840626524,-3.46508896823471,1005.92298705195,303.82516999684,176.861064056072,-23.5935890382906,1168.01142553985,-99.3457638037267,351.097559469948,61.2420431308359,586.858610050716,32.093525668067,2358.65812756349,-40.5958172617915,2000.0966645877,106.18899252072
252.791223397726,-17.31945803405,584.980737181637,206.300774048057,1055.38451935832,213.479692618731,1246.76899049772,116.116550628599,350.187079835472,106.740510060656,285.42378851815,45.9617591357242,828.601402818162,62.0944669882681,786.266800521058,-6.13826945399562,1007.01474389701,305.613635799845,178.401511254294,-23.882405361188,1155.02599992944,-96.0571995898104,351.098697666806,62.8886607628876,591.837713593634,30.5925761437579,2368.67056255558,-41.6396606703032,2004.3390816799,105.989720325045
256.402127501266,-18.2361718304891,600.211418743468,205.012566640495,1069.69350467895,215.340779984278,1275.12794648213,115.573174029606,355.691233968166,106.724189520772,288.251596207758,45.7407892395868,840.477523215372,61.7818568528749,793.242429514118,-5.17577742802506,1018.02036718429,304.892911824634,181.310702636217,-24.7101704260886,1175.2568846656,-101.582230388177,355.630231141942,62.3158876332416,596.248943689283,31.7769506830981,2396.92297898609,-46.6254800232703,2024.69598286677,103.741789026097
258.081871075066,-18.4602371026611,602.144958373285,204.784405958898,1085.26031952788,210.264170572347,1267.92078732186,114.240928301228,358.193334964117,104.984678445736,287.202970874037,46.5540159453923,838.430666445872,60.5971223724697,790.771129523633,-4.27934045143884,1017.31529980867,304.085737952195,178.640041005847,-23.5841299525092,1185.46319199823,-109.577836101481,355.713216564332,60.7421126420633,588.878299751524,34.6089591166213,2368.68287585268,-41.9007000605936,2009.97806643758,106.286589368065
252.798821806781,-17.3385700152682,586.397202740856,205.014353026065,1061.39031894843,208.300035573842,1242.47486930936,115.376481319025,353.051339930007,105.932564642889,284.702558756124,46.5203221247267,826.881962521981,63.9407964671397,787.419781046105,-5.85992905721076,1007.28331229124,303.566221190446,177.380915016141,-22.9472831713095,1163.37213821584,-100.909729312943,348.134669545199,63.7951650597711,590.414385458871,32.273888526729,2368.65408888205,-43.3744554609169,2006.57165561882,105.317694404529
255.059559662397,-17.9092505157575,595.429190991415,205.65523652288,1069.60028562093,211.097231061444,1265.6780574309,115.549198951205,353.899938722843,107.299168967384,286.917002848083,46.0328238038386,836.103672549411,62.2559444383313,789.512612253598,-5.61907333718203,1020.55432720918,301.224885824779,179.558857514551,-23.339767859313,1167.98988381872,-96.8491688057367,353.899258922564,63.2541910768846,596.478981063633,31.7543186008697,2389.36864899076,-45.2436963882391,2022.13303252535,103.548266637332
258.732137213305,-18.6382280306542,608.507812692254,205.167078569464,1086.11998384844,211.044099862952,1287.36271133752,114.131392542623,361.616823437242,105.346079007863,289.501826758132,45.5734778929769,842.395872444302,64.0376191376201,794.420068657908,-4.96537841672071,1025.27044558982,303.783734065647,179.619159084889,-23.4528573872723,1171.936211348,-106.859265700993,356.889509174221,61.5279669471146,591.857217307784,33.5123358968658,2374.54679685172,-43.8121036950186,2017.43318350037,105.68427907107
252.256369063398,-17.4080436451608,583.86864117103,205.810988091049,1053.92949041795,212.565081317303,1238.2119785005,116.521932675696,350.631369846061,107.261677941271,284.528048565904,46.4612966298384,827.68777119079,62.8128487243577,780.125120973911,-1.36274853345368,1004.79629990633,306.977419334348,178.121279148648,-23.3801999094151,1152.69333439248,-96.327078252819,349.68639254248,61.6108377853407,583.230634810863,34.6288925874671,2361.86567548928,-42.6493727930753,2001.67433010524,107.379184303179
253.65217325321,-17.4716061644678,592.180663211107,205.41309857509,1066.70100197193,211.217214270431,1256.81757463623,115.428519009148,353.385935502284,107.447406046865,286.227110287044,46.0212917772302,829.450774030174,64.1682568564776,784.730049661958,-2.96731365622034,1010.45348908208,305.332424283204,179.098329062206,-23.7607652197187,1172.36975965271,-102.626894197724,354.072708479556,61.3959356116124,593.120619578001,32.5719235303571,2380.14524701076,-44.9266099878812,2014.63298390894,106.701779810881
257.148482442917,-18.3587185984237,604.783961993838,205.329021989292,1080.96470724231,211.84685849835,1282.00713551976,114.776069540432,358.43944763194,107.013682081246,288.181685836988,46.1410769433204,843.673281041781,59.8594861693493,789.933413847238,-3.21112413588075,1021.45840620832,303.878777019245,180.182061468628,-24.0000263434684,1161.11674440993,-95.1985992145085,355.584141241117,61.9496234623363,593.330576519345,32.9848233074125,2367.26573447374,-41.7701659019846,2014.37736824824,104.845599390202
250.121331401439,-16.8387607555969,578.735013749121,205.567465263933,1048.64514200061,211.61286875435,1226.99180226546,116.174514151628,347.120280255569,109.158383306174,282.119693684919,46.8864691543249,820.685670958401,65.6592884376306,780.08188881347,-6.05847324270672,1000.69097366763,305.529258746824,176.283142709401,-22.7452046396754,1175.95538734727,-105.920709670621,348.01531998197,62.4914706578707,583.309388275816,35.2567337022671,2346.41500956449,-39.5138736687137,1995.19122731438,106.304213613621
251.731481817646,-16.9512316028645,586.967557224814,206.281890565889,1054.14655934638,215.236229017426,1248.01476170275,115.023541268228,350.012421432742,108.363714008049,283.720342946388,46.8318268857468,826.517788579225,62.7133697344939,782.01061748884,-3.94971822621331,1006.12927581466,306.135593151241,177.994990025341,-23.1709119942058,1159.2548752232,-94.0030807860927,351.06157103135,61.9314188950259,587.134070569682,33.8164125271863,2365.24483090514,-44.382680179756,2004.37061207023,107.084498098774
255.499959366123,-17.8067700108676,597.681630064519,207.131178461876,1068.07206585031,215.122845937913,1275.15032946651,114.730542013614,356.781365399396,107.24389820382,287.175339431014,46.1767634311344,836.800454710079,63.4619653931256,789.194504474799,-4.55442208909885,1014.99940229731,305.634707185913,179.73393444474,-23.5699905733035,1177.9377037751,-104.16086765539,356.235050050927,60.813380708889,592.669751702827,33.0844929274778,2366.62894715781,-41.9192083173155,2009.0600635023,106.345962159587
248.303396120113,-16.2463554512554,575.441755848446,205.672474554514,1043.74980753081,211.390757576966,1212.56810936536,117.708898002563,346.019936642477,109.658061501092,280.466975402272,47.1260645017473,814.086635814349,65.0928328190371,773.510075865656,-2.01970702315836,992.900022829963,305.964428815931,174.765177515092,-22.287697231828,1151.99034043261,-96.5850065151762,343.582442992519,63.958719121903,580.270673492784,33.2935696003681,2333.69705214908,-36.1391494786228,1980.13287833635,110.672867604322
249.817533434456,-16.5975783153512,583.042742944267,208.799846796906,1047.57037754619,218.547977139565,1235.11437235093,117.803801982594,348.806661935624,107.617160325921,283.032514322419,46.6477946671394,819.277227583893,64.7368813179417,778.435827024888,-3.2048594374628,995.538065987679,310.320237779455,176.891952250902,-23.2394544987503,1147.486444948,-85.7921044642881,346.97013266057,63.0325658740016,580.885125946826,34.7892875345671,2351.62493895456,-38.9534791513024,1989.10330457335,110.209678942478
254.361182205264,-17.326716750992,593.762738259381,207.597272604881,1065.53931737643,212.91535748955,1266.61996347427,116.711326708333,350.325259184073,109.372477450559,285.352087197158,46.9145755961715,830.390201939647,65.5197281881463,787.039138670584,-3.55114756908463,1011.72582939053,306.963330194103,179.560703408048,-23.749386831048,1164.81489546604,-105.677126366562,352.245741948226,62.7852931741498,588.490935223275,33.6209798159262,2379.24672637555,-43.2568799436026,2011.20280601906,107.636423921619
250.822858609461,-16.9319155761564,576.690588825622,206.65447680486,1047.39504027926,215.862198336582,1224.99908131065,116.500037069472,344.888764029027,108.61819679397,282.166013959725,46.8058546502818,816.066114516729,67.0151417127766,776.873058496145,-2.55968419900226,992.398774143625,305.260102011209,175.737207953226,-22.4925050396899,1157.26893170988,-100.146707927713,345.33378002231,62.7289526275497,578.238463504029,34.5134602219733,2330.94382137834,-34.6876675011885,1979.99087960204,110.472885844005
249.264186923866,-16.4893387271897,573.328559816095,207.579753609509,1038.68696925726,213.935807913129,1223.38074544345,117.436654770923,343.631609334745,111.377731799075,281.33905680659,46.9686168575226,814.136680469578,66.0280979869713,773.322539032343,-0.630436265561111,990.822666532273,307.732256402787,175.177657325411,-21.9137972956602,1159.84198605749,-99.7689487544332,343.211668095034,63.9295723169011,575.960430261304,36.36420257546,2339.92494385172,-37.2845195586221,1980.98267568064,111.41773069433
252.597177499387,-17.0596064382833,587.076475514027,207.835654701934,1052.00416902591,216.308657882152,1256.05845269201,116.480821728845,349.337150887082,109.37467067222,284.142894207039,46.5821893083566,825.630245121205,66.3984009676459,782.385716868436,-4.10606901368835,1003.42757805943,308.019646042811,178.373722332587,-22.3123790172779,1167.8519301042,-102.758092746795,348.285353515252,64.2666709353955,583.884301745355,36.4829376243722,2370.47769225048,-41.8302110488478,2001.65345232632,109.366083462383
256.419956314902,-17.878364807732,598.939696570523,208.503244028588,1070.92890196175,215.655117790173,1285.57978546135,115.027366034604,352.010737566191,111.256637833842,287.774288733032,46.1815900900269,838.051944420838,64.7336556345437,790.425766627937,-4.17055788846823,1013.13939666488,306.259234726919,182.162288391108,-24.1602693410551,1164.00541709474,-98.1358844258812,354.381258352059,63.076517924462,592.730319187153,34.4929779655047,2401.55014493345,-44.6197512780576,2021.71086307754,107.109035514179
250.195822798545,-16.7598424707716,572.953049972699,207.179519179259,1043.67207039556,213.06017330813,1218.21433443747,116.35300196632,345.423208537232,108.705704394936,281.983175857597,46.4927850468948,814.292888674836,67.1374752264788,776.60157202191,-2.86376854274716,989.407868713272,306.899858827896,177.20442472191,-22.8061941050828,1156.64522620027,-98.9421755271886,339.24193941546,66.1269863243025,580.692565446285,32.688929519365,2347.54442315332,-36.4536417868004,1985.7755041897,110.095950866916
250.898274205108,-17.0060240255195,578.397209588245,208.201814801743,1041.51431958971,217.96933482109,1238.53028541898,116.636452240227,347.779543427002,109.617583198947,282.60226633787,46.8550525759125,820.587124335786,66.5298062482055,779.582754858455,-3.27558164868756,993.853623494731,306.819557976504,177.672714494169,-22.7664520509136,1153.61335917834,-102.49118820571,344.930094864964,64.8121076348306,584.071056338716,33.1620318949529,2363.68764217216,-38.4817568632315,1995.09519995104,109.886407334161
255.031263503067,-17.8421489146848,592.603045178961,208.541656076603,1062.1719772209,213.872794330465,1271.26633110703,115.228435771137,351.453900320629,109.589390132018,285.764460726475,46.8079016240243,831.267379260937,64.0891877385021,787.944819613736,-5.02095337218226,1005.28311359639,306.130753877824,180.926839793064,-24.0578989133374,1165.68915397761,-100.201661906332,352.994569141566,63.0020788375642,592.578112180458,32.0547979890147,2396.97491694792,-43.3541851499743,2019.42880881494,108.892559147946
259.182229467097,-18.5149603914823,607.330442171041,207.449318007013,1081.98365030338,215.1528355431,1297.80246532928,113.613995876093,360.134757011341,108.045159288425,289.078113015662,46.289248850252,845.445877624189,64.4474502631177,797.078771471802,-6.17092727297493,1017.89543159794,305.914230708227,180.238593973098,-23.2590369927593,1172.98929411795,-108.181166835153,355.515479601561,62.8928178966703,593.565373070471,32.783731442677,2393.27761123043,-42.1307792406566,2022.27667372831,108.134561633509
251.747111927023,-17.0752790112728,580.593668200066,206.868791638787,1053.24961841526,212.951010895286,1238.71937579651,116.653522042781,351.241034630499,108.074451563648,284.143545642428,46.3855342275409,821.962844309978,67.0097155432956,780.723997043372,-3.04757837305745,995.437552311813,307.38320012868,177.904968007813,-23.337563798861,1165.32471886142,-101.504638450715,346.637109095536,64.8111963024511,586.844725185339,34.0955296079299,2384.61835314549,-41.4524925649432,2008.27869402341,109.058879963338
254.013392517284,-17.320386138988,589.669577907507,208.245793783684,1060.19208859551,214.389041522466,1259.46958837478,115.475250260863,354.484733077853,108.260179284432,286.027474394256,46.493487397923,832.286840534032,64.5416454779555,789.080765565659,-5.05993861352563,1002.09153785664,308.519278680367,180.829957588298,-24.340220850877,1165.14018397369,-101.13216457468,351.861024269416,64.3232860273846,590.555722676437,33.4579166196541,2407.8819662892,-45.1626347401284,2024.53730230961,108.432961086609
257.805232596438,-18.517447699292,603.467227730757,207.953078284626,1077.44681890213,216.081707790213,1290.78370626269,114.378696219306,363.249851767043,105.26026168256,289.655036379906,45.8779230105874,843.450524291934,61.6920491404571,796.616242738402,-6.92468939878296,1022.87895883294,306.032690066486,182.112365936926,-24.3562610749096,1174.45404274616,-102.027421419606,359.06460522865,62.8129966369671,599.782774755528,32.6931849870708,2441.8298611891,-51.1207080224601,2050.61251639657,103.62191358401
259.543732790684,-18.6380650963033,606.857392394584,206.090462494223,1087.82689818865,213.651695721469,1282.66211020234,113.394199772085,356.337592607388,108.859536796736,289.153868435072,45.8451177655302,844.448558731613,63.3520101481536,794.399295729902,-4.59911578674937,1014.41231630068,306.460148813056,181.403612951213,-24.4258108862597,1170.55374788972,-98.1976344067368,356.644009933429,63.2683332889797,594.4536171506,32.4679875665703,2420.17325619428,-47.8236277484808,2038.0957629035,105.629741011314
254.506651648249,-17.9142313399979,590.761188956237,206.305386385026,1066.1690639777,213.58861589796,1255.53569751688,114.970138216259,354.651630846836,108.743204079262,287.246450828456,46.0212126691997,831.911889537502,64.9966665314051,789.757127654209,-4.4365893842522,1008.69827296588,306.964809086664,178.888060154676,-23.2014475024474,1167.82945975068,-97.5034463880667,356.724522605907,61.35815479157,590.386239608307,35.2241310326937,2419.59239870637,-45.7941717690057,2035.04894971132,106.885650385489
256.864884811632,-18.4576622029553,600.828811460366,207.030652128995,1079.2339443565,212.689529534189,1279.83122118225,113.95551721719,361.043437063418,107.038577715696,289.70636734454,45.646424476997,843.672911431957,63.876764289138,795.434542288368,-4.98114983346875,1020.45367963549,304.492093669485,183.4058292487,-24.9414898845871,1190.10832403493,-110.232357662781,357.37918531773,64.2101689527738,598.366706130095,33.1132142189669,2444.96983492341,-50.8283933361657,2057.45517967853,103.308547462201
260.805642846859,-18.9404769567676,613.073783339785,206.552379794052,1101.58018407824,211.38767987733,1307.40725423728,112.970120221253,363.726699546145,107.595823217185,292.074223647524,46.103431569625,855.32093657009,63.5266836729385,805.156009281517,-7.07608056920887,1032.14047534573,307.352800622975,183.724009791607,-24.4374921549545,1182.77423148868,-100.929651063961,368.091208497672,61.8003588836119,608.562076351809,31.6662616199286,2474.91530209405,-55.3457858934656,2080.67217843389,100.972545191314
257.429747837608,-18.4540650621932,598.720256681591,205.81974418998,1084.46497192238,211.982274157777,1274.54440713369,113.419985355359,361.286848303237,107.456332664896,289.30934884645,45.9805601213149,848.029065225249,59.9102023277505,799.382415226113,-6.76135797484284,1021.38441884912,303.733609293226,180.716921813572,-23.7529529287051,1176.9896757318,-98.442714709103,358.924769051009,63.0981615997923,599.791304071406,31.9885551232918,2435.544493847,-49.9747668689305,2057.25265475717,103.761238336528
255.581897762475,-17.9423463250555,598.725325135998,205.531274415531,1077.91369322621,213.775322385233,1266.65965627925,114.766274683414,359.213718167714,107.484445883856,288.77674733422,46.0305683697452,842.225198531744,64.0123881657821,793.658316605773,-4.90442632591865,1020.41900125765,306.105091018901,182.291755170539,-24.4456616933759,1170.16940943972,-99.5653053560846,360.422911445242,63.6090193283294,602.75788204472,30.5751330539118,2437.55043461104,-49.7907113631442,2059.50144973868,102.490470283878
259.021352784092,-18.5978708196051,609.55477106238,206.805435902051,1096.6072852618,209.764111559671,1293.06215268968,113.005657686642,365.629954026004,105.463734507942,290.757845767111,46.5293025966408,857.918177841065,59.107138865819,804.162430394353,-7.78662839743193,1033.56750982581,305.533095913918,184.491404373833,-24.986609779139,1179.43713991696,-98.0659134045714,365.288218523417,63.1523043251497,610.664399980256,31.3651160758252,2461.63325317552,-52.7873248450811,2077.45318637192,101.440976913648
262.606273792002,-19.5608782755646,621.617108871979,205.196837840697,1115.90297244117,209.241258613973,1320.38959539944,112.015490904073,370.864156731828,106.040055208014,294.962741533743,45.3822154141805,866.982416158324,60.2432616752417,813.067074026256,-9.67986528204031,1040.7891508528,309.153508073003,186.179904868584,-25.045075356213,1206.63492036459,-113.372074601661,372.121306050432,61.0920299055807,617.709245101998,30.3744456410083,2483.59201916585,-55.5647372267871,2096.11383918543,97.0847923548812
256.630794076423,-18.2347070993368,601.034957676942,204.773819290583,1095.87260286354,206.703661831,1273.01598957621,113.034554353573,360.367141993288,109.227330391244,289.776313407997,46.0952689037026,850.920848964641,61.2242865627533,799.077813602218,-5.97479449611761,1027.02181868921,304.737019187724,181.998291120952,-24.684261011688,1192.6988824436,-111.68361859439,364.602521492462,62.5011314060082,602.957856561988,32.5804763837459,2441.8217546075,-50.2762936928855,2068.4989783177,101.644548676187
257.412373468181,-18.3486008954154,605.963340204882,205.192002998574,1097.50904153574,209.817269421145,1282.4856670138,113.322113755154,365.751774423039,106.234036322635,290.413219256218,46.0687046408412,850.519443434503,62.5726038358624,802.315768367804,-7.83532930865579,1029.8415616016,306.982508973991,184.035135075759,-25.0520817011017,1186.58718689496,-102.237943517182,367.174936054994,62.2103045173749,610.655972636087,30.1638134712966,2450.86187844467,-51.5774091482245,2077.23180719922,99.2178268307724
260.78293960461,-18.8436201200915,619.444197418621,204.179003197297,1113.74558998441,207.323619064409,1308.43448991409,111.562225621291,370.465008664219,104.809517785819,293.616215540117,45.6253853755575,867.178642973919,59.2333606461266,810.043568068565,-8.25375190231293,1043.03267078069,303.079200083407,185.311755472706,-24.3031480003325,1180.58443012681,-100.449915991315,370.411195397811,62.22971954239,614.819327817111,31.3579014255285,2481.36675322062,-57.7463096519306,2094.9304400964,98.6493366222057
262.058096451721,-19.4623456146225,619.926379391162,203.702582957186,1118.07779900784,210.466503649896,1302.81482220319,111.339101848667,369.950871741604,105.120304356366,293.264267384293,45.8554563299043,863.482730007827,60.747604233894,813.447347573429,-10.8734629177101,1037.69231596377,304.000172354466,183.976738377462,-25.0586474017005,1201.1625088123,-103.797547102747,368.115459570972,61.8730488372544,608.721192673724,31.7475192784206,2446.6421255544,-50.8983106522968,2081.45112827941,99.4682633635913
257.110664524293,-18.4942111801285,604.23530850094,204.795636124805,1096.23489488759,208.747529559777,1274.05501375641,113.073766066274,365.986246927176,105.387820447144,290.527247192133,45.8957212484392,851.53382913208,61.879094733613,800.069343590518,-6.65562945235092,1027.11347028153,306.087837771238,182.419293582495,-24.7095441943713,1192.45879657808,-104.735445897635,365.849361552106,61.9538974549682,610.004248896653,30.240460378905,2439.02173804682,-50.4391432727081,2068.83434775189,102.262589650364
258.615509221086,-18.459590231474,612.202400609551,204.695642716691,1102.40931283573,212.109739249373,1292.76618946242,112.950195474018,370.339775361075,103.260344256794,292.051134164283,45.9429190237292,854.818982911469,62.7482999922967,804.469769660673,-7.42792496498656,1038.24014018301,303.713855376575,184.735459727592,-24.5444301141152,1197.2702662716,-106.465265249722,367.800849011107,62.6213300018936,613.149791485399,29.0955786916347,2461.39065288482,-53.9011225837488,2083.27583581679,100.302793048557
262.16702384434,-19.2791280345579,624.813012443331,203.336458431011,1121.34954802069,209.403238310362,1319.75098504256,110.983609387955,369.383232181897,107.159759609897,295.960321247634,45.0113460627681,867.386671429119,62.0430435613125,814.320482088403,-9.29128062345555,1048.02099010652,303.326103943827,187.268478234117,-25.4661067801339,1223.41577465394,-131.730149320793,373.711653626141,61.6635480003496,622.582073644419,29.4817642552553,2487.66598956241,-57.85092497274,2104.23571947257,96.1640520615985
257.446941700609,-18.3566043112752,604.386838910702,202.674326598376,1096.56934781341,210.975205426404,1274.14307253138,112.762984395414,366.200286043805,105.857219522915,291.476462941528,45.3696470723716,851.73049495876,60.5092431855541,804.651783546635,-9.69992405366692,1025.38906452394,306.465749020204,182.168446826306,-23.8782932404848,1192.5596315468,-105.542805891828,364.643547468164,62.2113054207084,607.677754593431,31.8236214789118,2432.52332442099,-48.8001429563654,2068.35048600796,101.85392558689
256.291033806679,-17.9977557503966,604.796788518664,203.605308779567,1096.87104397898,209.130627237484,1275.53187031165,113.664731063183,367.129870093846,106.383747030039,290.396596307134,46.1164563861508,851.507832916191,62.3363216182826,804.798896055028,-8.49965728481027,1029.1571214397,306.615940106165,183.593228744436,-24.9963037857147,1186.63517452011,-102.746405514471,367.076620751322,61.2508367071571,608.916819299811,31.4580339560099,2437.26025508656,-50.9548718151665,2068.51751684269,100.779181048626
259.393590548248,-18.485364902019,616.903274246449,203.448311001271,1111.28322398308,207.452529789539,1300.52963108538,112.661057118907,368.112072103974,106.156857393059,293.020480777956,45.7010727321287,860.226439195348,59.7384955679176,809.499113953754,-9.533573799316,1039.39581848904,304.381581033605,185.679977557857,-25.3273511485966,1201.17071755786,-112.519300709167,370.522744997394,61.3429554339146,613.034756683594,31.5585602888911,2459.31669374233,-52.721557143311,2086.02527494259,97.8941642040929
263.440744241406,-19.4301918377095,626.995390969826,202.990401739793,1125.74002529513,206.968052789966,1312.50639312532,111.80482450821,375.099240548381,103.657609832554,294.332520840068,45.4799775459753,865.707509700815,60.4889562518215,814.697245326491,-10.4106896840585,1045.02446451669,305.715140382903,184.83750326638,-24.6791957837623,1204.13732868052,-111.172875576484,367.23069847733,64.1818847368882,610.851392953221,31.2191964258015,2436.54730383698,-49.2997551568334,2076.96294756234,99.2021215806544
256.37077372027,-18.1760648282654,603.022153858057,203.83360541136,1093.80214200598,210.091914587893,1270.49320101636,114.529430157401,367.907451480405,103.037943230053,290.132672268413,46.1395394680559,846.807082690163,62.951228767548,799.785698741208,-6.12062997960199,1031.65625082303,303.917341542734,183.30413124484,-25.2495180300403,1187.73362309161,-104.715589938699,364.879274092946,62.0424727131292,607.451526357763,30.948164982941,2424.84245637586,-49.0202218177633,2059.21803396949,102.763055583844
257.314325254189,-18.002334356677,609.903276289128,203.27760763059,1100.23516219647,209.67041430108,1284.72530973311,114.356930179207,367.761279142394,104.104260703207,291.154386884584,45.6924497429906,852.866594459108,61.931019962049,802.109978596817,-7.53703384640057,1031.08966483013,307.767566806747,183.594355964883,-24.5318172166706,1193.8371024885,-107.53025195923,367.730008426866,61.9694780099389,609.870386248031,30.8856942819786,2437.88093429067,-49.2062160497553,2069.51854970594,101.462286288558
