240.488810188756,-16.308844550333,607.03608758845,209.70028368815,1119.6005487428,194.477658858184,1178.72431011515,109.660095261902,369.088765462424,99.3249898142321,291.528302566523,42.8348592182944,854.175594660448,50.5822783221286,802.077279068337,-16.5355718084712,1006.72300548757,293.062197880469,181.52285719591,-24.4574389439952,1182.60036234725,-107.121439151745,368.790502228616,58.5342629936211,622.725361792608,28.8805115999591,2471.62383156618,-55.4179010339778,2139.46162347936,73.8780182584979
243.654340996534,-16.5649098940982,619.720981263196,209.786799900208,1133.8451577691,196.868494674746,1206.82120416125,108.720654045175,373.448735707155,100.34806008859,293.862684922129,43.4083144009553,865.212831180155,47.5177183122627,806.317804645136,-14.8733866602342,1019.14922409215,289.846438905572,183.865751847029,-25.1791463315113,1182.77189238371,-109.56781857168,373.816173180667,58.5399992841512,631.478943923036,27.3830582615134,2503.26579347336,-61.9359797198933,2156.79000734708,72.355318262554
244.727456885914,-16.6831567724948,620.228536871483,209.081172161993,1138.52242486514,194.654156964675,1192.49245530405,109.342549213012,369.122570587035,100.249726065164,293.226239675072,43.0314155209747,866.841607314723,45.1753017322429,808.061908186643,-17.1202355629901,1020.52076173595,287.57923268208,182.204730802755,-25.2969864613326,1193.38517093036,-110.643981482654,369.89641711946,58.4286265517911,628.162355636485,26.1644668706107,2467.80604617363,-55.332336427536,2142.70576224303,73.7972041704781
240.332065413497,-15.8284471314937,605.417816684274,209.348544505339,1117.63651107668,195.442863583846,1173.00017925355,110.663808546388,365.976301256666,99.5486724489632,292.029097745764,43.0255623819342,854.431740023626,49.0441654896765,797.99938847188,-13.7889354249031,1006.33449533184,291.20895179406,182.014479563225,-24.7700998953121,1182.61291224169,-107.949968890509,369.778461138627,58.118838117135,624.081520660761,26.9072996456872,2463.77657645797,-54.6914336061379,2133.4309296096,76.3765039521829
242.963927592604,-16.6318450370081,614.580646634159,209.847795314964,1123.67464948479,197.423430061384,1194.50136753466,110.693099684444,371.542067078253,99.9561574102197,293.372017815759,42.9025215996776,861.712201651427,47.6112113898779,805.207799427895,-16.4453799689414,1019.04350009627,290.289140486801,183.402739187828,-25.0629298399796,1168.50016101041,-98.9046007097555,372.416107323105,59.1149427388401,628.058470762781,27.9949986414364,2493.09870339603,-59.7529765005021,2146.95117798771,74.5952301648208
246.231423099753,-17.0246507274969,624.803469174641,209.760777673269,1145.40377847971,191.617431248814,1220.98571927356,108.843443819789,375.177120019776,97.8539495423062,295.645624366402,43.1442996873275,870.700498666785,48.3147208162194,810.56248512154,-14.8729287369468,1023.24260093455,291.771710929571,186.396442412656,-26.1659573047513,1194.06876762089,-106.963607602415,375.038836623388,59.4763532055679,636.486679270492,25.495129451025,2500.19932417456,-59.3581525603225,2157.08929585596,72.5293683069607
239.712002424272,-15.7149386055177,601.432176514333,208.861237146981,1116.51183227083,192.927058580734,1165.57743627382,110.37432981294,364.692841243804,100.057274568246,290.57964736808,43.5576406437168,857.161918363199,47.7875987794549,798.481844352823,-15.2144227195981,1003.59330854964,289.745249899415,181.50205933246,-24.7297324484284,1194.83173788019,-116.511588453177,367.303419709982,57.713482890606,622.612604274403,27.1018280615629,2459.88053750654,-52.8209836576767,2129.64786814815,76.2191005575267
240.878258485221,-15.8947580562931,608.890981924353,209.067635827601,1115.75231639642,198.06206158885,1181.38096362093,110.770887252324,369.625259312024,97.8164592858126,291.429826854636,43.563769164226,854.544183665152,49.4367435813169,800.385201365169,-14.321665098904,1006.7196057494,293.361460139245,182.119508606352,-24.6633825938974,1177.06204072594,-101.26282102441,368.762708178319,59.1869448708787,626.275032225812,28.1142978836603,2477.47028714601,-59.3530492904914,2134.70468000552,76.3180614920429
244.180117263117,-16.369188822559,621.248814612404,208.853776879997,1132.66811924564,195.942578894025,1207.3342959398,110.232014679742,372.221773195861,98.6363755494473,294.363375037353,43.2467648984426,862.194538874602,49.2482073362985,807.805514583047,-16.4733488843445,1018.27255913434,292.519940125596,184.516118561572,-25.0593048443234,1188.97905133395,-111.294566255943,374.573225328917,57.2383414757767,631.781298916332,26.6798368417607,2505.07857836386,-62.1310234144607,2152.74257547757,73.0998505015948
243.02555547205,-16.4844490186574,610.373272823586,208.22411675158,1126.50139742133,194.22010903705,1180.94639460609,109.509312789961,364.285987889596,100.82905597541,291.924329563043,43.5629139422738,859.613484641806,48.2410227059088,801.100732464681,-14.3676542576863,1010.32755375409,291.479344325396,181.716691256101,-25.0198916792662,1192.25109834976,-103.945681858675,366.363393458612,59.3546191968892,625.484442788988,27.0170789754644,2454.11009848856,-53.1355782987476,2126.46754758054,77.0597877798431
239.713632069821,-15.7635299582067,601.39722589878,209.859530082681,1104.95875341096,199.260619896435,1164.25163640461,111.995243524356,365.45023849935,99.742308581881,289.868441051072,43.7143149534913,846.96384336025,51.3225312906171,797.17733431834,-15.6080324128445,1000.83574832509,295.292897672101,180.11865054371,-24.0852759114999,1172.46499788092,-101.447003444759,365.570703560797,57.7483405729838,616.717402776495,29.1046381860856,2452.64204706148,-53.1543450315612,2119.35465778651,77.8563485770451
241.925277161161,-15.9256212790427,613.520614527372,209.464259873823,1118.67326024763,199.076455557815,1189.82235291993,111.324896612042,368.829977689654,99.8432277554278,291.855360945583,43.4497310896542,855.179279440386,50.6031076803843,802.026735450717,-16.5268643394417,1013.78758419058,290.548834191516,182.508274773375,-24.9217521750533,1185.00884799979,-111.344095357589,369.070878886559,58.026953941294,625.091105832697,28.2245272085849,2478.23734113667,-58.2337293081111,2130.8028155497,76.8918453160855
245.696015765231,-16.847629686783,625.332420796914,208.475934579881,1135.6346203088,195.363188137324,1214.19086729022,110.191132932374,371.101560379839,100.698612871331,294.448891716387,43.3599855946335,864.523711406224,48.5918024660542,809.563937936025,-16.7886544650804,1016.44019072195,294.388061087419,184.548454053075,-24.9113809253878,1176.61487943183,-98.6057063679665,375.879409015944,57.3406746241493,632.016461803387,27.3993432822766,2509.60515861091,-63.3504364747006,2150.51481025105,74.6402013667264
239.929655087014,-15.672222454093,602.835835202593,208.042061086399,1111.46668747273,195.814945492358,1162.67094796791,111.405855984337,361.417108041749,101.976312159214,289.648701160803,44.0328710195068,851.546340879576,49.187746137558,796.749668793255,-13.9861543265323,1002.33197414808,291.100833565841,179.236762311937,-23.8043989046456,1170.85190710094,-100.024613129528,364.482910719501,59.0610262322174,616.060161244599,29.535517829676,2446.86185091008,-53.0814208702141,2114.05305464116,80.0797613065296
239.220852673966,-15.5950232860802,601.24531677709,210.445278524504,1104.28099333305,197.789098689598,1167.51411954143,112.605275480883,365.442420825293,99.5843769970411,289.902638708646,43.7666729242351,844.77394054211,52.3829019604057,796.334752872234,-14.525333407504,1001.16053946372,293.325348392315,179.481430134411,-23.6990085701175,1173.68292883892,-102.071273441296,365.566088986069,58.764261205951,619.816194467572,27.0998384304504,2453.09532827795,-52.7369481348266,2114.68341472247,78.697223660489
242.264198931471,-15.8902430464277,615.690332623927,209.472251706071,1121.85482190013,196.747729698806,1193.50994321235,111.452158128438,367.809930836484,99.6080512461853,292.486628674666,43.3234778799399,855.263688991842,50.3619859755828,800.717994351287,-14.2746075165863,1009.42560988924,294.37269745266,181.977011267152,-24.5343555358527,1178.69002070637,-99.172404180848,365.47378878856,61.6342664223078,624.245525248695,28.6010872717735,2481.54882828944,-56.3964532574125,2129.82356070906,76.895542411116
245.549527678834,-16.477219163413,625.696313333563,209.689604800286,1133.26714768825,197.31201087711,1204.78837440012,111.525444021767,369.967317052115,100.86129877736,293.13106629585,43.310750039237,860.368589428925,49.9047137641495,808.170631904547,-17.2231305408382,1016.82217390498,288.072176414943,181.398978987526,-24.6064010450409,1182.56437508361,-109.280796502445,366.52393996558,60.5969377064494,621.817523722867,27.7673026829245,2455.93477573649,-52.3653382092332,2119.44805669747,79.5907151159734
238.214480342877,-15.3327194528224,598.986462345675,209.856862739844,1100.56951634011,198.118312356192,1156.93205855819,113.502935898164,360.731637258711,101.622261458253,288.58107595535,44.1892276143261,838.164910089843,54.8667324834911,790.911173532012,-12.4734470759611,995.293723200574,293.564560814108,179.697974014633,-24.564718545111,1178.59317487148,-103.570216042028,362.463614903015,58.4603950777827,614.810004991663,30.5888404589665,2439.92378453852,-49.790528470314,2101.45295089297,82.2372940102339
239.622992891875,-15.2534922471526,607.978712870672,209.535747244925,1106.71054351563,200.080762379241,1174.11924107776,113.895466952598,363.539421793514,101.326172493586,289.442628824842,44.1277961662808,843.685853877781,53.5212119999711,796.678684603733,-13.6031122713666,1002.03161168047,293.224557491976,180.606777410423,-24.3216453280726,1157.42673625248,-92.0871475134751,363.583868362149,61.0561752776559,618.106285613518,29.894335939172,2460.47915889602,-53.7454400389391,2110.65812606205,81.6731204196209
243.060364585549,-15.9107674050212,618.300667135207,209.478703222603,1118.73719617366,200.767241252139,1199.30390018398,112.986399798724,371.006452583744,98.297273927365,291.455914113177,44.4250929112042,853.956077649572,51.417099382226,802.545573444583,-15.3159548946547,1009.29925162834,292.28053827214,181.427351522962,-23.9897925224675,1186.373778581,-106.368325642846,368.766510923581,58.7132972079336,628.112331479551,26.3457104599564,2490.67665317637,-58.4102252435936,2128.16101891772,78.05380587867
237.364509524138,-14.993228365392,594.291864926596,208.609198173029,1094.1156596044,199.780101641395,1141.27299068931,114.42291033901,355.502033757373,103.379173810612,288.115677724255,43.949883060741,832.671704660499,55.4190164329209,787.972605048129,-11.461168591209,986.57836888151,296.721691117103,177.521596196105,-23.9956271159944,1176.31751760236,-103.738865134599,360.304941362191,59.3756662880057,610.21493207941,30.2246110785186,2425.78643893686,-47.8576252860622,2091.93673950485,83.5109416030381
236.674611593482,-14.6312593851631,595.440966947509,210.515032077445,1089.92916742085,202.789713604602,1150.94478173453,115.215633312318,359.447547978442,102.45977698369,286.441916979146,44.6765012256463,834.768376077561,55.0755250880574,786.593461221701,-12.2535063286634,987.658028282797,295.416638881137,177.395131778256,-23.0488129181849,1164.45598663343,-97.4370375054126,357.381340461538,62.2121921731518,609.976676751382,30.7408112521962,2433.58346779216,-49.1514150748526,2092.51097773744,84.2049939416552
239.970867705083,-15.3376301364255,609.577909110451,210.922718164499,1108.50279626553,200.276026433788,1179.12868603211,114.639232317643,362.855437560302,103.059221847748,288.939907814048,44.1498102207457,841.186025350501,54.7168302487449,796.059539275705,-12.369148505516,1002.19116108823,292.14340022503,179.654971008138,-24.0313478295673,1181.48242100282,-106.133669501898,361.551889661042,61.6788956708403,613.603867023869,31.1772721044833,2461.19369708304,-54.3615188911798,2106.97873070253,82.961152850094
242.23756200093,-15.61884140201,614.339281635738,211.523739931046,1119.83266537068,201.21490563119,1171.80048402062,113.631442190112,361.903133303881,103.802899656188,289.276832063481,43.9766765230856,843.840011974908,52.5564324810517,793.622562424968,-11.4157514517264,995.371255570224,293.676461047605,178.353237105086,-24.1318063376208,1184.83157080567,-108.346111468002,358.450328743447,62.0632973349929,615.930589954534,26.5598782410881,2428.6274695879,-48.3501311047518,2093.31429595924,83.7272068548104
234.441538470374,-14.2214531479949,589.597935911185,210.495846332675,1083.50074890688,204.356276675861,1131.98404376197,116.163940615023,354.002060522233,102.909215221849,285.050454827578,44.6808427598864,824.448324145702,57.7866128852671,783.230523167542,-10.5215810030077,980.844046083341,294.974518423224,175.480154435276,-22.7495602390019,1148.2270653401,-92.7108301786147,352.345844654864,61.7031281550423,602.108986590496,33.5651285299874,2412.96051499435,-46.1886460977213,2075.58176525058,86.8908474781745
235.895500850112,-14.0754362825071,599.359569917393,212.053375609387,1089.72368625756,204.514355453056,1156.70405588972,115.855365844411,356.56772757749,102.795920767665,285.657623064846,44.9204289136729,828.15997630017,57.6525961844766,783.646916241342,-8.72932139817827,985.799151534786,298.779987356816,176.448028087552,-22.9864708124042,1164.46333541709,-104.279853092371,359.814781439711,59.0638143885376,608.528842211703,31.4624808869078,2432.96843292206,-49.3356895543676,2085.12513584161,87.2899165644564
239.729790428809,-15.290766793979,610.424345179186,210.837889774119,1105.99202671231,203.158713230778,1183.11993342353,115.002597524037,364.720017597895,102.510062925184,288.321942237141,44.4265728727924,838.555316289747,57.3780427845378,788.169054965723,-9.05343738448109,995.563960008821,297.621185771666,179.622254592567,-23.8203867749011,1174.04504868149,-103.671756525741,360.570418475208,61.8606963778006,615.685944582122,30.8367814408558,2455.7877357426,-53.2613958130141,2099.1424428549,84.3543905035909
233.12207462178,-13.8492199748624,585.508119313283,209.723155269307,1070.27774916066,206.560459956026,1118.81454082048,116.181472665042,353.052667999895,102.290815027364,282.874892349751,45.0024258840016,823.002820920932,55.8436585059916,776.443294339419,-8.17146885972629,971.3330937614,298.093286676528,174.319769743026,-22.879855701535,1151.38902959277,-93.5978447377259,350.447600395543,61.7126208014128,599.96103651298,31.8013485317835,2399.22589397963,-45.6932631384248,2064.67687748911,89.0743944609595
234.14591114594,-14.0726971060459,590.848550157671,211.083256085888,1075.92288697222,205.472127039373,1139.77683046185,116.72484712598,353.65483658012,103.481452323665,283.635862710838,44.7674947033007,822.630852750423,57.7241733443458,778.469556915397,-9.33634681668765,977.358319280329,298.162766618365,176.443972576048,-23.766762579796,1162.45088755901,-101.923125664019,351.558949539495,62.1813160238264,604.501602627817,31.1170491134214,2409.70964712263,-45.7336417073093,2068.87331280021,89.6074590863946
237.240774731542,-14.3343596055353,603.546197782498,212.053021685711,1092.87447337585,206.033503827422,1167.71983989797,117.82245394576,360.297454550161,102.199901477645,285.878802913697,44.7280101747971,830.800296807043,57.3657628663323,784.024842731566,-8.59568437537258,986.277437409082,301.06469804942,179.076126845603,-23.6592871554181,1159.78282921672,-100.749362255569,354.906453349066,62.9821159715987,607.726390395246,31.6691584920131,2437.81390873413,-50.9413259261462,2087.13564376602,87.8166166463307
234.444525998387,-13.9656052737649,586.97927674345,211.44774762363,1078.44301509035,205.592589348811,1130.22415650899,116.963250294001,351.234696683596,103.757643174666,282.971210464937,44.8306105109807,821.023696062359,59.6961552395103,781.882529230253,-11.9184713732199,967.004291488433,301.390205573268,174.721071995106,-22.8541859063446,1145.1828325182,-93.1784485428462,348.989411958506,62.8982233995847,598.101412990914,32.3735314099225,2388.18170909992,-42.0949854342096,2061.81831880241,89.5480581755326
232.071449327701,-13.3039704893562,584.86526930142,211.534160286955,1063.02962177478,208.692030563534,1125.11401303538,118.660467977015,349.971405016861,105.353431177886,281.297987513324,45.2808442457477,815.595061387042,59.1781943402974,771.239984219872,-7.06676413916911,970.82145320898,299.171126323716,171.472307860572,-20.8702044562389,1158.59074524463,-102.481774683772,347.100358378957,63.7180161390616,596.132609235329,35.5856654270976,2395.35828148845,-44.6775180406023,2059.55072894924,91.2792953908009
235.656384998025,-13.9655717136515,596.497236306353,213.799974448455,1081.96395204251,210.915306204975,1157.40079772667,119.016122716094,354.467152267665,106.696929039632,283.392400169479,45.3830428414192,822.865545644907,58.2063660820483,782.211496598241,-8.11824124212403,980.013090955727,302.225422173518,176.904616981942,-23.6808966802806,1154.01308874928,-101.271975033136,354.500077621912,62.3040388541749,604.258148559778,34.7446097686206,2422.71914899669,-48.234542525188,2077.85128321105,89.3328354333635
239.390646715401,-14.5765740192701,611.500313213824,212.147499820974,1101.952968398,206.989266108108,1185.06203449655,117.40908647749,358.643841075534,104.639131649588,285.940732840685,44.9988040190342,838.083242427003,55.1728820584523,786.493416843253,-8.88644988562278,988.649084504749,301.46765661131,177.807914112863,-23.7318729824331,1163.35651515955,-99.470115178942,354.308891924535,63.7935119549106,606.427661688755,33.1470510897327,2411.08684471373,-45.8094265240253,2076.9760874132,89.7781455790154
230.916664197435,-13.1643058821457,579.006570838881,212.303687789271,1062.26060422608,210.361849363991,1117.25666897426,119.953562499647,350.538330485606,103.370327810168,280.733550791536,45.2518043291403,812.965881176639,59.5193002573308,772.508356576265,-6.45790683510578,964.246466559858,303.003737650209,173.640925134426,-22.1078037810024,1153.827492617,-100.133991551885,347.8522003223,63.964931388316,594.054095076717,33.8803295116463,2380.56410613567,-40.9060038124101,2057.15803810526,90.4844851721341
233.106523925698,-13.5260877647419,588.55570128015,213.889755051293,1069.94595567562,211.255651458091,1143.51596875713,119.13961462793,354.11494057893,103.009154285637,281.466084039208,45.5779530556471,819.93999119612,59.9307069154699,774.661726065832,-5.98552433139624,970.729131994968,306.206789523536,176.004056221857,-23.0077531261604,1153.35716186454,-100.437666784958,348.918428085736,64.4456420334314,600.5649801166,33.3770119785033,2402.38470738615,-44.9531586861919,2066.22411841239,90.9013412371789
236.724500705691,-13.8311619490077,602.667798916444,213.631154667734,1088.0283104018,211.064882407297,1171.90406928172,119.279918065291,356.515519143202,105.10368674356,284.620486812763,44.9296261843519,829.177609134388,59.0419003972537,782.582512014012,-7.98827126130693,983.60300748216,301.750615774011,177.925922365429,-22.6664984547673,1155.64913686297,-94.8094598386206,353.425938181102,64.4898673794532,604.224050827777,34.7939637681283,2432.89723108862,-51.4619630260012,2086.47874873714,89.1434435962752
233.642781009005,-13.6210449311952,585.645621117525,212.319649475153,1077.30565782843,207.436136846847,1132.1674691664,118.672783814543,348.657451665259,106.749427250855,281.775956583476,45.0106608161789,818.715834357571,60.4696453401419,776.664205260695,-7.98699388622097,968.752736166749,303.009510398386,175.619272656991,-23.3831805508927,1138.96230049121,-87.0056298200048,346.441153499066,65.2129026582843,595.287411074696,35.6473791120543,2384.04603886783,-41.6289057631929,2060.64890531624,91.6152218990434
232.137953075489,-13.3436365298684,584.605688939003,212.681608260751,1068.76120100192,209.660797296896,1131.6476574557,120.352391408535,352.033297584078,103.566675887932,280.189972052283,45.9404846344424,815.503957782456,60.7825766113781,772.400090793192,-5.98674706353525,967.104498768207,303.130688721036,174.597507607342,-22.358415270728,1148.03428827165,-101.134570554564,348.672594686961,63.5371051008084,594.698036446901,37.0242897171537,2391.49742309883,-41.9010061261456,2064.78125721803,91.0123444289612
235.768339673968,-13.8791817729643,597.669802750972,214.024625122586,1085.51644448761,208.737183281385,1164.04119341838,118.615362288426,356.580820404678,102.953158541004,282.587876946301,45.5293978293135,825.149838651386,59.724544332212,782.379022172354,-8.79593057322121,979.513426358527,303.544857746081,177.2362311248,-23.664268147459,1152.29984316278,-99.2482453179084,352.111866113482,65.3662900005418,606.503350256244,32.4604944449564,2422.43714590146,-46.7495675206661,2081.98763579505,90.8751582420534
238.567916882397,-14.4374193579837,606.543747290407,212.854880636961,1093.8144154097,212.384030298397,1160.47533318222,118.669092462792,359.870228138875,101.749580101718,282.930579169318,45.2680903207752,825.717683851711,59.6038173529471,784.265077326757,-8.28804785527049,977.553933342223,302.925908604064,175.985963783462,-23.1821143600814,1155.48567878393,-97.0567537894355,352.001288746196,64.3572161296283,603.481637617663,33.952434096636,2400.71982813873,-43.5060543170717,2073.50271122193,90.2420704291319
231.970043467985,-13.3785167303995,584.106076420287,212.854073319383,1065.39525981138,212.747329879033,1126.78427768874,120.467881222371,351.284545962526,104.13732642024,279.974706426701,45.6017158251987,816.783321015364,58.8644882379725,775.075151992982,-6.72171567130364,963.822689928642,306.48151182981,174.123126919478,-22.4668120880212,1134.78124693974,-88.2637073805056,349.018338127335,63.9075893134687,598.306534106762,35.0100296405742,2392.59195207009,-42.2102990524438,2064.93535943199,91.9288760945244
234.61767418187,-13.5936108808398,595.073783355716,213.483140931531,1073.93949469774,214.719711654431,1154.21042936789,119.76506880192,354.605808791572,104.25102761805,281.795728121975,45.231172740961,818.530981647575,64.2429256437038,777.300863349201,-7.84071317816231,978.239918372782,304.064926981212,176.626610089688,-23.7569663826747,1152.18919766717,-96.4347565895048,351.528432498871,65.2742889658516,600.953915585612,35.8138469543915,2420.49986777763,-48.0496540483156,2082.53979809557,89.6854020102345
238.622065256271,-14.63657933435,607.200077280773,212.875466442162,1098.1439921636,210.218736851666,1184.05182161075,118.158568359869,363.382835618077,101.065564117876,284.653776096341,45.4536403445422,833.819443192827,59.0852539498688,785.514810935485,-7.34759906344132,985.814041453554,305.648141439949,177.963040918136,-23.0426935670951,1146.21552606611,-84.9441114630775,357.83791438005,65.1434814195448,611.400656799054,32.8413561989173,2454.6967818596,-51.9779743058449,2104.14995438828,87.0643363323328
232.289310519565,-13.248103471868,582.273866122245,212.429191571839,1064.85912280582,214.558116071621,1120.34377855292,120.514090361084,353.186916889022,102.152288422835,279.65818580176,45.5903009639978,814.857111373054,61.6354007349849,773.985143731573,-6.89341227623621,964.234896745267,303.852323721432,174.573929405952,-22.4710997281178,1137.29746931487,-92.5524222632342,347.892902438595,65.9718223525901,598.27946084886,34.7131520262779,2397.60070413105,-43.4349419767017,2070.26166934297,91.9715926637535
232.729229984779,-13.4831346789162,587.645524336839,213.777475144251,1071.27302189317,213.612585918436,1137.62987333242,121.226846447172,354.795156969309,102.099602039774,280.697283941553,45.3401077061442,817.005865606025,62.5877200976723,777.872586730354,-8.74108040642494,968.668252886609,306.394814559632,174.344409856883,-22.285822060488,1151.87029228902,-97.1454051931065,349.997082760835,64.9426352198304,602.59876730889,34.0616965890863,2414.26263656554,-44.8722534923222,2078.76768427723,90.337301063864
236.384393118976,-13.6273540647266,603.830561009086,212.738661573002,1089.86865310527,211.003728567601,1171.11148794599,119.74305688551,360.182721554982,103.717837904309,283.138723776487,45.7430470255405,831.51916147414,57.678694778985,785.251378058154,-8.48500008392644,982.393529942592,305.181174432466,176.989379857852,-23.0793469162213,1154.68410529472,-95.9090789974558,355.961444911271,64.50207235929,608.36924268654,33.8479525193976,2445.92072873073,-49.4771801754501,2100.14053705559,87.5479121145366
239.407476102146,-14.3552301366992,610.362932895813,213.17555837225,1102.55807151771,211.673803665971,1167.38542783736,118.304872248252,358.800940586824,103.742976545949,283.812124656459,45.1709131607957,831.560616947155,60.1345877665594,787.249820178228,-9.63613226126936,978.770575832955,306.257283110424,175.525820862988,-22.2734643877063,1159.53526719133,-90.7358361764889,351.711438530912,66.7377012934033,603.408480524385,35.3875243613575,2422.20463644272,-46.9158541171058,2089.25074125544,88.3294664571536
233.107448141019,-13.5674631896336,589.912730374568,211.797388641755,1077.8695673706,211.46042336524,1135.71391776283,120.297362152024,352.348989536626,104.196957267675,281.116619896924,45.1903594113493,818.237722478181,62.360615266861,779.118712338412,-8.79371965032446,969.176390732136,306.022204190131,175.361642958877,-22.9257432836825,1139.58031228095,-89.1772414028458,348.531463371651,66.0140138130453,601.605723741054,34.3785736100732,2414.65069513198,-45.6137324401596,2078.82457451985,90.7096899811439
235.316580892061,-13.6279772760337,597.499868949032,214.253771896268,1089.72389282901,209.159804663254,1160.87073006831,120.42293289462,359.229530751381,103.077277878409,282.495329072816,45.3537089422658,825.128327822345,62.9976470080287,780.794455790935,-7.4899826134393,981.542646860661,305.034241955949,175.883358136265,-22.3402114261802,1171.33403929438,-108.209997702147,356.001965644302,64.4120043907673,608.341151768917,32.7684952776727,2442.98327849763,-51.3262014917124,2097.38698609243,88.7888512302996
239.240963961259,-14.5425143635133,611.17409915153,213.161279070039,1107.40586844093,209.805844958434,1188.40049001831,118.951127344368,364.866462342541,101.778829855492,285.718423072591,44.7953426543123,839.341579459494,59.1153340301755,791.294412271002,-8.72263821944524,993.772551429839,301.89771117031,179.381883656001,-23.9372920877618,1164.92475928319,-98.4639568706527,361.076395799091,64.1086479838179,610.244614905847,36.7479489659879,2459.15107988047,-50.8984104968517,2109.09901616246,88.2121540630655
232.70304639432,-13.3697264976794,585.125390029611,212.438384297481,1075.56779079948,212.007407142523,1130.13396791492,120.067040617645,351.779234182775,103.445465325425,280.598040860389,45.4372589956596,816.082549197252,64.0568344782465,776.924106291154,-8.3104399192102,971.196063352524,302.915648506304,175.034621309474,-22.4384381866881,1154.60416447942,-93.9197105676613,350.836260975245,64.9133869705156,600.019056313299,35.6768929931837,2420.08262668195,-46.4928177137389,2083.76504028932,89.3263228145499
234.872589672248,-13.6107656362406,595.709199882784,212.862749207699,1084.65626425919,211.047417112813,1154.07987775706,120.045531785548,354.408317483309,104.096610113428,282.328873371493,44.9032453665992,824.797437056882,61.873750451634,780.856977812082,-5.80330530349746,975.682338904993,307.898966955975,176.702133299194,-22.7497481756373,1156.77330636457,-96.2399487479311,353.790134283665,65.6771001689858,604.961281833956,34.9079926744362,2436.95346056341,-48.6706921578363,2092.22766680552,89.4201519693711
238.562630147655,-14.4643505100388,609.415984460814,212.883302158269,1101.43089921482,212.061121593738,1184.24420112914,118.938743730501,362.654609114918,102.063693157859,284.871744377232,45.1799402423062,834.722126773348,60.027079097787,789.115186146865,-8.56596265276472,991.78909688185,302.69495612969,178.709418412182,-23.1338448488806,1169.44035461941,-96.4384729283524,359.479312383498,64.6294995394582,611.70690231082,34.1289008492758,2470.07914618955,-54.8219575003529,2113.59802003175,87.3026911211515
235.665352780526,-13.7874233887262,593.784510080494,211.579825957656,1086.58041942074,213.717543287453,1148.30678625543,118.292852958937,354.026940356406,104.239400791861,282.220016573597,45.315461919927,830.292710105026,57.9612207717673,782.93007885216,-8.41859524272008,973.100348430794,305.848370279497,175.162262002587,-21.9248092078918,1158.07860540143,-100.46729994984,351.536948967657,66.517404865206,602.211921063572,35.5884277084886,2420.95056771064,-46.1240895943864,2087.660547375,89.7769627718505
234.260985680779,-13.7348524777822,593.027276359503,212.08228904382,1083.26187946646,209.725818935364,1145.0277298622,120.76701156316,353.556544970396,104.283488799382,281.789795195002,45.2360571273352,824.424517742727,59.1342990045756,779.963046002965,-6.61178098873452,974.505979301009,306.833054447937,176.003056966122,-23.0400485267522,1150.95696674534,-93.8967169203762,353.190529358231,65.7270834692104,603.90978400976,34.0346490710887,2428.68993813319,-47.7288581583496,2091.69252647018,88.4773595317824
237.375207937925,-13.9108982615987,605.267717395031,213.773996858497,1097.49957053221,211.985481631145,1176.87457127259,120.011006689145,360.372562134936,103.487712211964,284.144121942293,45.2456016181268,832.89306441384,59.8322975944629,788.745984499818,-8.15710122798006,989.207918351096,302.554502173266,178.976505018027,-23.9562743591415,1148.20610165268,-89.603440910193,358.427015532194,65.8096428921433,615.131665302458,33.0073754056092,2460.51578426142,-51.9982066696358,2109.81523179456,87.3335072263857
241.169696785951,-14.8502465087657,619.829400791927,212.283504396649,1116.64303695808,211.494188073676,1200.68945837066,117.171617425646,365.364875938048,103.61168512936,286.562027877897,44.8203053002628,845.923989465094,57.6861950755054,796.407351799317,-10.5242744769988,998.849533732121,301.777415009104,179.573680228008,-23.6870796277854,1182.07625680217,-109.171944873632,358.843777853001,65.7279073136816,613.914788615119,34.0366457262946,2442.43360821857,-49.5189770968935,2106.34866494695,87.5188627415017
234.166699790427,-13.5784338229257,592.563419594184,211.862733103269,1082.77369157976,211.824777591782,1148.10500763398,120.034384608819,355.336943053732,105.69426155658,282.714599719905,45.2843530076119,824.140882899094,60.2917001637789,783.141729394745,-8.22011974571711,976.732532625976,306.144905663078,176.052824416208,-22.6402729040978,1157.89393780559,-104.838700173703,353.659790948201,65.2484106674482,604.810149341354,32.9261204661211,2427.73949837909,-46.6998751033126,2092.39774825369,89.2297636905365
236.454726814033,-13.9859841492666,602.39641271608,212.278539495506,1093.00337948912,213.726687440322,1168.51942224309,119.601529625536,358.896414090461,103.246088604608,284.305308129416,44.7803792634264,830.547428094214,60.2724726362396,788.208922313545,-9.01543052125365,984.024327120573,305.318768526683,179.40987820388,-24.1163317693008,1152.94711137093,-92.5164330806633,357.726842306136,65.0799243703255,608.999224056206,35.043031777139,2447.88101457972,-50.2749854492752,2103.42183267431,88.283515864591
239.99572359369,-14.6318263832801,612.748184039744,212.845209140046,1110.96117191419,210.413294545504,1197.27617614066,117.76875284894,363.362551140295,103.157838321335,286.733296289443,44.8295611536454,845.800023704706,57.1197877769522,793.79664977427,-8.56844909925293,997.486690001021,304.611997283816,180.731622166855,-23.4545650936462,1183.03467527931,-110.864273019057,362.319641676315,65.2332960897421,618.825748146652,34.0886167670674,2478.33654759488,-54.0246573591057,2120.23901034257,86.0410047181523
234.883455279165,-13.8854197590551,589.869446818663,211.725799761174,1083.9623287252,211.035719562846,1140.61981109196,120.353849348158,354.800000547058,105.09522632222,282.013016646801,45.2373162278543,828.069198128918,59.2440849156011,780.527294987059,-6.7729032214205,976.770629052281,304.778019810943,176.426841309371,-23.2997764535007,1148.78973122688,-93.6546625968872,355.506979226384,65.3371200737355,604.714689033903,35.6370287704961,2425.08185752259,-46.4663906329396,2093.8586377087,87.9273263798865
235.409926669666,-13.9845581800453,596.847597778945,212.773087334699,1092.30838658877,211.081871100985,1160.98920988348,118.958200243718,359.609530787516,102.50481912633,283.4194093188,45.404066762669,829.132040655267,60.9391160098895,786.404118523652,-8.04652160471379,981.555835845593,306.94489417448,179.104888926701,-24.4942931504005,1153.51349944931,-91.5433097077124,356.494193989242,64.9752277985977,611.083361259922,33.2661158178692,2440.57391873243,-49.3484180244131,2098.60916835747,89.1999449244749
239.655542013637,-14.7773769309913,609.798399722191,212.937891373225,1113.355650194,208.893199635291,1189.63179456675,118.558386760557,364.185090984974,102.581176102845,285.50226299175,45.2565939996833,844.063350690466,57.6205950618599,792.482814428345,-9.1532067472862,997.223453851526,303.101181639438,179.630670163536,-23.3023983373654,1160.22336448061,-94.394142752818,361.217929833741,65.1454061535306,619.752741734903,31.4620057409742,2470.30472572077,-53.5217574422903,2119.02502251411,86.1747450892451
236.36659025402,-14.1184041347828,596.101069619247,211.55669992305,1100.60316935148,209.143629607115,1152.58128891305,119.133314849225,358.200419133574,103.56095588734,283.575984273164,45.2142162553156,830.397614516052,60.1344601246831,788.959206438873,-9.59769344939494,983.636927201152,302.092881585817,178.53158034715,-23.7873688250664,1165.6294238091,-102.174106465285,353.587293051348,67.1728917714518,607.643764941836,34.986117134087,2420.0872514382,-45.3274827662646,2090.93279208389,90.7860283077065
234.708943286502,-14.162084636068,589.59093165741,213.354721243852,1085.66501916169,211.217929171626,1146.59577953811,120.143057234668,354.960217915632,104.064046187963,282.111826540943,45.3610863006305,828.907794660398,59.0162161577811,783.262660404706,-9.34116463144157,976.388090248645,306.789131958918,177.036711115537,-22.8954039343041,1167.37598942539,-102.885082887072,355.814186976046,65.4838018844199,606.026532932802,35.6024502914133,2426.79921950987,-45.6176400636672,2091.21133849863,89.1764183096287
237.55022280204,-14.2814133247222,603.384505426428,212.32028209673,1102.73230729521,211.631590750147,1175.39334562785,119.851035498746,359.212561295718,103.600922585275,284.661746782039,45.1122938963346,833.33958508277,61.7969989851488,787.507625266864,-7.00721987386842,989.12568929491,302.991377554946,178.51516225302,-23.0281274710467,1160.52737100423,-100.862284769448,360.219195517148,64.7854700663647,613.440346337062,33.0574388385541,2455.75529735395,-50.5498257832126,2106.29900196124,87.8614146450627
241.018472263416,-14.6414113194871,616.070990298517,212.418105739722,1115.92040490686,211.347117150103,1201.04764310429,118.98278894387,366.611428569193,103.491463719635,287.207226424261,44.7486308588965,846.546482326172,58.1942899204728,795.401761992226,-9.80647722288551,998.294334181393,304.783720934282,180.55417487914,-24.6072267916328,1175.36571492112,-105.203894430011,361.108722672914,65.0069071702445,615.955761445935,32.3332663607416,2446.03415465857,-48.2910909353265,2107.77565963575,87.8619794250136
232.965388173998,-13.272227152631,587.852301820021,212.051191796079,1081.51055070219,212.649080124635,1138.48571059539,120.952950285304,352.759357698342,104.809338464599,282.006366727401,45.6075347553611,824.872662195921,59.6222142461654,782.707212729283,-8.21772661552917,976.067758083336,306.54784519628,175.80785424396,-22.5968808519879,1152.39924254827,-94.0048779607738,353.28068053192,65.1168286448471,606.430697094088,34.5243462073021,2422.22644940491,-43.2136624923048,2085.97116257376,90.375174525354
235.652503069496,-13.938378121509,595.977829325866,213.605410005778,1092.24508140474,210.646641253378,1160.47117641441,120.558043638093,355.621359092035,104.785169158052,283.1567336946,45.2375905402955,829.47902872047,60.6998544128339,784.241564982356,-7.82046046255515,982.498262304342,306.236984845,178.014209395566,-23.4177910959121,1153.64463202354,-94.4174930023246,356.52365180126,65.4823235470718,610.359848521219,34.0627603993669,2444.95980108061,-48.492903219813,2094.93402771746,88.7391691413851
239.46340807859,-14.5310777480457,610.409855978936,212.674290514889,1107.35611817933,213.900695474294,1189.56910332973,119.081688307056,364.018654256235,102.96065366775,285.880266668829,44.9902708282011,841.454051589598,56.8829973437274,791.016205422349,-8.99000942945169,994.758459348198,304.739690901103,179.951714645982,-23.8616752790989,1171.39017002378,-104.152906813481,361.369453108628,64.8596339829599,616.928458258862,33.364999645804,2478.15012887112,-55.1567431365985,2114.00293444095,88.150752790162
235.424964976647,-13.8739205539759,590.720265269143,211.504518159474,1086.80243106188,210.076411522213,1141.94726979671,120.429151854851,356.94626956279,101.720811167395,282.880852973087,45.3745128576684,827.000295970188,59.5404625107314,782.156128847295,-6.88954109281578,975.259244736619,305.377039929615,177.08100680055,-23.4499103059082,1146.89577254616,-95.7009155917038,354.941047759496,64.1126768020017,608.058682546074,35.0313840175476,2428.96797501078,-46.237336648059,2085.05670818561,89.8367890625276
234.858797660353,-13.5184169296066,592.630252103095,213.141180193122,1090.56391322286,211.444997163936,1151.62190028998,121.143156351184,355.976789931455,105.490893784188,282.791663611797,45.4650500744114,827.637687221008,59.3411440549513,783.683446690625,-7.35175346664287,978.519333311841,306.567413102156,178.512241382104,-24.1534910371375,1159.92509769933,-101.898057053262,358.397271430576,63.2650168723361,607.848937120577,34.3879718470949,2447.38783272941,-50.2279372019004,2094.00016550986,88.5010351193061
239.001414166838,-14.5401946884704,606.775703053436,212.472611118725,1105.66344890784,209.033416714456,1184.03279999072,119.129164670897,362.513393673352,103.211491153419,285.490982545783,45.4044871042585,841.317903945098,57.6030063533863,793.54483634633,-10.5978236911061,988.998860867187,306.208642361895,179.59792212427,-23.4703448911982,1163.74595764047,-96.4156074385602,358.395807537065,65.8191303309003,617.358560090599,33.7212972386736,2476.33184259539,-52.8237391807726,2113.31248695396,86.157997927808
235.517046534709,-13.6770450145333,592.166341166155,210.839904102851,1090.51997298743,211.161279709387,1145.8318200865,120.11596444464,355.176900750385,104.170902009842,283.700108125605,44.9952700281225,827.523863991019,61.0546695377604,782.66929424525,-6.91533795108007,979.120224493651,303.718685456355,176.140488590775,-22.3263326412556,1145.14988641131,-94.0911875775302,352.630156081488,65.7703491561985,607.391154863771,32.1878635480447,2433.95863060382,-46.2044442435128,2085.78254068012,89.7195870518093
235.098120447455,-13.875248863267,592.098048919208,212.441150657378,1088.43751864581,209.158882499039,1148.91809255254,120.702945817696,357.352228896817,102.63511215471,282.475997067087,45.6077485608492,823.654779864269,60.7936367692743,780.459612166615,-6.26500337944764,978.402254230499,304.900997734387,176.365223014694,-22.7871571307182,1142.13074745244,-87.048211917448,353.617261563616,65.2611041214404,608.21516946432,32.42937952369,2449.02431146996,-49.7852908302404,2089.33427533327,89.2934291686579
238.066114641964,-14.0271617372893,605.510168368147,213.365560552947,1104.19622034939,210.626550696727,1181.65016503334,120.453600298603,359.32436359725,104.235194439379,285.464297256188,45.4468520202969,839.94981563807,58.0263957401026,789.152192066748,-8.18601600509745,993.005722922388,304.674293361254,179.744817784821,-23.8045611677943,1158.92966267799,-98.0964292798854,357.119567424087,66.1308101708151,617.590261051239,31.2638796297557,2478.88415299523,-55.1745453274636,2108.24024600831,88.1651346364108
239.994449094685,-14.7047092172993,606.440521195098,211.756218164272,1110.24816922377,210.47350997323,1166.32320380326,120.016320824551,359.149539534037,103.959422838313,285.432606031797,44.9796998572615,833.189969304617,60.0951350950736,790.130810134496,-8.89582826998968,983.181449266755,306.595173820528,177.283974114737,-23.1958402786892,1151.4413161822,-98.5604964708083,353.929093857461,65.8631484139009,613.085069032284,31.3782903295296,2444.25023693782,-49.0507459467871,2091.23969441881,89.7771117445282
234.994148326406,-13.5960966784444,592.385698152657,212.37885238658,1089.90092183713,208.437957761846,1147.74875195609,121.00676811992,356.837649739599,103.235055154645,283.055540450818,45.1506497456668,820.814565264548,63.321802639776,781.549158398821,-8.19741983418932,975.773993931037,308.366839643505,176.34479508773,-22.5483064471563,1164.03205932417,-103.368185691909,354.676009273358,64.517550011816,608.926559782387,32.3303336884389,2444.5914458138,-50.8105423116707,2087.33177014334,90.1838053601527
237.695437355964,-13.9843071503966,603.817803800733,213.228263317495,1100.77934925612,210.77095407231,1176.65144575959,120.947653681949,360.471877249385,103.620595585393,285.555428073935,44.9593575479076,832.703815957084,60.0267652313305,785.387036781489,-8.62053594913651,986.699709059191,307.777751858781,178.805749650497,-23.021898378386,1154.45294666541,-98.5218125542168,358.260271077667,64.9941018567122,615.537421109723,32.8300077563399,2475.15286687858,-54.4564894145898,2106.27409315516,87.770663959775
242.051568338348,-14.8848963191178,618.698845626902,212.604690812253,1116.6891621207,210.151098491518,1206.89825932988,120.071612420396,367.547390417007,102.405375312349,289.123186706122,44.7331898265504,846.184156808829,58.5003129225851,794.280850369874,-9.20255817894484,1007.06585668597,303.204868748917,179.944258565369,-23.5443457803976,1161.55129643682,-101.192092708824,364.919825563395,63.5338315949009,621.684690915104,32.7049193016202,2485.92069410438,-53.3913337036724,2120.16274576047,85.5488504430126
235.321746615746,-13.807999597695,591.873538740541,211.805581453709,1091.44250823954,209.693316969073,1149.53250405792,121.471890413652,356.06820186333,104.194846972459,283.526062739963,45.4754046741971,827.277165371039,59.3379519390148,781.612135399462,-7.41772135667878,982.124156271377,308.14785086902,177.737762313621,-23.6435199429087,1156.96049495764,-99.8564259521982,355.865082920968,65.3252760856733,609.527549505473,33.5881727678921,2451.70616767928,-49.9931357787347,2095.21003256858,88.6350791194513
237.753685825952,-14.2148859371909,600.692661762389,213.302133895526,1101.01773428432,209.338187509258,1171.06456399994,121.430669998391,358.51581688003,104.139174275388,284.890756465809,45.3878840390849,830.650606329528,61.5778085920883,786.290337824203,-7.81575905267059,990.963961116287,306.418349626339,178.49561791686,-24.1228120594109,1163.71028039004,-89.5648915475469,358.51142474947,64.6028605128604,610.448290621874,34.279663498434,2468.0672782297,-54.3241779606915,2106.54338733158,85.9689662575961
241.008258054946,-14.3414127667823,614.470188636473,212.772435906678,1119.31517667943,207.76071073803,1200.10576259786,120.308493293342,365.689339041747,102.668590772321,287.821447031276,44.883981064516,845.510373533466,57.1177857023622,792.866202327187,-8.89338415254484,1002.3567732927,306.829759705366,180.894234246684,-24.3854585414271,1170.12743330105,-103.694794034414,364.10242058141,64.1046029178798,620.189151130041,32.5115441965703,2498.34726743452,-59.7854810353905,2125.25264820681,85.0923568765558
236.921948223572,-13.8899787326691,594.985650849909,211.774084738977,1099.50159837277,206.136337323309,1155.82201285583,121.012954795522,359.7035403181,102.437142104966,284.716558457258,44.8119653895908,830.726286767353,59.896340462739,787.790811107724,-10.3085874137499,985.985821587154,305.928361540543,177.919082908272,-24.01201133119,1165.11339769616,-92.2853989308903,356.443477861133,64.5144146118211,610.667086541919,32.948073703706,2447.50361961706,-50.2930570027097,2097.15011172708,89.6708523453664
237.084580563641,-14.0035735081368,598.635472688013,213.392939336254,1104.50567660495,207.041659908515,1167.97170795835,121.007086903903,359.787762546517,103.296217736236,284.842178918183,45.2688576686717,832.6439474015,58.9913518623551,787.239132441107,-8.77561667290587,992.852755486643,304.80999442168,177.150711011914,-22.8718610113047,1153.13053021934,-93.2949169758057,358.624897508255,64.5871256042226,611.570377195441,33.54177885731,2460.79864246772,-53.2417404325559,2104.87440566676,87.9407297329044
240.871340376583,-14.4397375228215,613.370274270939,212.358790669383,1122.05932719413,205.471933107843,1197.62378082089,120.310478049688,364.249184856665,105.056922001261,287.267898965451,45.5005779185533,844.095482247258,57.950341493314,796.253705464448,-10.8013948353112,1006.40100076041,305.260156959219,181.616124973099,-24.4068071364074,1158.25994710244,-92.4199213507647,364.045511105107,63.8476080200501,620.808327558821,30.8275109970181,2491.24714596586,-58.7431573792036,2125.90044694005,83.6327031349523
237.254201589267,-14.1574978075598,595.37743057828,211.642155723582,1103.73401483004,207.333593727494,1157.20792851674,120.192896576763,358.13941923789,103.39740743085,284.214969691911,45.5469899586748,832.943820395651,58.9573039798015,787.730361016287,-8.62540340431392,987.264886783763,305.704335294954,177.309009600291,-22.5364087157296,1149.40119046337,-93.744239887044,356.229135947472,65.6300231337578,611.813787337971,31.7398292556066,2436.3976449484,-47.6982777306825,2096.70311593464,87.5395137050383
236.584733394465,-13.8971379438747,596.496782178319,212.731171170392,1099.36271887541,207.652963546257,1163.64234570316,120.640563790451,357.965137944608,103.246081870442,284.735078194558,45.0996124514226,832.208640757723,60.5284741339813,783.253458420855,-6.35493508776538,990.740069213238,304.669588999101,177.391531432504,-23.7382052724428,1145.71906427042,-86.1163486322948,359.564410905506,63.2354972022006,612.594822108947,33.2837544494133,2452.50965424515,-52.5821956062777,2098.95002730322,88.5598269772126
240.511790966431,-14.5643281016663,610.727413530349,212.000954573467,1116.28668510055,209.792379111193,1192.83819306041,120.418664695663,365.700681901624,102.675943711963,287.021921058114,45.1010659011303,841.951553138057,59.3942195569129,795.461608890946,-10.8772848455164,1006.6058682212,302.384382491571,180.967395022206,-24.8078328732885,1157.20343912361,-90.416304594792,360.673274272179,65.9538679590369,619.91075839194,31.3949902249729,2477.75038240775,-55.7024004732569,2119.5887577601,85.1551147580821
238.633231786657,-14.2036209817038,600.529857360909,210.680298120053,1106.77739568444,207.83342714635,1164.79882229474,120.011452473588,357.964641744321,105.119642099242,285.365531701029,45.0365828073542,835.669189582725,59.4024660345866,790.808140892419,-10.3533830859138,991.836612025731,304.733858928805,178.230648648778,-23.5977179390506,1153.9389747092,-92.6698248066895,357.303856270499,64.3245239812891,609.989142731758,34.4977169627395,2434.07407599199,-48.6857207851563,2094.82148647551,87.6677818729275
235.281826098962,-13.3484923426861,593.736822268457,212.097623546132,1097.34909143384,205.491724747473,1154.15098391627,121.290298570885,359.242618468299,102.450600239494,283.864298425223,45.2102535844003,833.323872256612,57.8491479972416,785.976746400406,-9.9443381070047,986.223470864196,305.248862684313,175.866507234131,-22.4182913793711,1151.74158649228,-96.0074827065981,355.881219349113,64.9197042224187,610.644562703236,33.2254651233001,2434.0566581249,-48.8452188849742,2091.24449109374,88.0210705784014
239.172615256302,-14.5884777915171,606.184522037265,211.968942607494,1108.85150742074,208.820410945295,1182.14427350581,120.79165007999,361.119459578921,104.595003237071,285.736107018582,45.331988015125,838.793777266495,59.6235920087303,788.289426189478,-8.44240455999352,997.022861162074,306.822270526731,180.983833272541,-24.4073380574025,1160.41654506469,-99.2537432971958,361.435597404435,64.206042439759,613.25029831849,32.4744211829933,2460.50812055418,-52.1926074399182,2107.67451947027,86.0695548233171
242.580745727782,-14.6889923449601,619.366070865337,211.430375907636,1127.06849390637,204.726125143053,1209.10481798466,118.94551388128,364.409438936064,105.083158311957,289.084791063313,44.5554828295011,851.432865609467,55.0984257938812,793.363963228086,-7.78819418722695,1009.15198190788,304.100094563106,179.767257959408,-23.6325134002952,1160.54634217845,-97.5623344133602,364.579725838845,63.2169510154382,619.795766002064,31.0426931931925,2452.76887505241,-50.8063662587204,2107.56339615505,86.6358376636314
235.353287907164,-13.5108398949884,590.681350246189,211.360359970818,1094.92820827007,204.963354022711,1150.86373096894,122.158149585608,356.200145678224,102.961531802995,283.995123022905,45.3098191654867,831.112865117806,57.8096313979148,783.620094523824,-8.256497710394,990.419143998542,305.520394798901,176.858949067517,-23.1852045753295,1153.34869976464,-91.3768810979046,353.861655715474,64.4575274740977,607.975623864708,33.8365798323686,2433.71084918321,-49.8645966449751,2088.82659108125,88.062348274979
237.254942425416,-13.9691535845619,599.801835340016,213.209147360492,1101.72848064075,207.804553011996,1171.55914110411,121.405863430447,357.070560806136,104.447826115317,285.413032690986,45.1822384374971,834.53419407129,59.2036746093343,785.822241390108,-7.66964804559475,996.90480536595,305.071344263705,178.829767157129,-23.8488949166881,1160.5721929337,-99.4892988250406,358.149674504702,64.636820819263,615.548982259977,31.3978363423178,2454.09152516802,-52.5276055180054,2101.42275629696,85.9596701231859
241.202098622443,-14.544525788914,613.620491344599,212.25192180671,1121.15792607944,205.234667774889,1199.45052137681,120.711145471968,365.519421372583,103.374996318841,287.649240330071,45.363590176701,846.455867117463,56.4715460002413,796.759671380936,-10.2613522418547,1007.60147019584,304.885810916766,181.130974479018,-24.161073776975,1159.02704379999,-94.3840605731582,364.112654725299,64.3128216403168,618.064038501118,33.3394706914911,2487.51026228973,-58.1044797539033,2119.14600840692,84.2827771237074
236.9367283526,-14.0848646607848,591.893738981924,211.484859534607,1098.66574896913,205.490891529298,1152.09563858569,120.76083237075,356.632913661639,103.649635425593,284.449254401786,45.1813834293505,833.072663084877,57.2591233168687,780.266499844065,-6.56427010084336,988.428319079352,302.492036975686,176.604897166116,-23.082115793383,1157.50855952545,-99.5889895917848,354.347282031203,65.0713576376527,610.572460782871,32.8653280703233,2437.78131454443,-49.2243759391824,2092.89572481783,86.6840045987041
