481.058433442851,-36.6832865931831,491.920535300606,9.51364740849688,1154.88606665678,-74.1437341762608,1480.52296083695,21.5543559888242,740.60895718737,-1.33986179692071,405.713490383007,11.5268294245439,1144.17601344345,-85.5998254225496,251.352105457582,-11.1206095032018,1511.10850627517,-14.8171179992952,455.565589887483,-10.4526745552322,683.126457243372,-0.829957746763558,220.196502066346,-6.59178646016669,631.124278018009,14.89663573505,434.298176182066,-30.4225886665627,1418.10357508704,-193.841017391976
489.009608733981,-37.926442298133,497.59132358859,8.70470545205653,1173.48343508711,-80.6894265903423,1500.28171607279,18.2935736404503,755.443429865281,-3.41418309866099,413.474193516865,10.7212712801778,1167.60377443424,-89.7487957498628,256.322636534878,-11.7139307015172,1537.02016041268,-17.1900516780391,462.654044684831,-11.1832689963957,696.65108234518,-3.27474125182316,223.951122638154,-7.24936766029705,638.19745152158,14.8638008172257,438.45847343759,-31.4315549100726,1437.06924105851,-197.046301263349
497.884776926261,-39.5099732317025,504.200397945771,7.29365820601,1189.32260471518,-78.9627298175621,1523.01230561871,15.9034177158394,771.834661790812,-6.5238239302897,421.950968723095,9.61238130337759,1190.84776786769,-95.5832154785179,261.93845292154,-12.8180622483463,1561.27651402748,-18.3863434141003,467.991892181671,-12.4039159332426,705.622131018092,-4.50501092082476,226.513759110433,-8.35591264322369,646.340663179626,12.9324660548708,440.535521577763,-31.4217956491336,1432.75283469957,-195.962702423296
480.326970328355,-36.4346120254063,493.108468463203,8.79604698972324,1166.78086318425,-78.1756442243516,1472.35132370902,21.7534557215902,740.043264859859,-4.07076562949872,404.847359027205,11.5659000256225,1147.05745399599,-86.8695332594825,250.774497019505,-10.9582624219247,1510.98256941633,-11.830057561317,454.286801507206,-10.5860040198234,681.818641243614,-1.21222344920738,221.817882915498,-7.47236038251081,633.870575776105,13.5697312372296,436.416861025831,-31.0219748155645,1421.54820200446,-193.881801205239
482.050711902249,-37.0656057550166,495.927449478297,8.65415894274994,1170.22138036777,-75.7255861761292,1477.23039956545,21.6682940024274,748.341595775052,-1.50123588741469,410.046230953063,10.769727300765,1158.70768295985,-88.0115308023001,253.928546401107,-11.8862145257241,1527.85733099698,-15.4429416291689,459.987096967638,-11.6116630058098,689.692779029346,-2.59310604255441,222.048848023362,-6.90150823736881,638.530962629052,13.6545415009162,436.97762551553,-30.9058431562712,1430.49573927156,-196.914600741031
489.527242363929,-37.5338703538345,500.417809448737,7.86137217463606,1181.48347261108,-80.295429585679,1493.89881078603,21.1670612445986,762.23248255568,-3.9093874985052,417.364553107022,9.80440022599067,1178.61851920243,-92.5733597408216,258.92135799377,-12.5522466306835,1551.25834967198,-18.6480212337439,467.572788437244,-13.0996392351057,702.552912935774,-4.73348717496962,226.124369560648,-7.49207453285089,648.487039280158,10.5091803286431,440.660863396488,-31.8705182307131,1447.30134572339,-199.812041847067
498.819693486612,-39.7901374217467,505.665208772172,7.02841393639256,1199.43716269479,-81.8750366874777,1500.31804399417,19.8303215386669,766.249802292092,-5.9530739247294,418.916104969924,9.32392819485596,1179.97505763864,-89.9623910671068,260.715318852877,-13.1326784428897,1547.63822567566,-19.7774929820446,461.944420686645,-12.1035381512556,693.156498428002,-3.24100384894391,225.364902533655,-8.07568303995732,642.067752479101,13.2841431537593,438.673836040338,-31.0118127549405,1431.29988463872,-195.987009200278
480.462693075386,-36.2175688713764,497.316552323521,7.73862818103938,1180.11204728682,-82.1764741929686,1469.74185019846,23.3087193888764,745.939435955493,-2.89729045142536,411.004463102246,9.65127081120794,1159.63973754333,-89.0527385138067,254.158865818092,-12.0612499301545,1538.42489355213,-19.40222201705,459.133333916486,-11.4318996004238,689.593636296937,-3.12966902592937,223.144963393581,-7.20283721619226,636.398520974934,14.2539971212102,437.255152576243,-30.7590694829496,1426.88712216544,-194.832522100364
484.575810430069,-36.8876836252561,498.939666815949,7.92026647911961,1181.86631573647,-79.7554265102718,1476.90484749309,22.9787116871158,758.752863081236,-6.79252792794798,414.738742894445,9.71165525377824,1168.98962777085,-89.9836912250471,257.101114227385,-12.2142361358963,1544.5954154866,-17.8908663000094,464.455386715083,-12.9847305811958,697.854760718792,-3.6695705005707,225.636594121113,-7.79587067069241,642.237437782211,13.1040821045317,439.399824288963,-31.5280626041727,1437.73067323875,-196.771182231292
492.685636731039,-38.4595483921819,505.022662985126,6.5445440787297,1195.27754148078,-81.9595062630784,1495.39073867828,21.5513169576171,774.546705887335,-8.21292169189306,422.518905291058,8.3583755552917,1187.05673517044,-94.0975091506555,261.232792697119,-12.8498178814877,1567.70645417829,-21.8758803164311,471.418126639581,-14.1269849523949,709.790451823384,-6.26261326393523,230.345732720573,-9.09601722960089,650.167166571679,12.0521985080615,442.7526366863,-32.2961079797277,1455.78010066186,-201.440901328771
482.064140525235,-36.5244579865784,498.502426434304,7.51749816380748,1184.38776792576,-81.9727858860571,1465.30902510291,25.6890971332974,749.920575134494,-4.71039018354102,410.650628296863,9.77095335066383,1163.22269007865,-91.9879767775939,253.789062829263,-11.7745139524277,1536.59108505288,-18.5138110389867,457.943660568178,-12.079968547966,687.938847879836,-2.95464152808597,223.276066103261,-8.26388702859737,640.693588244688,11.3828182641642,437.406271304199,-31.2059043492487,1423.51483834275,-194.269035638749
479.294201373917,-35.5163316428706,496.21333015831,8.37003730872285,1174.36419663769,-78.0106474449486,1460.91664673326,26.261717191722,754.171990484938,-6.73908193096285,410.8511412668,10.2009516788208,1165.50938261129,-92.2938922355458,254.542358708354,-11.9907043464834,1535.75694065294,-16.5806519443403,459.359990603295,-12.1806312693099,692.127988543751,-3.45024894048661,224.069463532456,-7.58877325161528,640.079804951103,11.7698240606314,436.74312200861,-30.9298089599222,1426.04000293708,-195.081207157221
485.654352278322,-36.6427617493673,500.805910944869,7.14131083073849,1185.42903693037,-82.3014679594549,1476.99204153604,25.4662491697529,765.653923476774,-7.84167250820876,418.269451618325,8.69948596224048,1177.83448503614,-93.0272191890546,258.756752785016,-12.7523596844503,1557.83100050042,-22.5983429578708,465.912778918281,-12.767782402287,701.997901409455,-5.08198257849333,227.79005468658,-9.54127819082467,642.226368721817,13.916678855397,439.770800024338,-31.7842537792586,1440.81472979782,-197.996040374681
494.585012373278,-38.4373868034529,504.643465374851,7.08141933157015,1195.72493333917,-82.2109269313129,1498.24361302593,24.0912690694524,779.449442587918,-9.08037943577307,424.647879630011,8.2055388402221,1195.10053565804,-95.0823087740583,263.585373674158,-13.3371808260487,1585.22422821261,-24.7683583378325,472.63409575974,-14.1944552113141,714.876447060951,-6.81307459616403,231.639027151503,-8.51634901124702,653.171186058157,11.4448348914732,444.872954296473,-32.827248664573,1458.05438425231,-201.655938602947
479.289440170415,-34.9271410617981,496.501531345021,7.82347787028269,1182.78503233301,-81.9330357548566,1459.78721589878,28.5764160282724,747.974244157326,-6.05101467286121,409.764778853934,9.29117554594877,1163.80202992811,-94.7589076618783,253.604570724039,-11.8755472219868,1535.29116854447,-17.4679947501853,455.267384636222,-11.5215525909435,687.107396529453,-2.93936520062813,222.591205144254,-7.42144533606128,636.560131448201,12.6408948032923,436.051739335355,-31.0285897506229,1417.19103891058,-193.335359551275
477.084993149537,-34.2713897008814,496.180517500064,7.17291018786833,1170.48440895669,-79.3585174080847,1456.7121133541,30.0467739015651,750.495644849714,-5.86025402882098,410.161419634697,9.78487422599006,1157.97155266575,-89.7942708943356,254.523686817049,-12.1157214444174,1536.76118963991,-18.4032287025181,456.762281467672,-11.3896900389119,690.391325056124,-3.06148878284835,223.4829776022,-7.84443187579576,638.325051923532,11.1766853661759,434.242383094432,-30.8909498323203,1418.8860002318,-193.59524717402
483.83630053669,-35.4657298715843,498.743116933956,7.55859296234883,1174.53124817061,-78.1198988038335,1473.71871490753,28.7562253746856,762.878459725563,-7.65442517476774,417.001430950431,9.17797558889016,1175.83255710388,-93.904843466441,258.843848478213,-12.8187227738275,1551.88661277116,-21.5788766988319,462.880095799529,-12.2669258992748,701.898979153623,-4.97623300065264,226.938566331868,-8.34795957573725,642.95275754582,12.0457302243386,436.129683108615,-31.3467915484094,1434.26128807936,-197.503623452933
491.589019278144,-36.5458532301165,504.286670616648,6.37203234386352,1193.67415846918,-84.3214462816137,1494.70581066784,27.4946109306967,776.118711760071,-9.68979298194715,423.399563318656,8.14889941458031,1191.59042309477,-96.566456459913,263.129209270199,-13.3742497161561,1574.29068900946,-21.917228159763,469.700472601789,-13.1510466169157,711.988174926564,-6.60389529670314,230.959829318138,-8.84043901097435,651.620084388868,10.4753559199787,439.995435150484,-32.2340143087523,1449.99993648968,-200.954995230984
492.560817433309,-36.51203621398,502.40084830006,6.7783729771486,1194.67572054912,-84.7794273598113,1477.70887876694,30.200801085592,757.57515135468,-7.09514306907854,414.836149698623,8.49523586907318,1172.37674478455,-91.3888258099642,256.539767318657,-12.431154397093,1552.62903842674,-24.7601550488674,458.179622960982,-11.4872610348027,691.534505746333,-3.28487802977301,225.197537827352,-8.42151795102332,641.731906794085,11.9450942249663,436.335711614045,-31.2420720284536,1424.24803806866,-195.644868916003
478.163831575224,-33.7829650385018,496.033090085333,7.66691898453515,1171.41951344245,-80.4496045274171,1462.7051974427,31.9847205286997,751.807822798098,-7.59160848960553,410.751436934505,9.01349139224863,1158.90416963036,-89.0079084204912,253.978172898434,-12.0550052418297,1537.32176484643,-18.9041458834465,454.88359604482,-10.8698437134946,688.622514277997,-3.11275109465066,222.502003335187,-8.01732818841754,637.02970368663,11.7314790813797,433.491015174825,-31.0793670832669,1414.3405295886,-192.903097378035
480.836483585448,-34.1128315887913,496.668070529489,7.98836121309026,1171.59215400709,-80.2277789355627,1472.24501571628,31.4473321938161,757.503962669702,-6.59955385974928,413.779988931587,9.32876704066123,1162.58357283599,-88.7964141697782,256.606455202632,-12.4218377746485,1544.89137570349,-19.4090552404478,459.241468790381,-11.293416812609,695.97341117281,-4.66967456665807,224.27170461022,-8.47220011299274,639.552531788071,12.4805676047066,434.972711277937,-31.4446361020045,1423.30737564122,-194.84376026414
488.185130731174,-35.3670465257327,500.285086751568,7.76498371254144,1183.47810936482,-83.0256812004818,1489.6775679136,31.2013729260421,768.458722282478,-7.96003567293064,418.997060023348,8.88404435615399,1182.60104991942,-95.2564347429885,260.096007202494,-12.8629191052185,1568.79358515347,-24.2612401563344,465.435353589803,-12.387797010744,705.492289608897,-5.12092189629157,227.380467082501,-9.20985462132447,648.563529237797,9.24380349059511,438.698864768594,-32.2655309735251,1439.52949842462,-198.556112430383
484.707257558236,-34.3161263389374,497.90027684306,7.20745105406369,1180.19552054179,-82.2683639930323,1470.47790275716,33.8752168762629,753.239901498312,-8.85931119668393,409.065609110277,9.61688704023247,1159.05009777697,-89.6734707935938,253.624709035786,-11.911515364562,1541.49190568431,-20.8891846659601,453.569354008929,-10.4725256979495,686.382138853464,-2.75387287820427,221.870157257415,-8.13463801688811,634.341927883558,12.0298777517811,433.139161363826,-30.9242941812235,1412.95664945942,-192.926383482775
474.460019596508,-31.9193068310129,493.032171998946,7.97103866575089,1159.20883708471,-76.6861763312297,1458.32643442033,36.2974874542047,745.706364392615,-6.64623990850904,405.800979092684,10.3341702437245,1152.39909792316,-90.0961334554561,251.786840109921,-11.6316507374065,1530.14094786499,-20.5553184165572,450.807826992025,-9.56707333318565,682.474934987742,-1.45721625724259,220.030024170812,-6.92634459644363,625.489700082749,13.9297078689757,430.334182317248,-30.6819941520306,1404.34622007184,-190.945258660117
478.815440208614,-32.5732058414667,494.559858521943,8.08106179954558,1164.0082389007,-79.9792382859523,1470.21377322571,35.6917658163166,752.047813958961,-6.44441714619978,411.204276804231,9.73068864593442,1160.41317973442,-90.7295687745094,254.776839616731,-12.0837283838236,1535.41208349724,-18.4707649386634,456.454982113643,-9.887146371163,693.021460650526,-3.67047102969149,222.282728932404,-8.34484625602398,630.678515611947,12.7189558195184,431.84273176587,-31.1094442446095,1416.53625393909,-193.648133372075
486.948852486853,-33.5096123768876,499.407800257204,8.11609911053848,1176.01710640428,-81.4738819220767,1491.63368572378,34.5128308097745,764.314788373326,-6.93827702170295,417.675786309415,9.05176300221856,1174.16618381731,-92.3304279587583,259.134862729315,-12.7429072242576,1560.84764818851,-23.7050147027327,462.868302020554,-10.859371280087,703.406522524776,-4.82546359166801,224.512778262665,-7.88709118825655,638.59402540218,12.5542131851633,434.424554891162,-31.3115125168493,1431.89930958623,-197.045517212367
492.935243924301,-34.5342915753612,502.479607683378,6.96745205601754,1178.46069426341,-79.346205151408,1483.92389523557,36.0200532391201,751.409148569497,-4.06664682117464,411.411338396805,10.1153854396748,1165.48461345503,-90.4178288274526,255.712964473692,-12.3029112488403,1538.35616101869,-17.4897701977255,453.311019652468,-10.045290351453,685.421165669786,-1.85106524965895,221.908527037725,-8.52407169390792,629.032606037538,13.8144946098804,431.071540577652,-30.5534229809213,1412.33777511772,-193.361619126732
475.722735528331,-31.2499689937599,492.560323510139,8.81987316783624,1155.97805500155,-76.4010976064856,1462.98968017903,38.5896062931635,739.002596308811,-3.1465490637762,405.101013449545,10.6946629733859,1145.57916102278,-87.7582709323316,251.588388309486,-11.6490248856602,1519.81067503019,-13.6022968106132,449.325473746316,-8.653852976758,681.072961189122,-1.49957173751477,220.01188871895,-8.04214871634703,623.719547323961,14.664270113903,426.54862820277,-29.5221711838749,1402.80701947322,-191.17241895988
480.320934286891,-31.9656070347554,494.100416879707,9.02327482639502,1156.12737688902,-77.3335920613127,1471.23867725104,38.8362048393468,744.609065319054,-4.14593585356217,408.456499053082,10.6516690416017,1151.01305379509,-89.7835218234245,253.483046045397,-12.0223206785912,1529.725567247,-16.5423219654721,452.96294137436,-8.87022006230216,687.904642859734,-2.70627961719078,221.244788196965,-9.08343896802147,626.941338304975,13.0300302595737,427.802400536481,-29.9131528194147,1410.09706338175,-193.574168437533
486.317729225273,-32.4570808012441,498.288994977558,8.18264763761787,1164.43382973884,-76.2140686637778,1487.08281069893,38.5836441133241,755.883874032153,-4.99400901203344,413.425914646953,9.88017930511628,1163.15069889728,-90.3106291076103,256.631351460474,-12.1457177285928,1543.52433141721,-19.2979138026279,458.842894519109,-9.61541516643097,695.698783459144,-3.19290206996414,221.711179333656,-7.65203534160046,636.365059757217,10.6310796183578,431.987882495497,-30.9811915807415,1423.26972455585,-195.36005618992
477.181797001506,-30.7531544708139,492.523664648656,8.49522500708536,1150.8573012699,-73.9318403367556,1462.52830251738,41.2007934760872,732.41921995526,-0.803631126224157,402.054115282458,11.42217869373,1141.7610702618,-86.7883799656096,249.393709452425,-10.989045064283,1511.19194053579,-12.9190009827217,444.115498342928,-7.34034487034446,674.234478380837,0.0596528582454451,217.866833016861,-7.18246169892525,619.404827587883,13.3222928178967,424.963500170109,-29.2876898231618,1393.48917799095,-189.225550972859
475.257755833692,-30.2499537938761,489.859288094766,9.36066922431776,1138.10592270421,-70.8519766245922,1458.82761026742,42.109060356019,734.70250869621,-2.97503274208737,401.703814878493,11.4496837007387,1133.47630891099,-84.9424252877585,249.277187204735,-11.1983900824076,1504.60650151363,-11.1061149582893,444.830819311327,-7.27321373637189,675.918255090765,-0.415249923052443,216.730104572207,-7.89918139228956,617.525488228576,12.753293666755,423.43144906127,-28.8769840668313,1393.75941362684,-188.948072309311
480.416271350472,-30.6702213896144,493.144972626958,9.48228165911975,1148.65617677532,-75.8286136035466,1473.13789548988,42.0623494158254,744.569945894644,-3.94603194375049,407.496317682025,11.2538327423635,1147.87235702234,-88.6431879011094,252.993295038589,-11.7133307835299,1513.4478819596,-11.2601763511944,450.846053431197,-7.75429292891629,685.440950838269,-2.02947601393548,218.791987023699,-7.85273343678417,622.140255398243,13.1787307708483,426.67483959603,-29.3882376447585,1404.99544240354,-190.841692136549
490.157456243759,-32.9660744571682,497.808610959949,8.21493603565576,1160.30537773365,-74.2882056674298,1493.87287315712,40.9954965912503,755.03460194201,-2.99461646640465,413.139530256192,10.7706130969019,1160.50788863833,-88.6980535964224,256.742608398459,-12.2838945412994,1538.44464148223,-16.7475801515155,457.053981191619,-8.62246621623834,695.913699741336,-3.11022175461371,222.060543906893,-8.16571018078939,631.99133747311,11.291037380782,431.410004879221,-30.811182741962,1422.71369169388,-195.605973585703
487.789271476437,-32.3690989365746,495.430371610496,8.35812353991536,1161.10424688577,-76.1116555264603,1476.30561789207,43.1534169947536,730.376500212791,1.06841872534721,403.119613572297,11.6253045976412,1141.41448969276,-85.6679455614826,250.507767479315,-11.1591087301654,1512.79871814672,-12.5642450819154,445.642630448671,-7.03840402607267,675.295039256997,0.171352735936524,216.960061577732,-6.48588526326149,618.133091280649,15.675791003635,427.122522475417,-29.429462559545,1398.95768116824,-190.393263436346
477.972019897811,-30.0394489889525,490.842412070176,9.56462034825035,1142.56474384129,-73.2057767264652,1466.6920265095,43.333823499895,724.882630790852,1.57868687729632,399.839941128481,12.4375026852437,1130.21082449246,-83.2173203135225,247.898647440693,-10.96884525998,1496.02904346008,-8.74585203418268,442.822499808522,-6.34289701914085,672.731834491196,-0.124899414119517,215.872369580832,-6.57144968754485,615.029689622668,13.8150597095267,424.617363800482,-29.2359700325676,1392.91623829756,-189.511763982285
481.872283427564,-30.8040750631781,492.749693481641,9.16585803203512,1144.28182500136,-72.012764943971,1479.02294261345,42.7876387796225,737.599905678293,-1.41396302023443,404.306996576737,12.1070145625517,1138.30788526128,-84.5286791699692,250.17747725176,-11.0543445402433,1506.97677519126,-11.0456492696333,447.80702439703,-6.65703125943897,678.985251982139,0.310736688083856,218.516549566451,-7.48415354426422,621.953524292543,14.9054579964096,426.198290965244,-29.5034172037927,1400.91559863228,-190.964330154299
489.695637586275,-31.9113295920416,496.368843890675,8.90404945044407,1155.15749401409,-73.6201280013318,1496.47164850813,42.0270497021393,746.718305676511,-3.18728480346736,410.120646350853,11.3734453674248,1154.23528745441,-87.3265591669933,254.379193271985,-11.7047849344841,1523.34854860689,-11.1436320486916,454.036068278169,-7.61050277695707,689.536524031916,-2.17038734753953,221.758231114041,-7.42324404579792,631.11449747091,10.803170360785,430.121237619921,-30.3186495515564,1415.48107622617,-193.859893546482
487.08874498737,-31.3023972742216,494.032559813869,9.27081475520723,1154.01136546861,-74.3492159852954,1481.89180149555,43.1257163557234,724.989275429286,1.54744688886496,400.893388947611,12.285489548914,1137.08320715212,-84.5143212762256,248.606949209066,-10.9363271268437,1502.76085580181,-8.15719207423993,444.488240304161,-6.81463257269407,672.36961300442,0.58470930907684,217.415452872192,-6.67746045264017,620.213926421786,13.2990516787921,427.7582315448,-29.754004953145,1395.39000337534,-189.406943156632
480.888702078284,-30.3933090067647,491.196488177938,9.63913668970999,1141.72432905196,-72.4275605324299,1474.10924771876,44.4752185388473,727.217670443005,0.0641288855065202,399.666893688507,12.5461522201004,1126.02790672841,-80.9066542760875,247.843401370355,-10.9963589457621,1490.24089572895,-6.00872443897392,442.785380262436,-6.36840572578663,670.262798736325,1.29829434122235,217.16134436294,-7.12649984998592,621.360259123621,14.1408380695704,427.47268224469,-29.8094342333478,1394.31611818806,-189.585537465997
485.01942909235,-30.5410970072407,492.265769411572,10.1121930688151,1143.47056792385,-71.5370531913004,1488.81330508521,43.2633117327727,733.270290752684,0.142344684239877,404.756247067102,12.2856381437282,1140.4260509118,-85.191305993721,250.28395529847,-10.8761346499653,1500.78223899212,-6.72164087917818,448.614216243167,-6.75175249829454,679.955839979544,-0.460080373516198,220.349950179371,-8.32170424610932,628.575554735085,11.1090351893449,430.122344749847,-30.4113404464792,1405.70702510501,-191.486189820711
491.770017088267,-31.5013052141359,496.461480766337,9.72648310429544,1157.34237278313,-72.8604444542635,1507.1493877637,41.1654625467997,742.882015164006,0.214300209864572,409.871106200348,11.6992772341983,1155.66306621277,-87.2518456944202,254.999238107577,-11.9248692157197,1526.46846361448,-12.1108527986735,454.840362171593,-7.91720697593395,689.412051028158,-1.3602677410225,223.274648724154,-7.68538656551666,633.051854052014,14.1578078261522,435.009190285528,-31.1497941976092,1422.51772536347,-195.506443084965
482.619703248395,-30.3641578532037,491.600860574139,9.55260688263282,1145.33107749426,-71.7877381278859,1478.30924547106,45.0385776125574,719.865880238601,4.30757719424335,398.236855023239,12.5427864941077,1130.468950028,-83.3034232044435,246.740829067711,-10.5229588133691,1495.93055799011,-10.9830737484216,441.16475239894,-5.7911994612335,666.576300910828,1.74513954093229,217.066976422042,-7.05379489841624,624.30169048442,11.8225108791842,430.544820624015,-30.1462699489166,1395.77755222496,-190.020061152177
481.748075615238,-30.0454030564834,490.648918008705,10.1980449375835,1138.95847495355,-70.2870878219333,1478.46594069529,46.1834425007751,722.291692723341,1.65772116580471,398.496017015085,13.2276227905404,1127.59035097605,-81.6387383782945,247.598279509994,-10.7633177443526,1493.76328353236,-6.89736269227103,443.460774377901,-6.09693931034988,671.010643944267,1.50795771506333,218.728903504867,-6.60798651285105,625.535267407078,13.0899811236607,431.395622429688,-30.5195112909946,1399.7194010552,-190.308445632824
489.28993771425,-31.2034879010058,494.675230910742,9.45094287319807,1149.55118900634,-72.7497068424579,1498.64626529435,43.6995373595742,739.023601334658,-1.48162503402877,405.111213386717,12.6278154400623,1145.80037196323,-86.7352159481758,251.854507530289,-11.3930151757022,1511.62684353618,-10.7952112044959,449.958090694715,-6.98802979235574,681.441974954486,0.470629951090885,222.778068897292,-7.97979587569599,634.751847287919,11.0840296432851,434.862548033769,-31.313771927592,1416.60373316563,-193.926434077629
498.439127652771,-32.9660185795793,499.432564169918,8.89366240233307,1166.9007579013,-74.818094307403,1519.09620933404,42.0978575898622,748.902600064807,1.01048642697977,411.457271717886,12.0268424220634,1162.97374884863,-87.3069031732561,256.066408945789,-12.151198954899,1530.51237404714,-12.4983936330158,457.106920293924,-7.89528450301336,692.140641475908,-1.15880347694184,227.430985429611,-9.4926557441854,641.766575575819,10.6376197291006,438.859612828929,-31.9078563618212,1435.38545838977,-198.153334582535
489.887289443716,-31.2813409878297,493.428836263767,9.78429728447496,1159.19227941062,-72.0552024120924,1495.26038611607,45.7145429054858,727.212932191461,-0.299987854370995,399.826265945593,13.3175344124254,1140.43904840398,-85.8916147519067,248.599069707669,-10.8051696239554,1504.23998174837,-7.81074486850425,445.183681704427,-6.09940329388066,674.065970764086,0.220753223199302,223.862875122196,-9.01107855216742,637.40447165434,9.82550537484607,436.298697495626,-31.4470404584253,1409.36092206767,-192.553498887328
485.75821409399,-30.5625580286011,492.236140602679,10.233929898046,1148.38657109957,-69.3054466179299,1490.59329099481,45.312621086407,720.664745953427,1.9827252923992,398.429615162442,13.3574681462593,1136.51311135398,-84.3436191883809,247.64163097292,-10.6903141900952,1497.59770343948,-4.41997968748259,443.828840562901,-5.63680917963497,671.068104272246,1.43672819174264,222.007242261125,-7.26590266668801,634.016245409187,11.8761364338373,435.530557432596,-31.4097636026361,1409.17292981393,-192.655076416248
490.647364588687,-31.2767152295898,496.066717968926,8.82945244520171,1156.35475922956,-72.9915950781543,1503.1528026071,45.2011320008638,731.962302552252,2.52027047229701,404.161555034306,12.6848730692387,1149.55396083693,-86.5340872013283,251.62926377735,-11.6067260498404,1509.74376358787,-4.33141846106018,449.645070640116,-6.29361181110597,681.704044682193,0.214632046691902,223.993448971635,-7.75020135757215,640.09534302977,10.2656826523133,438.334612080336,-31.6617460653378,1421.600521526,-195.288471527662
497.593043450909,-31.9812759161324,498.926046582159,8.93926893469902,1170.15942147267,-75.8061529577951,1522.45745026916,42.9209869106517,746.279236118385,0.103124324301175,410.016369065533,12.0448705008148,1163.25378765927,-89.1102318785678,255.108122575796,-11.9540454708824,1533.08279778127,-10.8946401638754,457.166170573571,-7.6550484579675,692.393869748398,-2.13662984152406,227.173941267756,-8.36130231499281,648.647034733077,10.3433423888788,442.367951870491,-32.4947261715769,1438.4807019414,-198.743486256056
488.360436762834,-30.620754117964,494.167380766356,9.85569447528031,1160.43509795523,-73.8095130767359,1498.78271148401,45.9896511306662,721.714510965869,4.21923628833712,399.036330953088,12.8887244151709,1140.57981767646,-84.9548399034214,247.894907150219,-10.7072477314884,1504.85391912726,-6.9857716891859,444.260092699242,-5.88192385837563,671.277225861999,1.31310921032787,223.666009293195,-7.76447688457534,637.569934072474,11.313752166046,438.019382067085,-31.5596707153604,1413.11019920611,-193.698473872363
486.853352592957,-30.2855637590745,493.150008068126,9.57926173114886,1152.56205864572,-72.4490813080792,1496.07583280702,45.8159713737895,723.106840543279,2.98542279059041,398.230837578957,13.7787682257464,1137.76207440128,-84.1125256023848,247.93794221509,-10.6421689437678,1503.06337098708,-5.72934288350425,445.700387088484,-5.58253442173025,673.761089744908,1.31063789525205,223.118169888334,-7.5846981898228,638.73625088207,11.3780035879871,437.516197440877,-31.5170115848616,1413.66448688606,-193.260714367998
493.343675928519,-31.2654804782047,496.88678889448,9.65702275061004,1159.8828140688,-71.7845062828872,1512.93344236836,44.5404292126991,738.824719790535,-2.33117412928022,405.162728869764,12.765992368039,1154.97519172325,-88.0784664588294,252.067358309051,-11.2185144640514,1521.6680574275,-9.86951190790227,452.339550641472,-6.80325804343644,684.816106088501,0.0468428200794263,228.045948049151,-9.47454637205156,642.704906925494,11.6370652958762,439.611646248266,-32.0844437437184,1425.84095058679,-195.352628196822
502.41818128114,-32.9640014489593,501.246318132243,8.62611128447997,1175.05067144865,-75.832327881869,1535.48233064586,42.7576886930525,756.026894033951,-3.99598752630061,411.402397872308,12.6182741563531,1172.23308184721,-91.7681424024036,256.815849995864,-11.9695282805166,1545.86442738667,-10.6772752420719,460.191477592172,-8.00437886726494,696.936759002892,-2.02564842250499,229.066549368541,-8.23229972755899,651.539329188704,10.2990319150442,444.474747691195,-32.9702170472798,1446.36307120832,-200.085313079463
513.088654384928,-35.4266383802147,506.485219208952,7.75098628040283,1192.77036862214,-77.5198009090311,1553.53687819173,41.0569485646224,755.729118168399,-0.230562258706326,416.433520218723,11.6156162157562,1184.55658738026,-92.041727049676,260.616415145945,-12.8340726317846,1558.70550117798,-15.7928435039802,458.608496413533,-7.98811630748071,693.741534993291,-2.15786537817653,229.203164337214,-8.59131135915905,651.318467695767,9.25408857605929,443.434112210479,-32.6679424778094,1433.5109477127,-197.86600038918
491.944998620478,-31.7180615969962,495.007627956209,9.39877810339653,1164.57853652249,-73.8712074667236,1508.81241646964,45.671102334037,729.324084890438,0.416681138332034,399.48014625138,13.8779406185402,1146.50595842436,-85.4408353855342,248.663703821092,-10.7904789446463,1521.6116504854,-11.4809878174651,449.860123840506,-6.42457176388585,678.151356862547,0.283092591455076,225.665336232047,-8.05574975323704,645.712619707492,8.45781944368512,439.012980497947,-31.9281188967082,1422.87441202803,-195.522425340504
495.013460387626,-31.7466976028155,496.354210003164,9.25000281951424,1166.71876196299,-74.1490288611579,1520.85163305965,42.8683554826887,734.148426813548,1.70485975051893,404.853495787778,12.5706504805309,1156.39521800152,-87.9226644754461,250.827932799798,-10.8644818491366,1524.6282779988,-11.0364755175581,454.583142276024,-7.08174020059364,685.271876541524,-0.886010316083455,225.228093845922,-7.12146429594144,647.440645429625,7.47366963341635,438.970175581956,-32.0176925264241,1427.42597071193,-196.413063580323
503.629360550885,-33.190420963091,501.288555274962,8.70152467064689,1174.15181322002,-74.6655420580621,1540.00106051161,41.4525909165175,745.653845894235,1.02058267344109,410.793155319852,12.0511888805973,1174.91980543576,-91.5641892850591,256.16184658903,-12.1992668545199,1545.59886562785,-10.9379263677619,461.842589308182,-7.97045278075976,696.608731543456,-2.86883791640374,228.581015673345,-8.44960261115585,650.861950215352,9.06937870989326,442.33577789262,-33.0111635792724,1442.82921380898,-200.34714662042
512.550588247061,-35.0208986219955,505.486424091356,8.06029563375185,1191.50147781842,-78.3018011634111,1548.84854947445,42.2394387288197,752.839446729286,-1.29411102761456,413.385898354268,11.6005097889988,1180.5790250025,-92.4719945589424,258.366700112879,-12.5758700849756,1543.74102259516,-10.5398273908094,458.651959858072,-8.01137933913377,690.144701454273,-1.79261720891307,228.238182547407,-9.45140790331414,649.463535837609,8.21282291644891,441.514306771826,-32.504978434447,1429.13323280887,-196.498336079569
494.954201446114,-31.6795050538353,496.529579397547,8.7029245044942,1163.91781225675,-72.9958463655909,1518.80450779749,43.5218070577268,730.942528063388,0.558947706246545,402.540096670513,12.9481405326859,1151.60999058881,-86.2240198546044,250.066388233089,-11.189974106563,1523.84475923202,-9.82135521499828,454.006549154744,-7.19041153961498,683.096412626688,-1.53421104018324,224.013247372831,-7.66902486850623,640.15444790298,11.5040171837879,438.892918067383,-32.0284614304346,1421.1630837069,-195.60809450194
500.029158495693,-33.3919316576052,498.117377414318,8.63546556427171,1169.19571800619,-77.0656180558871,1528.81985747643,43.2345719990705,738.854129459587,-1.10797079106237,407.088638910719,12.4815025718492,1157.37411460934,-87.9699283166319,252.96166047036,-11.4701375382837,1534.04821812655,-13.3996160497279,458.486773673913,-7.69616647678883,689.75650929247,-1.91697338146758,226.322216504051,-8.6916856116007,646.12702872658,7.64434536089094,439.34384425873,-32.1068316301479,1429.06182858304,-197.42269688755
508.287090416764,-34.2333397476333,502.442195413101,7.93293273225975,1177.04959743459,-76.2326052685311,1549.16007655676,41.1406127901468,754.039357576306,-0.471334667481596,413.920526511614,11.7527837680239,1175.97916255636,-90.7191132585334,258.343229685774,-12.5928072820589,1553.74055720188,-14.8338739353927,466.41974855705,-8.94065317583881,701.694128539106,-3.96913921119903,228.907321258527,-8.46591952268936,655.504678805547,6.0695229927146,443.159868548847,-32.7104342675896,1445.13996364945,-200.151334001089
510.22506468319,-35.0328013874391,501.82807409295,7.84936731919745,1180.77958069064,-76.8077051599325,1536.34200097514,42.2433654804129,736.073659306189,1.78450607851336,407.23180846196,11.9875965004845,1166.50602644725,-91.2897177726221,253.812036994511,-12.0732696468273,1530.70688364119,-9.50821484199476,457.226308410827,-7.70353074028765,685.435809794733,-2.07519625661787,225.873538040155,-7.91863162077253,644.05006874154,7.59322151642035,440.300059102772,-32.281295526756,1423.57539784225,-195.534097858353
498.428719218499,-32.6977514497595,495.864315680255,9.40092588990328,1164.08780382917,-75.0377616558778,1525.16102560004,42.7335782757773,735.54453082173,-0.413898003730998,404.329221969375,12.7419760251786,1153.23656430877,-88.2728205649828,251.749507506026,-11.6498543425054,1522.44066198429,-9.05852395936195,457.433600301371,-7.90358240886885,683.361442225938,-1.19650782253632,224.398432499536,-7.85385619827583,636.770236928728,12.2314359256876,437.966702935169,-31.6316359335191,1417.62068460309,-194.016104561431
503.865384224456,-33.543999914953,498.130094417666,8.87994230859351,1167.21917066067,-75.1758969394302,1535.71496938274,43.2249086324277,741.330333731516,1.53032825410941,409.451492644207,12.4091546431956,1165.87191552851,-89.6136811578911,254.943542941481,-12.2333107572647,1536.11678714269,-10.7787672106054,462.889812277957,-8.23271399267344,693.817100530061,-3.18980710077875,227.678112745389,-8.62251454661845,645.414978823481,9.49678527915339,439.770506792388,-32.3708436510093,1427.61348487705,-195.59088965336
512.585240275737,-35.1547502819523,503.209379129514,8.01749171466809,1181.11480868851,-78.2268546466445,1558.83605458906,40.7289510620606,757.71395816978,-1.3519538577768,416.128710100936,11.530213751614,1183.64419633785,-92.852940990617,259.612467701888,-12.55313861907,1560.38086303969,-15.8943185818802,470.173182858498,-9.66735497944115,706.409827317002,-5.09454795235469,230.539548708588,-8.81128658174971,656.612439382543,4.72362602598576,443.345527807023,-33.1207981885117,1446.46229362279,-199.960744100598
523.291585274697,-37.5042100933522,508.665329429092,7.11111606571273,1197.47560696898,-81.7170012376275,1575.48927472874,38.6443199727745,767.803177224949,-4.38192065512822,420.7506658849,11.0818527391168,1195.24154687709,-93.9803766692553,264.730956048296,-13.9524278916126,1570.06606124979,-15.5994359147223,469.237698071729,-10.0704475159102,702.825009774255,-4.78660674241695,229.608174607252,-9.29326205205565,653.198960547167,7.66575389135897,442.366645797956,-32.7646072482344,1432.08794505493,-196.446515125903
501.877780148038,-33.5185415484774,497.403060623277,8.45484145465056,1167.97492935852,-75.9033314019241,1533.98706750346,41.9826442265229,738.46344475711,-0.597586811458171,405.715261496357,12.7957059857392,1160.51115853242,-89.4380153618362,252.685510008963,-12.1276407258146,1528.24931143814,-9.85728800673462,461.54204421225,-8.63988156592024,688.62337474705,-3.02584112514705,225.747243699252,-8.61195642250587,640.731774212059,8.59929986665535,438.238801848665,-32.063316200396,1421.68005799083,-195.415530863039
506.868498701836,-34.598271079078,498.485708239964,8.67300911712047,1166.88744640356,-74.8138863473114,1541.42300672896,42.3978127922241,747.722436001276,-2.66192269186881,410.251340326211,11.786530826256,1167.65747884077,-90.6832232278946,255.124287579533,-12.1675575909215,1542.86737308153,-14.1838712566823,465.8036190514,-9.32915981579236,695.423787095081,-4.36216671637069,227.475742664621,-8.74533340536176,647.493505018217,6.06277147941766,439.236933483604,-32.4570123014577,1428.59015086571,-197.009542703807
513.88746597876,-35.3896990989218,502.836835139332,7.96214435078765,1178.00047843157,-77.7333582686239,1561.39806479074,39.9240730329521,759.370077327521,-4.94172956500244,415.910945876003,11.6563812253276,1179.01442080631,-90.3523141221967,259.920685234288,-13.1168204440075,1561.75096861433,-18.526811909298,472.248332269765,-10.1409435546595,705.993894929029,-5.70744140139919,230.274513876111,-9.141975252819,650.300106607894,8.75039446087452,441.81647846719,-32.7124669285482,1442.80510345457,-199.045015032816
523.436220299157,-37.5673626758731,508.280837900074,6.86892464417887,1194.23024473009,-80.9384367583947,1577.12537146059,38.5279914000094,770.440079099994,-5.29291189606089,421.060546917245,10.962883027158,1197.60579619169,-95.2145066315621,263.614100229412,-13.5592772760821,1572.74932942094,-18.4156488771237,471.401554793147,-10.5254879198166,703.919209986541,-5.0609578963255,229.550535181834,-8.78887301282509,652.186283287729,5.74474386660863,441.682334800387,-32.5299218438199,1431.02376293679,-196.834733437199
505.256883084635,-34.4238408791238,497.767942700614,8.47320923241037,1169.32654682872,-77.2751288914101,1539.26968189482,42.4738770878707,740.719427451628,-1.51390285364148,408.398092606327,12.1078009391367,1167.1399620968,-91.7776163373839,253.897189168922,-12.3206263382978,1536.35409640059,-14.8939676024993,463.622762863939,-8.83568100032444,691.366495581685,-4.11866999286425,227.360376296715,-9.49737175905948,644.451332079124,9.24423105396025,438.894111523969,-32.1365430058306,1423.29482570421,-195.57109991942
509.112126806163,-34.8452293826521,499.74961242924,7.54771807961937,1168.20606689255,-75.0351020234612,1547.30722438131,41.919338773375,752.957275890038,-5.50628779354232,413.125409519772,11.3246577345257,1168.67101347277,-91.2470888068061,256.622346422117,-12.6457424444525,1542.89999290592,-14.7389569132273,468.310002761809,-9.7455091004828,698.742646625495,-5.01637439461356,226.840288581339,-8.61484685635716,648.360416477936,6.89787886366989,440.554124752131,-32.851557236759,1430.63721386135,-197.169802305547
518.59541414129,-36.744748249387,504.421970304154,7.59217923158742,1179.55533987426,-76.9486785928957,1568.97329164234,39.3016792707174,764.458907960531,-4.17999880437649,419.162057011072,10.9773317882341,1191.68614777572,-98.206897240357,261.214887992787,-13.2838808642632,1560.76981453699,-15.3737868854791,475.43123022819,-10.9397880239787,710.501164103669,-6.41667616057455,231.489011068309,-9.11410181349396,656.144153903652,5.82346899954034,444.121199091968,-33.212324852376,1447.99528662566,-200.957298922936
527.372049790088,-38.121209759048,509.711490007216,6.72406381959522,1196.10231183648,-80.7727959013419,1592.35552958768,36.1371651951935,779.322673198423,-6.57561640091722,426.339308384049,10.0778193878154,1210.03351046402,-100.718093155467,266.672842610594,-14.1955008838948,1585.18421498162,-17.1779075263186,480.395714854714,-11.6028076664696,720.29839461068,-8.21693484566504,235.060037397705,-10.7829028379491,666.953572027879,2.85574465792377,446.839900138092,-33.7648055223853,1445.46982262018,-200.266870090436
509.779274580888,-35.3103740655214,499.028057726824,7.73325565589305,1174.06409955111,-80.2474260118397,1544.73405096321,41.7748338443687,744.516582497015,-2.90625497319095,409.855691598636,11.9234841454247,1169.93872459308,-91.4796738998867,254.813319867617,-12.5282589542136,1536.07488937454,-14.291795777129,465.991107162616,-9.51851000319148,692.383278676123,-4.39801837521473,229.03398768967,-9.61512048520408,646.421460986582,7.39867112192966,440.194333373651,-32.1233762772861,1425.03870374179,-195.284172858223
511.343809872728,-35.4618429392425,500.166419147548,8.04501460518304,1170.96872085408,-78.9689720798295,1552.48181355411,40.9150884095033,754.422706324631,-3.85872021081224,413.442332672029,11.4550254170519,1176.0520637794,-94.9551396216332,257.402565862405,-13.113533016576,1542.19512129915,-14.1455487610063,469.400000911892,-9.61884568122964,699.417749914634,-5.45641925163751,228.029417396325,-9.36452595279056,648.203688991287,6.43100164753838,441.153859641679,-32.7182184103822,1430.87887075222,-197.117001662082
520.317636173654,-37.2662551292187,504.663373078603,7.88157188128153,1182.37448996505,-79.7149048190406,1573.08464457027,39.0656991602922,769.446985180528,-6.68773218364803,420.912158669092,10.5137553081807,1193.07928588437,-96.6285152132601,262.275978067667,-13.7880113049245,1563.41607098977,-16.6716420011069,477.218265598851,-11.2059252611973,710.712449878267,-6.72413603746889,230.220486159858,-8.64608628880721,654.000770388674,6.23272259234973,443.290564524065,-32.9548406747491,1448.81950019798,-200.865398336095
529.880859037561,-39.3797037782572,509.818717234605,6.7293201073243,1198.99881898171,-81.3032209255156,1596.72295838345,36.0123515378301,782.418184799326,-8.63997748634903,428.440517775557,9.14117153979016,1210.06690898509,-99.757543350518,267.633832755929,-14.9584780424431,1590.27347400785,-22.3222929195158,484.238719917691,-12.1058923932154,724.793912830623,-9.62133582383919,235.709762183657,-10.22735628578,668.265707231794,3.27867257457362,448.523321832,-34.1147600659955,1463.36477826342,-205.180450282117
514.293403922873,-36.6167994777881,500.887629488119,7.84787821138844,1181.76128716479,-80.9959444353545,1554.48387626508,40.1313193962288,755.006203552285,-5.14040862622297,413.604444812236,10.8123699501324,1173.07855657394,-91.5383692791015,256.4260609644,-12.8383871157319,1541.92425423509,-16.1662502989247,469.070478322562,-10.257397148393,696.253093550491,-5.43492008976801,226.742536766454,-8.8281015494477,649.40859273523,5.23149811726485,440.101974584735,-32.4364576979188,1428.16693596473,-196.702040361979
514.518504467494,-36.6064349401452,499.761543536229,8.07552522782989,1168.89313390083,-75.0379749597308,1557.78282146057,39.6447094371432,757.145820558852,-5.60234278279223,415.162792760522,10.9008435163048,1178.04873115591,-94.7109790994301,257.33081389715,-12.7797698564809,1542.61935220289,-13.9942358376498,471.51953974157,-10.3547850738647,700.900772170235,-5.82478706211717,228.426937055794,-8.96403380414375,648.801098212199,6.31157143995943,439.794365840125,-32.5843570330628,1430.89115057006,-197.129391223121
521.679883609365,-38.2194165512884,503.278594804569,7.51464479578558,1182.94639294413,-80.2263647560142,1574.53466209694,39.1269738889147,770.2085465865,-8.21018281038264,421.259316743867,10.3444110989906,1190.5023845324,-97.0434483791189,262.377879251932,-13.8022100053068,1554.2363247408,-13.2406972099401,477.560420342419,-11.0041264531089,711.448372112632,-7.29189726056281,230.42617567352,-9.3018056629241,658.791797698404,2.11183175854329,443.128826926427,-33.291580900354,1445.31110967193,-200.822283010682
528.289022519582,-38.9192979512102,507.056320539842,6.67972275696663,1190.92402172767,-82.5153025723957,1576.41824750281,37.3934819667994,769.485972345919,-8.98727708970249,420.594335459872,10.1652694671166,1191.6235867719,-95.9720724994444,261.616550909673,-13.9061389662415,1550.33495174773,-15.0902365506037,471.387528088666,-10.1901703680969,699.30001947989,-5.22184078189763,228.454687087175,-9.0185791821845,649.789966246513,6.27876620459453,440.536218107065,-32.4571149453928,1427.92192347925,-196.087472724675
510.599327115568,-35.673822711153,496.741733008556,8.47828153420813,1166.61724036912,-76.7432169894019,1551.48737334291,40.4184265992032,756.735635273996,-7.21361359564684,413.302426887219,10.6462236296268,1169.80754240999,-92.5871134202561,256.569677594064,-13.4240554154118,1528.51838351534,-9.09455659826115,470.295357740103,-10.8464724504756,696.588468770148,-5.5667468618428,226.680869885165,-9.24280027629368,644.61413963918,5.63843738457797,437.831471659449,-31.8857633434237,1419.8992416513,-194.883372338489
516.466750608733,-37.3523210470104,498.343324373564,8.71913158047869,1166.91672102423,-76.8745473801139,1562.54828710997,38.8279741832793,764.23125551186,-9.23428456656535,417.31194127647,10.50888781244,1177.24122107434,-92.498777544818,259.487610930978,-13.7855779621453,1539.99641724652,-11.889178413453,474.263402782048,-11.0613870543089,704.073510027084,-6.25577682698201,226.635522998316,-8.21154842889478,645.106918408325,7.65261317203618,439.163064593699,-32.2526889730664,1430.05487807826,-197.491529743256
523.899546164828,-38.0212575053063,502.957080368333,8.19949299977064,1180.14989983029,-79.9697675115588,1582.08401818089,37.1795242492533,779.213817306157,-10.3818385929108,424.223673228383,9.58913209460823,1196.49546168087,-97.7783412440222,264.224654127711,-14.4526571337137,1559.35881251372,-15.9295669822494,481.646982868024,-12.4587138933163,716.218219660874,-8.7228821233794,229.68578730553,-8.56036376137501,654.973273232394,6.18878734105494,443.309077203807,-33.3332873085091,1446.2560833567,-200.699608497618
524.165004299727,-38.7395711263479,501.766248711313,7.58485854013817,1177.90983160972,-77.9468962558942,1564.09587397148,39.3949824890592,756.115066046974,-4.65605893233543,416.517486076754,10.2418439026576,1179.31348505554,-94.7443338245916,259.025084387143,-13.6138403750025,1538.48923549153,-13.679385448353,471.864529062934,-11.0300306656919,698.726435419967,-5.99384598453197,227.706478033403,-8.34617440579595,645.496751941671,5.88728175551691,439.231780733175,-32.2097057365662,1422.27882354578,-195.786249970102
511.499983478348,-36.0329622382154,495.672901919614,9.11526235407447,1155.58689748778,-73.8795056948393,1553.13290091083,39.9678612521244,753.447873331485,-5.58146475177168,413.002303740647,10.6263048689447,1172.72352996545,-95.5497115171258,256.838334371751,-13.4135587746811,1525.54814925711,-11.151306169074,469.32760931739,-10.269710857426,695.599166795301,-5.4058646616049,224.190491642862,-8.2154405992977,641.29116387317,6.38572003613995,436.115812342209,-31.6770655171408,1414.74104117313,-193.552329282276
516.874182793407,-37.349951535199,497.16835707568,8.55150884122982,1166.75773307269,-79.535740414388,1565.69785971395,38.4641264178995,764.865136049351,-7.6538825933937,417.867128931061,10.0854398430201,1175.39664899534,-93.8769533957483,259.641925379772,-13.3993052389472,1536.66647984657,-12.5102072414521,474.959323205949,-10.8494715500157,706.303461642004,-7.33834075925649,227.057193799063,-8.61813119410098,645.259620355302,5.38460704021545,437.141584402574,-31.9291276066529,1426.18933106731,-196.110182382928
526.160462264919,-39.3600008034408,501.552613519604,8.55892220539574,1174.20669397671,-77.003392281008,1586.15159292995,36.6001562758207,776.561318367694,-8.93454433709812,424.587979905863,9.39754826616328,1194.74985128935,-98.2230767568588,264.885232970469,-14.7129801731905,1558.102731886,-18.1973128507935,482.206656940004,-12.1611625440855,716.452902292273,-8.67187863945479,231.795420811595,-10.2121296402293,653.554639308341,6.43691797346712,440.803326211158,-32.9868574954242,1440.93219322268,-199.151012981937
525.904535802971,-38.6947388419685,501.650486054819,8.12498889382857,1177.27172262253,-78.9559053440946,1571.1271737562,37.431420040208,762.86868708079,-8.85671238582612,416.86131932225,10.4662344727982,1178.11686217327,-92.5415320144556,259.302589327903,-13.4938392687071,1535.39306498595,-12.6354183632176,472.338024663214,-10.7526526362678,699.896671532151,-6.82875344323381,227.427471236135,-8.62686811158614,647.292716426647,6.16230356320174,437.489152847943,-32.3989043255891,1420.26275429183,-195.18221841048
513.513774138788,-36.4294097044172,494.73402222842,8.88058331376573,1157.23580968187,-75.9409418288496,1557.74244841632,39.313654729908,757.95878101393,-9.91492307755659,414.25582234148,10.5584650290064,1169.70730175946,-93.5697040053566,256.76165831121,-13.20388609128,1520.30964061173,-8.9794065213461,470.4242169808,-10.584202680733,696.12616724224,-5.43036924232617,224.391228116075,-8.3407570295225,641.015692523506,5.94717733319101,435.216591992627,-31.9446573230018,1411.90817721613,-193.794629753064
518.623319107157,-37.5296511763693,496.189028535173,9.17681471146562,1162.56096157233,-78.03483222741,1569.44886081431,37.7210554930787,763.149541422549,-5.7820465034914,418.801162793189,9.82307271448307,1177.93180708783,-94.5774244322993,259.479657557704,-13.4262351687403,1533.12186759554,-10.5827586775856,476.172556754003,-11.9152226221547,706.58233389985,-7.72213567071483,227.26353904293,-9.36923717666016,645.132629762484,6.54214931603426,436.963779993311,-32.0429177400555,1422.44255626303,-195.571503461875
525.729677916287,-38.8485966923669,500.677533918361,8.53621603031079,1169.60830237942,-76.914105871134,1589.12824521842,36.4875977352261,772.725080597177,-5.76849158937767,424.908130546036,9.41065432877457,1192.07817628035,-95.8109640776536,263.745275037183,-14.1374025402344,1550.13514433162,-12.8949953301358,482.75649316005,-12.8257289722062,716.913196211353,-9.17153911823338,230.20638120928,-9.13004398515298,652.49009460218,5.97217426907186,440.706703226146,-32.7646343089082,1439.22767700929,-198.646775467087
515.064542340474,-37.2467793563705,493.82536901037,9.01313634055835,1157.15540542774,-73.8416057245978,1558.07889598214,39.3205084786326,755.160647089268,-7.14317133332246,413.309908018216,10.535610505168,1166.16073044723,-93.6877558503554,255.723895495065,-13.2219756003665,1517.67237697599,-10.2833027110383,468.067831707741,-10.0973301736013,694.002342915677,-5.70586993010994,222.373727409823,-7.86634759686044,635.628980285448,8.60648052940314,434.025521753372,-31.4135436988304,1405.01179502071,-191.202370544956
513.887402905883,-37.0556919296977,492.490070743548,9.1783930932365,1150.09842413221,-74.0717478753676,1557.83463687851,38.8565792195239,756.964558563687,-7.54027663593172,413.769605840082,10.828874878587,1165.86126509462,-93.7826728725207,256.129289466997,-13.2712683485785,1520.44879224044,-13.1686490365808,470.192345565827,-10.3164513698572,696.524668589229,-5.91574233087781,223.434415001456,-7.57224136979248,638.52875754407,6.49943195190847,433.566184065722,-31.1364234253633,1408.00278729496,-192.138054772162
521.569448740077,-38.2032160777141,495.867556121142,9.34321933696193,1157.50645996741,-75.4430864699433,1577.64648791073,36.3644883214079,769.535976114313,-9.26201490008763,421.050811609332,9.72068810803692,1176.81108201514,-93.2728374370751,260.824464926128,-14.1085231655896,1538.35854883259,-16.1667251609136,476.825646677106,-11.3224114082407,709.190366041249,-7.84800620337638,225.685880046887,-7.9498887591088,642.891676233198,5.62864874391127,436.992310658918,-31.9034784424651,1423.30362922367,-195.681159617577
530.587962778618,-40.3358399687847,500.961390562798,8.41788022180629,1169.47641691542,-76.4410091737077,1598.60774805301,33.6501859586856,782.649634263237,-10.2078285133537,427.817980139334,8.65412221042687,1195.82387128439,-96.9860499439945,265.395889041164,-14.7011291954769,1555.96311160308,-15.409492188176,484.037970192038,-12.4561495650462,721.214539185158,-9.86270115802608,229.677757894428,-8.98208901709613,654.713072275461,4.46599043564853,442.133650441486,-33.3504543511451,1442.53209377392,-198.977793355509
