507.807457611414,-42.007408141211,491.822721201317,7.57042425470438,1162.50107372849,-77.712238270917,1565.63597858165,12.1836954732256,755.906105819094,-5.41261496741016,418.43958594142,6.93868445133259,1177.47100118053,-99.6208536535159,262.657736483049,-15.7789593988068,1563.82063233595,-22.4009707734482,464.339102865048,-12.1691891164236,700.361871009372,-5.66633551379338,218.079821455083,-8.30435955995618,633.02807348066,10.0556556875558,436.513938480863,-29.9265534517144,1413.60248236954,-193.122064778801
513.900813490308,-42.7253839797106,495.087346676614,6.5157244499324,1176.28923516882,-80.8865072688164,1582.00529276806,11.501929851212,772.916518632898,-11.608996233398,425.366682541532,5.63689873561276,1194.06098471243,-102.544662303524,268.089050213011,-16.6015851060263,1580.69425984098,-21.765994772048,471.676150967714,-13.2459584772158,713.550875171805,-7.55102622841441,222.07128411834,-9.73296503143884,644.48208591667,7.58564229301587,439.146959866025,-30.1917172619453,1429.56057641283,-196.85671498401
523.130169498809,-44.6311055944172,500.090184300451,5.75167596708208,1192.24230585065,-84.0218799758407,1604.27380433245,8.98729829571421,783.959749894452,-11.2615919618645,432.306768205615,4.90316234459423,1212.70841707027,-106.885837564224,272.74897236321,-17.281234464236,1608.88884188396,-26.9488841817807,480.744646687324,-14.7922009365117,727.376618931469,-9.83049776150053,226.955206219596,-10.5421923561441,653.452112894309,7.71566641958677,445.178618106475,-31.7908211248561,1448.90997102403,-200.942754941764
509.04729598976,-42.2383253817496,491.069937995778,7.21524711803017,1168.41600140285,-78.0574522261378,1564.12188837794,12.9787008201183,751.819854744017,-7.33115288326102,416.513104992775,6.66872979363604,1171.99516309829,-97.0844088069064,261.216636924961,-15.2760543839509,1556.76991567754,-18.6486765475646,459.208440970517,-11.1695341843579,696.411987089108,-5.76366964471554,218.078818447874,-9.52385913994937,631.007148871719,10.7588929681646,433.979530439928,-29.6386378356475,1402.7064304887,-190.612385792628
506.846070494785,-41.5360189280287,489.562239396212,7.96507453067012,1159.43247855476,-76.9641539540719,1561.55899571976,14.001945877353,757.349538723369,-8.89930348444985,417.488654112208,6.53734140370997,1173.62703824505,-100.76761178933,261.667305810789,-15.1301821511607,1554.14646054097,-16.4045655928903,461.890648921009,-11.491724865495,699.895387672775,-6.14257218386241,215.962538281266,-8.72939081709371,630.768393632164,10.1477517488081,433.353836513484,-29.4922731828555,1405.78267860597,-191.645727892132
513.698235587542,-42.7375899607794,493.447554353459,7.81086984914299,1166.62758908468,-76.5045176879683,1579.25879647293,11.9213153025538,765.933524632571,-7.076529641878,422.430865916795,6.58229828367986,1186.61993720346,-102.233646515655,266.474198690176,-15.9897940144483,1576.46354674523,-21.6684838617018,469.083225098011,-12.6516659198934,711.105837732154,-7.05966468974271,217.987694766926,-7.56288391307099,637.303642447081,10.2287986844969,435.644907249162,-29.7723250293194,1419.50919181366,-193.929707288554
521.885830199133,-44.5071964536764,497.53622678092,7.09989768215571,1181.89948343991,-80.3864195101131,1597.95498839956,9.90948134725177,781.819487473871,-9.94593044865419,430.827128437431,4.81742548866872,1202.63618898247,-102.980937105587,270.67502454986,-16.559759008659,1605.12574355363,-27.8767102015639,476.598074926818,-13.7875683684164,723.356964518678,-9.16597557530879,224.227830728123,-9.73868069981918,649.198034377412,8.00436821570352,440.250376949812,-30.6641465490001,1432.70688021218,-197.154938242517
507.761916232041,-41.7974736904157,489.472770277931,7.57108927774448,1159.69182312784,-75.5477122181261,1560.54758068695,12.9847164513299,751.827421245227,-6.21644369330472,414.378767257632,7.44764242905518,1168.23293315178,-98.2649063039552,260.666102720234,-15.3188596290531,1555.72742220825,-19.7459216084591,457.456040143713,-10.9769061806763,695.111853132742,-4.95246858085263,213.446013627616,-7.20217772400626,627.888329219878,10.95930123,431.551110666418,-28.8934294914989,1399.11324363153,-190.291682616865
506.518902939433,-40.8361135326259,488.528217076921,8.25351983408447,1153.84343664444,-75.1315453608547,1562.17235992034,13.6660523243125,753.908377120414,-6.99343503608735,417.646981489046,6.51624820948205,1170.70137972431,-98.7271219120773,261.830908386885,-15.2003679379632,1554.88619511667,-13.8025643489548,461.261212632365,-11.3548913894566,699.953047519812,-4.86177099774595,215.317675635825,-9.03877034993016,623.639219324628,13.8248177613994,431.548699149805,-29.3608124294501,1401.66532114522,-191.125831195021
514.18982257243,-42.5721614222601,492.646827124145,8.39646761283249,1164.46374918289,-76.4452794168578,1579.96782011813,12.2475916709369,760.585630926389,-3.77512862357145,422.764079973937,6.85497810612697,1185.05400429595,-99.6143965139717,265.717211672326,-15.3155856699536,1573.8382638112,-17.5155299105353,468.59096645108,-12.6473922072438,711.005104727455,-6.75492581801279,217.507904765403,-7.82632146213921,636.749176797826,10.1960102163228,434.389390883017,-29.4760517085919,1417.60650416311,-193.29401544519
520.648536539883,-44.1480179968824,495.398899217254,7.7949450963981,1172.81769311487,-76.7073515296406,1579.32383056483,12.1778235193021,761.571343684285,-5.90284474263528,421.331361962434,6.334148578681,1181.58426792842,-98.9140817692323,265.589040117878,-15.7646920099313,1567.97348805632,-19.7522461886007,459.118377902259,-10.8082488236403,699.525860665209,-5.12755775877282,214.41692047353,-7.64092708518744,626.5015979805,11.4132502622813,432.070839865114,-29.1789124463022,1398.40003057068,-190.009158027354
503.060492011262,-40.6716704868386,484.790355523551,9.6911206457514,1145.69865359634,-73.6170184311004,1554.00641990904,14.9739347035236,745.946094075432,-4.30062561089463,413.292105367419,7.87188917577845,1158.30471260445,-95.6393524612628,259.752935793408,-14.8693280745944,1548.07550053151,-17.7065336846913,454.616901105636,-9.80241060846867,694.588372895713,-4.54988043533701,212.011356667499,-6.9408663394177,620.547728440019,12.7182735761203,428.047058931391,-28.5028820709091,1387.54239527341,-187.200740959424
507.617865556277,-41.3827503932228,487.693755850354,8.56839929353078,1143.01347863907,-70.9855985735918,1564.75645111471,13.7610482407028,754.48344106734,-6.18725743309551,417.38802839799,7.59849909150011,1165.61074521895,-95.1150030540672,262.379403578505,-14.8359304593799,1556.02723684633,-16.5211999075032,460.988829646601,-11.1040152782363,702.772272728368,-4.47565211806179,213.041187836248,-6.92671954462266,624.250407501182,13.9520789268285,429.55231407579,-28.7144449071521,1399.14968802026,-189.623056743449
515.933280810311,-42.9271116403584,491.845662728849,8.30591096096168,1159.33113408641,-74.3231393809661,1586.34207598511,11.5220361193073,770.324036001683,-6.93612131896716,424.110407286675,6.92867407838259,1185.48494581847,-98.0469181391539,267.350696936454,-15.7583686280669,1581.64755670953,-21.9468547586294,468.769642267157,-11.5551303234709,716.774818919178,-7.10211200479589,218.788933729023,-8.10854308175898,636.409570440373,10.8984415388553,433.620556710593,-29.563110250854,1417.80851591249,-193.129846955937
525.277658181006,-44.9539349245137,495.586429909497,8.15849789803934,1178.25449378703,-77.3757724816271,1590.45964346033,11.0993850029413,769.654607902992,-6.34545973140832,424.567137150555,6.50868612317557,1194.22864327488,-101.508493132148,268.604796535879,-16.0092386301367,1576.99130047031,-20.0067878224701,461.66210063854,-11.2669249624392,704.313880936798,-4.82079875030645,214.564565242792,-7.41038894747966,627.866877665705,13.6234360961636,430.876195949729,-28.8565044244693,1399.04853471647,-189.375133002787
504.591057528041,-41.2599631670752,484.223986995099,9.73636917593558,1141.18908506464,-71.0460233473844,1556.50704903097,14.6623202602883,745.317497133792,-4.87248463739109,413.141533857353,7.93431802642539,1158.7137538726,-94.7054261432948,259.079262588072,-14.3049476280367,1543.60739119324,-12.8596120185038,453.954137674475,-9.427190417437,694.548082002952,-3.71312691478204,212.682978622913,-8.36148770603688,622.423499188262,12.0928831901795,426.478030214269,-27.9823193101464,1387.3224009603,-187.386215832168
508.118037875968,-41.5061469032304,486.336638193446,8.87941459525087,1144.82385505496,-72.3142657740432,1565.43106516978,13.8478329573254,754.359003773401,-6.08983156005478,416.681927969842,7.57496659045914,1163.93864501127,-95.210745151611,261.791892310758,-14.8521778854611,1555.83610293733,-18.3580428368706,458.30664504388,-10.1141973188297,700.461664375213,-3.90435411367707,214.059634132647,-8.02031444235903,624.438633270522,11.9047612006876,427.704466085461,-28.4485398832924,1395.84836485576,-188.286081104613
515.41134970044,-42.6045846868843,489.17401534551,9.15903922339131,1154.42591127909,-72.9484577067652,1584.75799132949,10.9180133798269,765.830491157941,-8.13986541873624,422.831019115496,7.04640264948334,1179.81081047104,-97.4515361346672,265.813308678923,-15.3461285760027,1573.54130456679,-18.8692784844573,466.894977245218,-11.5895161835306,713.152198685381,-6.07797806613373,217.593140751746,-7.78658028803406,633.25491474295,12.3458647521542,431.963814390057,-29.3890936329694,1412.28482246828,-191.738393983155
519.521051098702,-43.6804563146411,491.772378513076,8.46212272054313,1164.84182723352,-74.4346745908704,1576.37223538585,11.5018210242187,755.836480919053,-6.1871162080144,417.842594755585,7.30558642810891,1166.90613633323,-93.5981332934902,263.115001646084,-15.0701699575261,1558.40739266065,-16.460983302241,455.208309238326,-9.55522124351335,695.863239969572,-3.41259736562447,213.209857999625,-6.89947456010663,620.649101565883,14.9537391222901,428.441360127782,-28.3311876942972,1388.98693948809,-186.094178489625
504.436808104951,-40.6199486467653,482.028901258202,10.729991089499,1133.96400644322,-68.0785411864872,1558.34478394828,13.7370068826005,745.46902122511,-4.62352136632011,413.315971892498,7.76537684058022,1152.99973073815,-93.6037153271719,258.447659699443,-13.976906969795,1545.12450476905,-15.3410269671853,453.830214609643,-9.53851753603761,692.504524226459,-2.93578935528862,210.080095363076,-6.34390113665129,621.333649020846,12.8046742305116,426.367118260355,-27.8306118850076,1384.46550511979,-187.122945213411
508.753787003181,-41.423202579393,485.390187644317,9.50897004201739,1141.24806119281,-69.4745440805843,1569.29912743886,12.9168387678201,757.084275418912,-6.93098815284036,417.959535222552,7.52346662113873,1159.02859787339,-92.8052324340161,262.478086781905,-14.761800952569,1553.97069378169,-15.162238755783,459.425299181474,-10.065662850533,702.150676151958,-4.14500144608148,213.392221741269,-7.10907829945606,624.942921039426,11.9775604911768,428.515982797422,-28.38518866859,1396.05042793789,-187.803415012998
517.682695018581,-43.5321402457797,488.275048107602,10.0724253707663,1155.80680291169,-73.0080211412687,1592.49231524913,9.21744301295439,769.289408474692,-6.77366822267696,424.860392120809,6.15847893412723,1182.22514926733,-100.066710789943,266.990131495568,-15.5394843752107,1585.65947645328,-22.0413409627364,468.216134245165,-11.6024465596486,715.8947707044,-7.05443673212479,218.044401425426,-7.52611545311198,634.886643261823,12.4241847535029,433.176137392015,-29.081329790263,1417.96625980245,-192.914739981692
522.142075428463,-44.2052015776219,491.498706178754,9.0466720816409,1172.92426591062,-79.1228251910471,1581.76296619237,11.2171614664713,760.241628805539,-7.99081793047946,419.793421448653,7.02282033176365,1170.50166180718,-94.2787073775189,263.922574549029,-15.0939890874414,1565.40401893376,-18.0505332452,456.729359211145,-9.86014994468722,696.977799811163,-3.08136598714363,213.105833180889,-7.09625465512395,624.659319754772,13.6884354707641,429.40272563827,-28.2349960191006,1393.33529033953,-188.313132807884
504.423001722615,-40.9556246204968,480.810022387016,11.3213495161433,1136.67112615088,-68.8497527236245,1559.74527220213,13.0998398025589,745.38382503619,-3.01624449111171,412.904078497613,8.24127386188191,1152.47546345364,-93.4625303697839,258.666616050205,-13.9535017024809,1543.58952393043,-13.6808825143803,453.236841320881,-9.33040674180828,692.368097276588,-2.62654852328879,211.60947851041,-6.87206251534636,617.835219503358,15.1510801211293,426.824945446075,-27.8487991461508,1384.22832762794,-186.182581509098
509.413739184181,-41.9397460862434,482.752193064242,11.0759378876431,1141.47982602348,-71.6513146910753,1572.3492597817,11.7478613242725,754.938918166926,-7.00548015018614,417.638377558529,7.46212903370277,1159.59280571641,-93.0016309482462,261.608290531544,-14.525887148353,1559.60709518863,-18.3492665491975,459.038424328205,-9.60709007688358,701.869678668231,-4.24106222608544,212.987302796109,-6.92507373042124,624.014850344965,13.6660680382499,428.76429344395,-28.4905504907462,1396.89780082664,-188.423064772439
518.297397380405,-43.3520305000228,488.626680936575,10.1345131453445,1159.20627552624,-74.5324400372043,1594.24282748639,9.05568825717315,767.616777676829,-4.86530351518434,424.765590805897,6.88710516017616,1180.96087800793,-97.4928275333501,267.001652195149,-15.6420636168762,1577.56834419849,-17.7982716330551,467.5493862318,-10.8348386693414,716.116182620561,-6.75389690295438,217.470050913788,-7.17738073449023,635.189052177499,12.144274403368,432.946148159143,-29.4637061315288,1417.95506832874,-192.931231077643
527.913797489182,-45.8232962398525,494.209102295299,9.10936143583453,1176.49095657258,-76.1238046806793,1599.76306643888,9.20576175011533,774.527171649517,-7.67145126284215,426.007424008894,6.5358428410443,1187.88829984468,-98.7979714918705,269.17070037777,-15.923369740363,1585.8138855666,-23.1373247850568,460.61175928987,-10.2032156876036,704.565671912726,-4.10503755367476,214.418577561173,-6.57645128794866,630.022887736366,14.5022254111795,430.311789877161,-28.3911214880428,1398.51457314389,-189.116130540993
507.107673247205,-41.48962223896,482.294185356695,10.6930282705691,1141.64393206349,-68.8654836744759,1565.46052811337,12.5666258060236,747.455464627565,-4.42200799083685,413.775058170803,8.04107923121168,1156.75837408477,-94.2429178354595,259.024330152856,-14.3195555733065,1547.97281694802,-14.3309435619889,454.704844681572,-9.19959227212028,694.592290293335,-3.21535750146825,213.98770714439,-8.64114842959384,621.507140100136,13.1044283243631,427.256613967998,-27.7082136579511,1386.83450652598,-186.1830203503
510.429054688139,-42.2929646024866,484.186568656912,10.8441355534732,1145.06068818098,-72.3714578696188,1572.79523113729,11.8247113550877,758.198744799446,-8.21441302105273,417.695158844113,7.54953036535261,1156.92426134571,-90.4541449724289,261.527734148357,-14.4878943306718,1560.81758683328,-18.7789976204944,459.556234178953,-9.99694583339855,701.797484897985,-4.51547368940239,213.282943961036,-7.03529308052169,626.501895638921,12.9295340623191,429.374894948313,-28.5344730747743,1397.10723856486,-187.754509197375
517.905722209323,-43.8945653079506,488.050243365647,10.3522009036239,1158.99585158774,-73.3334609544406,1591.25492750695,9.7344854037908,770.068125322446,-7.51922986595195,424.318332063318,6.739568683155,1178.23515765817,-98.3974203797757,266.243311202037,-15.2285209847048,1573.53682172423,-14.6435635324344,466.789805407165,-10.9596549399493,713.640068980934,-5.34248815428054,217.742627037329,-7.89291704974059,632.796914671273,13.8707408311375,433.379140874921,-29.3062820612855,1416.67909946641,-193.195707238351
508.098879571726,-42.0826776026995,483.246902584471,10.4607038876481,1145.10575413582,-73.1869451624776,1564.12444806579,12.2751054439707,744.916229743336,-3.30679470045498,412.779743127402,8.39627792318379,1152.51474535441,-93.257574718506,258.360096120241,-14.0543250584658,1542.97184298849,-13.3021496109232,452.364403640553,-8.76899990747351,691.7916405242,-2.85949863900196,211.002408270911,-6.94591189208027,617.247769835167,14.4830548475147,426.489455112559,-27.4965487998573,1382.7612500214,-185.843478412772
506.121395779089,-41.8528470386349,480.752727645343,11.0228259981456,1135.60874059809,-71.1587915118841,1558.10198216423,13.5607112155777,746.651143226238,-5.07983076264521,412.731364205074,8.24967748658928,1146.98761113216,-91.4613007390776,258.092944236249,-13.898601895261,1535.20583822257,-11.5687320931178,453.317504674554,-8.50032804268521,693.616145478419,-3.15815151471268,211.399895797321,-7.77996807689677,617.785777983646,15.0311156292815,426.360771306838,-27.6475056801004,1382.69185584981,-185.163626640398
511.57227852376,-42.5105727410268,485.223147592138,10.2373143781654,1139.8885057697,-67.5131522446182,1573.32255386471,12.4548083152508,759.248791992683,-5.85872037061795,419.054149069103,7.37920243711206,1163.50031244684,-94.4430429793461,262.823377999138,-14.8776815188976,1552.69324394113,-11.8507738164697,461.150731000415,-10.5338616715284,706.012240877445,-5.01768178379631,212.779984445067,-6.88834068223468,624.668157532581,14.4319661235113,428.986087180683,-28.165266261433,1399.1525609075,-188.944942686509
519.121196374861,-43.9235620849897,489.661977730038,10.0245901615272,1156.8049876584,-71.9748574747658,1593.08402586703,10.1902800054961,773.28062651831,-6.88315614143378,426.140961421922,6.39021201233805,1178.96761985828,-96.2034478810739,267.475176174626,-15.5678938974741,1579.83321362207,-17.6052903719403,468.212086627,-11.0784053878484,718.555952851221,-6.53382787171782,217.426314466863,-7.84637410736316,633.622972258854,15.001995550552,434.398437104532,-29.5903252016165,1420.22507146152,-192.956682969908
506.126191485743,-41.5279264100677,481.36676477607,10.4798168990634,1141.2834749275,-72.3210312973248,1557.68977761822,13.5004548424947,743.810500394411,-3.63565384847156,411.33074954942,8.27927735976984,1146.02861443166,-90.6813107378042,257.381945507512,-13.6956597221595,1533.16430631724,-11.3683621419475,450.462657936117,-8.72632067217363,687.871729178289,-1.97556328639006,209.027063000926,-6.08732618078213,617.469691227551,13.0480583884281,425.866762749833,-27.7595458899295,1376.02991983091,-183.834932147426
502.768853333162,-40.774921028532,479.463286861354,10.8614408804544,1126.42387792683,-68.7540769884751,1551.47422573789,14.5771591825421,741.869653214077,-1.80882065064109,410.610038864358,8.60896884321346,1140.40925445528,-91.3490455884706,256.194782994685,-13.2651006221509,1525.55965321534,-10.5270159521605,451.154443448642,-8.36978507431517,689.326862138396,-2.343019373957,209.573900856709,-7.4176773151665,616.528146463888,15.2001837456932,424.158892203695,-27.5819106067668,1376.97834453058,-183.992891347775
507.847663889209,-41.2492157085377,482.717847436123,10.9932976156619,1130.47960922846,-66.470973157455,1566.78039659929,13.3118405584732,753.741869171136,-5.35370217447453,416.948439204631,7.95087298536426,1155.0993573319,-93.9040543103846,260.865862880614,-14.248074517777,1538.99390466372,-9.69453371029686,457.607990292954,-9.24792017791847,699.665554804178,-3.20474921359826,211.543158147271,-6.33933885053056,618.260135813973,16.4593095937477,426.502228416231,-27.959150396683,1389.79828166549,-185.983113076322
515.598001114399,-42.9463620570446,488.08808656179,9.75791954777429,1147.58158862153,-71.7157918214651,1585.70061044409,11.331696852608,768.637288275453,-7.12264174729081,422.392730560786,7.97346260420298,1166.35495788218,-92.7824488935997,264.840921280891,-14.6618116711431,1562.28136763071,-13.5504134880528,465.08015283539,-10.5349117674788,712.032805807712,-5.15624561936738,214.117040044505,-6.83808471136209,629.338836649163,14.4575741555212,430.654966393831,-28.5961683006559,1410.45246380185,-190.584121068858
509.216190670495,-42.3833554121009,482.802304088819,10.480262135954,1138.01070663886,-68.3379482509353,1562.61120064483,13.198687638622,747.013660536276,-5.9093799621213,411.889535520442,8.53436312860619,1144.78969064671,-90.2181740556396,257.474021331952,-13.9041881745566,1534.03229705812,-13.4145345414613,450.441911245128,-7.88038314143135,688.363550827489,-2.16404640720298,207.625619917041,-4.92576880102726,616.262143256835,15.6238485124033,425.923285841134,-28.0729856312086,1377.01333374941,-183.758012887248
502.404848113184,-40.3817304035417,479.005374563654,11.0167721359356,1122.15700208631,-66.5981616206158,1552.32699956589,15.0657928105717,740.912482210528,-2.80865112576336,410.049420511886,8.76535729505036,1137.31511287826,-90.070190083732,255.449836057625,-13.3695592733418,1522.47430778424,-8.0480078118578,449.591726718942,-7.86534166637566,683.834933154847,-0.0569670335692839,209.105959880053,-6.59619293448857,608.525274434467,16.256288369153,423.2208600858,-27.2177697381895,1373.18108625412,-182.634408302076
506.456350938635,-40.8342246016393,482.501055779963,10.5358872914008,1132.990863698,-71.2206973309839,1565.74254057958,13.6776040210256,750.524612018643,-4.33502296115143,414.472025093621,8.60187028720508,1143.80571642367,-89.0685218487393,258.630758852052,-13.6655766634451,1534.00111061566,-9.69182842945669,455.455829959061,-8.96568499327217,696.308732790195,-2.96862394459993,209.893542371254,-6.60964857480692,615.278664632682,16.8181442438508,426.671799848767,-27.9617647066075,1385.73518780178,-185.275178458468
513.509861291327,-42.4385248826307,486.554142491468,10.6303688254185,1139.93105117291,-66.9062490403665,1584.79234034424,11.5145879913259,762.937026109152,-6.61502069978988,420.64347282296,8.22387993020804,1164.08195086779,-93.1410900677347,263.291840787255,-14.2136585042601,1556.57433656002,-14.3583931933762,461.808363372131,-9.26043356962668,706.875830983633,-4.33231721433034,212.152404152728,-5.91246743105218,623.205264977034,14.9507359824695,430.723889948706,-28.3928714116164,1398.08366047764,-188.167966411886
499.758217692041,-39.9596814369805,477.793336810538,11.6459621032597,1120.4800065819,-65.7775794069176,1549.08285098944,15.2654462995518,729.81276141681,-2.48269074759827,405.936946477777,9.89781718885202,1122.68917866452,-85.1430586472902,252.843245029269,-12.7525919169746,1509.39193152842,-6.14678184968282,445.443853842905,-7.10536853408184,678.707779496524,0.0544258144063417,203.294583989807,-4.76313940276567,602.117943777894,18.4972014396605,421.761187296523,-26.4678431944876,1366.77251230426,-181.077119722102
499.453968855002,-39.6802426487889,476.958096634667,12.3629944767994,1113.54967837769,-63.4388034785786,1552.73866046441,14.683122465247,737.120854433903,-2.03260737633793,408.481612376312,10.1473555604957,1129.32066074556,-87.2115788516359,254.403511180411,-12.7943254676608,1512.96847378609,-8.72151263122995,448.273721792245,-6.9132875602498,684.830297161861,-0.262987856210033,206.141283364725,-6.22916949352067,607.665605173087,17.7325982800122,422.632516078964,-26.8841511323827,1371.45547722662,-182.350296465519
506.867780173094,-41.0413692002019,482.503526325829,11.0488688441978,1126.73953401303,-66.0160576972301,1569.17457503042,13.848705069911,749.572537070194,-2.32760271244874,414.548857917371,9.80964936452754,1142.38413861884,-88.8142329329568,259.025163065291,-13.3012838732282,1531.54342052454,-8.05191168626383,455.373082096128,-7.82834818549948,695.379689920214,-1.51910056359864,208.388297787769,-5.16196428184305,614.593587071653,16.7219123510648,425.926089998793,-27.2516500128512,1388.84176829984,-186.284502452946
515.099467726341,-42.6469214412262,487.128281022234,11.00127086805,1147.12247679128,-70.5681891797159,1590.60151649937,11.1204459125404,764.552837824007,-5.80184302745399,421.381612187364,8.62478489038561,1158.35424106908,-88.4532980535461,263.592629191582,-14.1692761174831,1555.94657777667,-11.6573401429422,463.32848733752,-9.54957710363035,708.197581490476,-3.45892778417736,215.168983990417,-6.96609701899416,627.396631327295,14.711931080308,431.712835231386,-28.9672634513621,1409.78439403925,-189.483793614168
502.780281867354,-40.4468309828489,479.668448000939,11.5577449276714,1131.49780362218,-67.4995264194875,1558.41638060293,14.4188396395371,734.294831765046,-1.61078787695089,407.152963754225,10.5784661048015,1129.89423835324,-86.0713986554667,254.513070084974,-12.7629252060788,1513.17875482749,-5.91489568674253,446.149003683952,-6.68981277827431,677.708080147687,1.42544073769406,207.095127914624,-6.05562827003094,603.901566418618,19.4762207161313,423.980405778359,-26.9469872611558,1369.80519544393,-182.048592391592
500.137048907654,-40.0720378442612,478.897918831176,12.0656002517597,1119.16315124478,-63.4478940971793,1553.01833016126,15.5833393547489,737.768676280407,-3.64218368062474,406.655087716902,10.6014561813193,1123.55033764443,-83.8792856230942,252.945628572223,-12.421902422642,1505.91638424416,-5.05102530259623,446.252814565436,-6.35044519206151,679.933932335655,0.636244383885346,206.424121869919,-5.73194508907788,603.976157206404,19.30931919267,422.900793652066,-26.9845596070614,1372.49987569537,-182.088954713885
505.33900023222,-40.7503531796673,482.666134791355,12.082924838352,1130.01046776772,-66.2312287921246,1568.11780241622,13.9628990086835,746.433901151708,-2.19154600760048,413.039530744039,9.8490588473048,1139.42678948091,-89.1332114786168,256.964371549605,-13.049222885802,1527.36727665287,-7.82223220976573,452.650573563923,-7.17927193115162,689.158931253208,0.329319981435313,207.579024815206,-4.81507118369402,610.531341173418,18.4043417914764,426.048120934745,-27.5146996690599,1387.59493338992,-185.77097717966
512.519665592707,-41.6895668507792,487.776448893669,11.3904432574678,1139.52333796394,-65.852913786745,1584.86119610661,11.5099003060007,759.610192839568,-3.89065959048281,418.38654641437,9.46081544812884,1156.63685819746,-89.9029328299106,261.199146375686,-13.6064458759362,1546.28358902215,-9.25500799578731,459.80682768717,-8.33615851182268,701.091225704505,-1.74138893537532,214.029628983775,-7.12476092365335,621.195922359511,18.0711149467996,429.964992729425,-28.2032827756398,1406.9097508862,-189.01726503275
505.343022509143,-40.7207385609393,483.20125690298,11.7578964702207,1138.2456051156,-68.0111171717146,1562.37608365006,14.0732110950151,732.884915613002,1.82100256451169,408.042630869463,10.5609676222439,1132.23723494479,-87.0866895071298,253.955948399785,-12.3765726349126,1515.70356336173,-5.45113276830347,447.6951398483,-6.76897185691375,678.855697330475,1.87051297786408,206.372601957067,-4.78395694227486,609.453281535958,18.2579705602196,426.955346484832,-27.5548203839377,1377.64093908659,-182.724067418485
501.494788438175,-40.006403994751,480.825904632666,12.7236472341848,1129.04194991246,-67.2594448091006,1554.99965965374,14.3389133753601,732.485695970829,1.86788217244253,407.017037069144,10.9047230168853,1126.99080429294,-85.6435351751078,252.839724137923,-11.9075064193459,1513.29684993817,-4.92339668217744,446.818260329222,-6.36704687679234,678.094552513606,1.9330472094735,208.028272550424,-5.54106167908955,605.570716062656,19.5265753090784,426.413464553851,-27.6343768987078,1379.95875768063,-184.154366064008
505.640397513402,-40.3419002540747,484.937877333035,12.062503306304,1137.94340728602,-66.5590959781465,1568.68761438757,13.7943475902431,744.547081861871,-0.475026914491467,412.216570162817,10.7297922840982,1140.27877235261,-86.699944456814,256.680038734049,-12.4347438999703,1527.02742913079,-4.36668375206289,452.93275582427,-7.07217556825533,689.151193953604,-0.175974401244198,210.209642783542,-5.44635143550131,618.008246960759,17.5757872066519,429.176190865263,-27.6327943158528,1393.79026806412,-185.761237118636
513.572691210136,-42.1920931372369,489.798839689217,11.5952078167374,1155.1539189207,-69.5229273936071,1587.95813305356,10.856076495608,759.697137856763,-2.84268752472321,419.222719114278,9.51259892352635,1160.71567773828,-89.9049075373982,261.275262938627,-13.1296726960013,1553.38907874251,-9.85952633638884,460.120232468198,-7.88681393037408,700.178894411679,-0.603923566769185,213.919964786115,-5.49120565294126,628.283691462487,16.5111272373832,434.436599677949,-28.7712231774969,1416.3303050991,-190.619447636013
511.816988044675,-41.7274058787142,489.221822032399,10.9273851089143,1153.15615159546,-68.7472625136258,1570.07119305615,13.6298689525443,740.29449897636,-0.910268376315057,410.701215269712,10.210522253882,1139.45702811509,-85.1705950837057,256.001677236984,-12.5930539449389,1531.08864929425,-8.43166551092625,448.804128874576,-6.27191184173766,681.193339809989,1.26069439486886,211.401941072981,-6.12730690511279,615.850883786865,18.6596134344958,431.711289631452,-28.2577328949096,1389.65331751935,-184.581406714975
501.110372014239,-39.8476342861454,484.389606041454,11.8324866779532,1141.60100543797,-68.0248440245491,1556.60616656127,14.3462469035998,737.769997096636,-2.16096327376974,408.048037890525,10.8293982744217,1131.45696316071,-83.4946963735143,254.123468632742,-12.4084781513485,1517.93706266256,-4.2385263906722,447.847224201078,-6.03487592131153,679.417787093355,1.75440868580224,210.271884431228,-5.66980388584346,613.453770775379,19.5097213367466,429.721634870499,-27.8244656905866,1388.33396024494,-184.922493421396
505.272990271162,-40.2426868262309,486.991047828388,12.2403721586277,1145.50849863568,-67.5054668484707,1566.46603474698,13.9760136235143,743.02891476116,1.29030256814007,412.889172115822,10.4824988700788,1140.61546602993,-83.8638619089925,257.591489722266,-12.6204560359703,1535.62191676153,-7.71432714561835,453.693134500331,-6.59880932878871,688.615529457054,1.24448555602829,213.270521007159,-6.40576362840593,622.995992032846,18.7385918879586,432.694091226711,-28.2875630887233,1402.61882288162,-187.784287579277
514.07842829333,-41.8206769850669,491.450623744084,11.8374542981004,1162.82891326,-70.1362236726162,1585.90856784317,11.9972585842942,759.691856369669,-2.27703759167399,420.030466011081,9.57718271968723,1164.37170571819,-88.7558197769862,263.040820671005,-13.5629826066144,1571.24321371294,-17.0002961003224,462.044645425016,-7.96867325574311,703.178458668193,-1.59449257832231,215.781677481903,-5.5674138703304,633.887342912515,16.7236656554207,436.902505750643,-29.0608355289163,1424.99395943903,-192.78795346375
523.834271086355,-44.3468495875385,499.397831496124,9.80552839993773,1179.29885573917,-71.1337718448106,1606.98059880001,9.80395636579717,778.225363084679,-7.53773747054417,426.616465909176,8.80504130407428,1184.42197429899,-93.2022700805261,268.129648202451,-14.4562724188265,1591.90286960106,-16.1463291863821,463.882553269551,-8.65630068363379,705.240853581251,-0.689098727002491,217.648021454276,-6.63151346956289,639.537376803461,13.9410760243315,437.475360607257,-29.0308995807451,1414.3707959667,-190.281008335614
503.933489668931,-40.5997966376308,487.15738567968,11.2309748109509,1150.03897340297,-67.4352607182097,1557.70636109881,14.5061898716754,740.542823009611,0.953177712382939,409.27794741802,10.7114935275989,1139.71193385543,-85.3690508343416,254.477677625085,-11.9207184682084,1535.40356782563,-7.04357934801442,450.365701298375,-6.07521165388794,682.32469432322,1.99818822388295,211.963759687465,-5.03294169717303,626.591363565372,16.570414437932,434.608680860454,-28.6905658842826,1402.44061418414,-188.388307472364
505.582115070511,-40.6012781488398,489.375900701689,10.8670026029562,1151.71967311209,-68.6994270415533,1561.80107659019,14.1604655422946,744.815882431317,-1.1161891672363,413.420994478092,10.5151119040023,1148.67527885952,-87.2521484429913,257.390587185664,-12.4744804818334,1544.00811387141,-9.47905177342643,454.550889369248,-6.62199416537736,689.168343728869,0.777036240896063,214.490232328721,-6.86020061309346,625.933350837865,18.6980696663244,435.175511675151,-28.9127483242668,1408.5810026972,-188.960979385878
512.210438374603,-41.989352128963,493.277358901772,10.7008243345356,1162.70097342569,-69.2449989306374,1578.64548899067,11.9438020809527,759.245632810708,-3.07566023004431,419.284921219928,10.0593004116634,1164.96088370318,-90.9702793313575,261.796713307886,-13.2120815712895,1566.62283874261,-11.933313852738,461.051861489902,-7.71264751291175,701.578847621242,-1.36739156144462,217.236388153762,-6.25701356190499,636.805460817769,16.0575928531985,438.688029967177,-29.4610706707328,1424.62448111283,-191.605627319023
520.355706367007,-43.5118877241053,497.896056513948,9.81490057983848,1181.66524937551,-76.3431047882432,1582.72793978253,11.597014924491,761.893916184351,-3.14429408019337,419.828100685985,9.81041307773081,1170.93233080467,-90.677569355569,262.900178749496,-13.5234740243713,1560.5311183571,-11.8062518168624,455.378750865779,-6.97703902299558,691.138175880713,0.490702018739761,215.38160122161,-6.1486720772679,632.50511495539,16.039989115538,437.682292006066,-29.1248134937076,1408.62994509788,-189.057759874914
501.195555465491,-39.6152075117029,487.265748118392,11.7874316502141,1154.5175124982,-69.9966700434243,1550.12075211355,14.4327803987737,740.928029571953,-0.67768567540722,410.194844257149,11.0564156587884,1142.75435903638,-85.5012211109374,255.502867249226,-12.2324455131374,1542.52079794742,-11.1774229370488,451.708300358218,-6.11616774516183,685.380484232487,1.38185850922823,212.832585550156,-5.93936017258448,627.494523942354,17.2530396296354,435.390787602872,-28.8776668045213,1403.38382134611,-188.041740485908
505.111281230223,-40.5759130794797,490.761630060633,10.5360472594643,1153.31964551174,-67.2818577531116,1555.576783807,13.795125200803,750.139354746107,-1.40652426807743,414.63841893674,10.761290536207,1152.06038398496,-87.5687400641827,257.677360351379,-12.3619706541898,1551.57615019216,-9.74813474614801,456.718075139817,-7.06940769789705,693.206174689173,-0.172444930184761,216.133913449956,-6.22185550437495,632.61766721599,16.3790443716837,437.18679974653,-29.0262342583705,1414.17300583379,-190.188291988748
511.704687954621,-41.6017881925967,494.380040379461,10.7668716585605,1175.401811539,-76.5549507177033,1571.64816834576,12.8021269921556,764.686608260261,-4.02444842063042,421.093978539688,10.0322110425235,1169.48274687553,-89.5466796492715,263.052120759308,-13.4165585570225,1572.96010780811,-12.7782806246592,464.551424507122,-8.31962461852109,705.769798111109,-1.86413868459714,220.694232425862,-7.34292556314838,643.900883640325,13.1094079534442,440.736345177203,-30.0007578628709,1432.17749414096,-193.744658393909
520.613834593895,-43.5062709357148,499.939968887083,9.42813178987883,1185.66571275313,-71.9409802818761,1592.09269364357,10.0672103594986,777.060103631442,-4.74379530254044,428.661048955662,8.43809763522772,1189.24403553963,-92.2380952035268,268.352895144338,-14.2903027410563,1603.49018538925,-17.6134908814341,472.148888981992,-9.75826832002214,719.454290972355,-4.09370486756974,225.378572469356,-8.28332600863495,655.281628564309,12.2638167698584,446.377061962548,-30.990188166138,1446.76299715075,-197.206098092533
503.856299397704,-40.6443518832735,489.582350943687,10.5771205325581,1162.3465181602,-70.8820816304961,1544.65821968989,14.0837865558699,744.929271356229,-1.05375382827377,410.839281309611,11.2145558189888,1147.64038091999,-85.9808920129085,255.922208202264,-12.1359327930049,1544.74196410958,-7.22141206269068,452.542529077481,-6.52600670344067,685.80621914722,0.988879205894393,214.494207008553,-6.45419360164663,627.424462348928,16.8485522241,436.320768566884,-28.7911491646933,1406.99502681361,-188.284094203958
502.231001177934,-40.2830014159358,488.07532768125,11.6953480510632,1158.02269573183,-71.2328773142753,1539.36956495995,16.0816596542196,746.710111951233,-0.461389073933601,412.470233966942,10.9800471179323,1149.1988976335,-86.1920756042475,257.596494208101,-12.6536851046304,1548.50054529866,-8.1433274297572,455.046351456537,-6.37778477069749,690.02349862767,1.4109228467358,215.250027252062,-6.11638258161201,631.145387317564,15.763460299935,436.283846386326,-29.0750479814306,1410.00350642813,-189.05069952724
508.060579901029,-41.2451982273545,492.667167058885,10.5675922365159,1162.01511214244,-69.7521163427842,1553.51981079235,14.5015971159866,759.967805487199,-3.07827077759148,418.626536882887,10.3582545767301,1164.37743205347,-88.3469505623792,261.277334387326,-12.9603728769469,1566.2585232649,-10.3120392376583,461.882072090339,-7.90381044983986,702.566843568437,-1.14545293854759,218.735959000572,-7.14067809876707,638.252155106904,15.4845929143841,438.061550422715,-29.3809188211387,1424.15122243044,-192.144448033348
515.548988904463,-42.5064661577423,497.129187712569,10.106366696599,1179.98726379544,-72.9013196383058,1569.87847951799,12.4190322429372,770.931351177887,-3.3828850039974,425.087161926972,9.26023725041308,1181.12679089561,-91.937068408059,266.282097666192,-14.1176583503618,1591.5548830685,-16.3700845404179,469.238523147119,-9.12970820203995,713.45331530094,-2.59834953441392,221.633314899336,-7.21107691073113,645.234800345006,14.1602633132683,442.542650423577,-30.6683331773861,1442.83010793222,-195.973295637085
503.4774494287,-40.635087110549,488.378541503654,11.8810503536571,1166.28990828831,-73.0382580039489,1535.22444810027,15.0151521255079,746.779569439908,-1.37203225468718,412.576782422439,10.6943647147301,1149.54255879123,-85.3636657155145,257.266268609299,-12.5869460563862,1553.39921245129,-12.8838983976955,453.718337074978,-6.95392449484461,687.174551896378,0.58168036041811,213.432342262946,-6.22720559828069,628.166711376523,15.0186084378703,434.654245685237,-28.7616856896662,1403.50521288733,-187.543673969795
500.085350250907,-40.2002062668028,488.4538443034,10.9121480375754,1155.19630992441,-70.6457107572544,1525.1808794451,16.4663171077501,744.87135229146,0.829431640178232,412.250061274499,10.784375756167,1149.72917128289,-87.4620519808734,256.851632133078,-12.2295373154535,1554.48745880694,-12.7356097529675,454.928203402607,-6.96416167185685,690.358756911038,0.0577510558783813,214.250353494475,-6.03046299808129,624.982969510882,17.0105337099825,433.757286786834,-28.7922079524368,1402.45548207619,-187.549518305552
504.140929479032,-40.5477366794144,490.908136553271,10.9482369233313,1165.55084144184,-72.9753125368705,1535.08440934982,16.066450173217,753.556173739715,1.29574473628355,416.664732146057,10.4594936133713,1158.82310051598,-87.4810511641516,259.933696254827,-12.7336161916438,1569.06669661499,-14.1085240646426,460.458400323982,-7.63072089951525,699.037814398681,-0.547977452692834,214.89119934507,-5.06280111201967,632.498308740266,14.9176506897017,435.934451494776,-29.4996797203836,1412.63753737168,-188.68527074509
511.45439784661,-42.1127018226123,495.654231240287,9.39787222192649,1176.43330650696,-73.8471155880887,1546.22517513925,13.91308425422,763.04902963526,-1.16339547841997,420.082109174489,10.2609474230139,1170.28135090659,-89.9240670747922,263.12785696501,-13.2000533888081,1563.73555947862,-10.640367924921,457.120141397948,-6.85393247236833,694.517261597108,0.424261382268268,214.815632122424,-6.66574207221802,628.958842325425,15.9540135320915,434.736571881745,-29.3007691488402,1399.47702604423,-186.626082444398
493.166065484956,-38.3421482354482,484.221569021174,11.8382425826512,1144.81450155602,-68.582409880967,1502.81502084372,19.7361641674004,736.64692211384,0.665895112782514,408.589447799736,11.09906237046,1138.53974493372,-86.705656270427,254.677358353091,-12.0286140453157,1536.17762080769,-5.80039365426178,451.064458726469,-6.63303326130092,683.160542942222,2.25614458494174,211.821987302424,-6.38239706619292,614.63337634953,20.5000566543315,430.516824664881,-28.2712871820699,1387.68789412976,-184.248590983594
495.276674629574,-38.7412912499637,485.695699120192,11.7549724080971,1144.3815300463,-67.3601779702714,1505.63453495858,20.3192914827291,743.747304675754,0.126348538752471,411.283102774053,11.0450698567601,1144.66435162222,-84.8294002235891,255.978794256192,-11.8142676583129,1542.50586388209,-9.88698537521759,455.042241500461,-6.76811154340498,690.008800429856,1.04098082363033,212.603618724446,-6.06978152226685,619.259202850087,17.5472881937325,430.340775827718,-28.2243586859525,1394.46603294159,-185.769797663056
501.453534245837,-39.6752153437914,490.276093571396,10.6774717162706,1155.93075014365,-68.9688658445316,1520.97387543235,18.9307439275741,753.721347077345,1.29368754477602,416.872951585147,11.175952596707,1159.93786152734,-86.9848849549727,261.203250896034,-12.9549389822073,1560.55680694538,-11.1075570763061,462.012664341736,-7.97735089428248,700.405158749738,-0.0463331598895612,216.687171518412,-7.44498229139118,628.866951059547,15.7381450140129,434.034923048253,-28.9357915766702,1408.53008138894,-187.968410031385
509.811506489101,-41.5000763821058,493.846748180127,10.9209546646626,1174.37976987284,-72.0565763888641,1539.52294861084,16.8343646543314,766.136519944015,-0.994479314422175,423.031927569997,9.51304299752498,1174.51710402628,-89.4449867035792,265.986263364594,-13.6872214273648,1581.79739377209,-16.4988388467313,461.389835119886,-7.4882859049379,701.683578669122,-0.41923377067755,213.861704504838,-5.32549688860704,628.255266324904,15.8396094032437,433.636539671456,-28.6398750213779,1395.72017739636,-184.946030506209
490.618315387395,-38.1164759372428,481.126628373161,13.0396732069473,1140.23704931475,-67.0386357434206,1488.67295662041,22.3573225968697,732.731380888276,3.87076898060099,405.922622489308,11.9934096578988,1132.98224166878,-83.839990953864,253.201144694751,-11.6686374706888,1525.36396677173,-6.4793293468356,450.57413135332,-6.45376151157734,680.575405983862,2.40891836797663,208.952195473242,-4.89087320722253,614.882489498537,16.3511147635002,427.348855276264,-27.5372732476993,1378.58165696896,-181.602064140028
491.743877518609,-38.0204428335518,481.962489809705,13.3382388695056,1138.3099003003,-66.8427751046601,1490.26098998118,23.5636349685441,743.980100414889,-0.807569074090173,408.170827181938,12.3966829414674,1140.395910564,-84.4607570149181,255.579791665808,-11.9727964674738,1528.74746701331,-4.80236695434141,453.524327277252,-6.53218881194257,686.288036936751,1.76704807575574,211.635241966353,-6.53841779449449,616.519158080452,16.8978133243072,427.005726031791,-27.3306342099222,1384.85217421695,-183.182866471745
498.432519166383,-39.6599240136909,486.530082927655,11.8520854847342,1148.25549246573,-67.3173243096712,1506.43083737357,21.3186566050047,750.988841636905,2.17182817717747,414.01745059859,11.4387323698359,1151.36256314868,-85.855653310235,259.572504340251,-12.5791573200024,1550.98182561831,-10.5392389981062,460.201422000822,-7.82158884304592,696.317621469507,0.66971176509523,213.410493765923,-5.35398211837752,622.24946617977,16.802937081555,430.978665141375,-28.7530959475036,1398.76251467153,-186.160937693518
505.044191623534,-40.5896794380242,490.748156014089,11.1504295314839,1162.52422761593,-71.6410138230745,1526.23904541684,20.1702823135065,766.274964587971,-3.22777253344543,420.852679286533,10.3879570765449,1171.83138750862,-90.6060783593116,263.980216897298,-13.363633784485,1573.89165535616,-13.8877457382223,467.640594052308,-9.4446806061719,708.162429594387,-1.40545867726826,218.153406480853,-7.36315401740738,628.783156135365,17.5829986847773,434.618958100015,-29.2744677291008,1404.60767191369,-187.504061895447
490.830427681481,-38.1766327762351,482.159819189334,12.0562756544274,1140.95022365644,-67.4619684853071,1482.91919065049,25.3932921092639,732.174951225224,5.65744538461054,405.366568529088,11.9955923981262,1133.92429506261,-83.085805136942,252.618512999832,-11.2078921830239,1524.15262147446,-6.65433619437641,450.189481206685,-6.32396877954386,679.471964076624,2.53094349051878,210.125936960718,-6.36630845643958,612.314597895128,18.4425524066181,427.29354141139,-27.8879058633661,1378.35331112787,-181.734468842433
489.196420320293,-37.7103577887442,480.494492224616,13.1849665797367,1132.25218047351,-64.3449213705332,1484.88410511545,24.7214872573273,743.536712009076,-1.19025306402994,407.270260079047,12.1745621303878,1133.54573192498,-82.3525551534089,254.0931265857,-11.5046693794556,1527.46683766707,-6.42230357467697,454.481712528219,-7.79772122594876,685.165391284848,1.28905695016959,209.420999413963,-5.10353256592658,611.041038967064,18.4874544903872,427.594406237951,-27.9097366731656,1380.75259234962,-182.833719685342
495.158745511756,-38.3569658645471,482.284943235815,13.9085938972648,1144.08706771844,-68.1318663165097,1498.73015094967,24.1457013810414,750.661413949388,1.62283202902581,412.300316878775,11.9544510908958,1150.52383322396,-86.6129269060152,257.512057990977,-11.9083766659965,1544.48160686381,-9.29061687220925,459.94421186789,-8.24662969372287,695.446670298477,-0.233002886445568,212.97738599586,-5.90308226982636,620.164806727909,17.6241263379493,430.796713730506,-28.1755686021018,1394.53715840903,-184.965877077114
502.880999566876,-40.3025345765781,486.697589669665,12.646637566138,1159.48227274362,-70.0649297760269,1506.17743742679,23.3239780451412,749.986667922144,0.548072797792001,412.997799188274,11.4621712240731,1151.7119835036,-86.7845849181968,259.794675466414,-12.6176471191336,1537.53298875721,-7.20739732675522,455.189983396054,-7.63718457736913,687.414614131574,1.20964133843815,210.49785182565,-5.75365687999407,616.255940810125,17.8836928742314,429.169143985863,-27.9174710492017,1380.86152425281,-182.628490676548
485.122250601553,-36.8986967120917,475.679280521603,13.6446930421635,1130.18170258498,-67.6701032610129,1470.73648933857,27.7754491429565,729.726622525461,4.33118987386999,402.051803613246,13.1429692870227,1123.05225673014,-79.9432009926103,251.180489639553,-11.0127616424705,1513.0046033644,-6.59767752624074,451.312899584971,-7.3492502142537,679.057412056787,1.75924828738132,206.319282247129,-3.98575080268329,608.547957348473,18.8979472692295,425.250300936181,-26.9406746591429,1371.4541635329,-181.221529588175
488.148269342905,-36.7730266721973,476.557055430639,14.067064469346,1131.89167908531,-67.4702462995775,1478.24100694803,27.5888916677299,736.575767826981,2.84683230768743,405.577419208178,12.8388446638389,1126.92823527142,-80.7272665540967,253.668280163359,-11.2678951412309,1516.1434311693,-5.55297195694963,455.093051300823,-7.75030682643915,686.829520733806,0.891086586401449,209.472775453916,-5.6232871898386,613.94913538522,17.9664650179022,427.0938358719,-27.6383159374805,1382.03885825729,-182.500955705513
496.068193567122,-38.4366625762042,480.762022419734,13.759143847245,1139.42115356584,-66.6126777393673,1496.7551415132,26.5372408409655,749.704887520967,0.712626184252118,412.717410322457,11.6059928307396,1147.29853004477,-85.289714887117,257.980727233231,-11.9676706127271,1536.80823699021,-8.44727480819147,462.098794839253,-9.0055191699528,697.723850279645,-0.38658285092828,214.030585868193,-6.46164215552772,622.622517078383,17.0389919378432,431.52794790537,-28.4526580823883,1399.42588767858,-186.539548762804
504.410398765676,-40.2472716411323,485.584138589078,13.6073559070284,1158.2336294332,-71.4546197926165,1518.2879393108,24.5461286997585,762.288610278422,-0.0681185902484476,418.668862984677,11.0196637782274,1164.89854550606,-86.0661873605012,262.383833174361,-12.7917755276075,1560.3494803409,-11.5423837737994,466.858475990526,-9.42245642783122,707.049932197497,-2.04120322408707,215.964024513356,-6.5027012724822,628.332001582012,15.5914164603253,433.224111014901,-28.5532839755842,1395.46126763865,-185.507122935011
487.905667715937,-37.0583354598356,476.066653587524,13.4594851451141,1128.4611918864,-66.6562140139578,1469.83543088074,30.3074057847611,725.474053454611,3.87104354216859,401.302019067817,13.0884621435131,1120.88400908112,-80.8416593319731,250.253122988752,-10.7077906976719,1500.92492906317,-0.594856042986742,450.851253496947,-7.57471880257033,678.257149931695,2.11230093479929,208.454987529024,-5.03234219669566,611.38390741774,17.8925989715449,428.129079920824,-27.7972317662482,1377.19061377275,-182.244069373685
487.82080236422,-36.6285250458326,475.411505888033,14.2895358618411,1125.49181042133,-65.4994280580858,1474.62505627661,29.9296833260407,732.419419205763,3.33568658140792,404.228553241768,13.0222833584115,1125.35666258137,-80.7064440376166,252.941816914982,-11.2798265441268,1514.07815320972,-5.21080385425157,455.621654194811,-8.04622631515251,685.224047927613,0.488379878071747,210.723867846686,-5.9609511468652,617.409385438288,16.265985696605,428.685230316803,-27.9040268709901,1383.43344245029,-182.892671584177
495.314245377962,-38.095356390037,480.453067248367,13.6788305894451,1131.77313518156,-64.1307088931497,1492.21536163338,28.8387324849087,742.46567546713,5.37721826692015,410.156988498853,12.6504381987517,1142.63713686786,-84.1003906443002,256.8569587083,-11.7570041588306,1530.65325437874,-6.91443163960308,462.884866416643,-9.71357984072896,696.495277731102,-0.799655010381387,214.186642129083,-6.04201952587282,625.372871671886,15.7149732095081,432.556116303487,-28.5438724598558,1398.04413517838,-185.645848805399
502.966115109238,-39.252374861954,485.260895192635,12.7585073567561,1153.61478868299,-70.3359554430207,1512.44776226644,26.6897115210397,755.673767502994,1.97526999343422,416.98680526959,11.7118767916084,1160.92687167353,-86.4993643348489,261.299111087026,-12.5957320265507,1558.71002442123,-12.2327238511052,470.028400243371,-10.7719752071981,708.649204565999,-2.69261953618911,217.962970117412,-6.73709512729772,638.533056823992,12.9730983961635,437.637777440249,-29.7250133291774,1418.22829200356,-190.339976687255
492.083883676592,-37.4685781462794,478.109373799798,13.6117151500501,1141.85281253197,-69.0976467959307,1486.27017454099,29.9175855701109,733.668348231731,2.52932773314859,404.785457557728,12.7815685254536,1131.4040890678,-81.6839385689098,252.23516456705,-11.0596820402068,1514.71238698537,-4.81774363123564,456.111708700745,-8.49373213798423,684.226276355309,-0.0317727782118103,211.070884040322,-5.16137394676563,622.024490856572,16.5437783958598,432.123833448282,-28.2981696286908,1385.30633840712,-183.698622745495
489.819897121448,-37.2016881557157,476.382809048316,13.6306360185223,1127.21781501061,-67.2942543731287,1478.90510212801,30.7425918892798,730.029595554805,3.05613711322077,404.53134569427,13.3298878797187,1125.55381629934,-81.5099006878406,250.836268319675,-10.9213428378975,1510.66174046542,-5.90144154879676,458.496467522756,-8.86298634764472,683.689321365348,-0.51263316959134,214.351206755714,-6.91832195523953,622.678502406683,15.2080004287728,430.96688391933,-28.6432370768181,1387.93974199024,-184.398690229907
497.084272415997,-38.343096979856,479.890929426558,13.8026873353928,1136.92255158096,-66.9178770166165,1492.86909664608,29.8018898615904,737.208902711436,4.46613005399709,410.782912446262,12.4860230612828,1142.66586231508,-86.3150894470125,254.299617379519,-11.6126904044552,1528.86622969742,-7.36920596151934,465.783686364319,-9.81739939414622,694.45242800077,-2.03937406714386,214.560469842144,-5.73383816077292,633.544942860112,13.4433992913875,433.573846877162,-29.2308425014425,1404.36442765013,-187.797234142578
