510.12397717471,-40.5304079148253,475.409096102841,12.1978802452429,1106.23780471458,-65.6297015115419,1573.88798073682,13.6366395309339,751.33736677381,-1.12622461379897,416.451067068358,10.9167358920362,1153.96079910693,-89.915534739181,258.748957025859,-12.4251779209794,1496.683646104,-5.13291216309856,463.123667783618,-9.19885311062116,699.16126109165,-1.97981944013173,212.035688354657,-6.72728252514779,607.35015199022,19.0536687017722,419.492775209533,-27.4159655346933,1393.21613097141,-186.746805355554
497.517988639906,-38.4875153771393,467.379167301746,13.6765479856611,1088.429201362,-60.7195792980258,1541.97378109619,16.6046802603071,724.417525434709,-1.42027774388548,403.030575491218,12.4070882131537,1119.00707306442,-81.0289661954353,250.352083243437,-11.4264174086305,1452.24522174499,3.23297502040441,445.961808951892,-6.32684924408285,672.034666013546,1.8524379740341,204.402251492592,-5.92193424765921,591.437471862858,19.6617215858521,411.512301785143,-25.9180014067388,1356.96147401332,-179.324785522689
494.570446988704,-37.7433918474334,464.732292151273,13.3852826220226,1072.60595706625,-57.7843799670391,1535.46857576484,18.268268905719,723.29402184726,1.03501033546711,401.393393897492,12.6660043073083,1112.88276790579,-80.4696828957436,248.666006667279,-10.8772350126881,1444.05112423509,3.44108515785274,446.823120582043,-6.47191803636513,673.916495736641,1.01086152836521,201.058492686263,-2.86154638543768,587.175031774498,21.1796429059959,410.475289081683,-25.7025576966197,1354.9781242568,-179.532048995704
499.701561545401,-38.7557128697237,467.140083144288,13.8237745702319,1082.23087077295,-60.0374423250413,1551.41564800301,16.0253531237227,730.745934257831,1.12873183999917,407.824681792581,12.0532108390977,1122.89297495554,-81.8049531165561,252.410891574176,-11.2261633221874,1458.11248268079,2.07276424328269,453.039687400297,-7.64650959049728,683.413040579936,-0.509143676359375,205.681872263335,-5.51252124861493,593.550632665982,19.4622176194011,412.603731376121,-26.4963729207469,1367.50628334936,-181.678198451799
507.333802842228,-40.3046022151689,472.492705159327,12.9758991967764,1096.12830300698,-62.2487583693986,1571.3353663456,13.0825130058084,741.689696858255,-0.627131906512303,413.015568861713,11.5688477618862,1139.47863992018,-84.3108128742961,256.697684638609,-11.9637315104326,1480.37500573305,-2.47128463085338,460.232737221248,-8.37418983920784,693.429996162662,-1.38584052929549,209.513548781202,-5.67230978950671,604.395963017749,17.7808519892701,417.316164959246,-27.5277562886557,1386.54382690285,-186.655736682402
495.280452951321,-38.0196936040186,465.246484295245,13.6749317644191,1079.09178131711,-59.9751828048259,1542.99991081279,15.3590475627436,719.837161560397,1.18185632865946,400.801040024409,12.9262639551497,1108.85651932019,-77.6144354653907,248.065969785373,-10.821628310444,1437.96422696785,4.4852790906109,444.966136746156,-6.52722694916634,669.05151544683,1.66034314205926,201.721852008642,-4.28791612425055,585.884102961237,21.4728285661471,409.714268681935,-25.3649020737384,1352.96151521919,-179.226556887602
493.234991933979,-37.3995179769847,463.00721071159,14.3932200911825,1068.84436520377,-57.6045808584413,1539.44901034566,15.7422966795246,715.365820581821,4.78169961403991,401.374144942367,12.4765395050553,1104.4914242327,-76.2664207270471,248.127177489724,-10.6733281222073,1432.50518299881,8.13430996949238,446.492263551988,-6.63937192773217,670.7671597441,2.01690081695085,201.912953946762,-4.36968982244385,587.767081467101,21.0318353609227,409.924002509007,-25.5959930741686,1353.72317657006,-178.509566645444
500.401097188897,-39.2502191280654,467.760129155836,14.0259982203457,1082.67893906701,-60.6899115233595,1555.391427491,14.6112297284774,728.020413594406,2.43533782400061,406.441527305542,12.7199160025338,1122.23512465329,-81.743474845109,252.176692719608,-11.2657121170217,1452.43016309019,1.89803897756961,453.837750321694,-8.20529521216963,682.08311606027,-0.315784174366094,203.660577464791,-4.14625632781519,595.504283421829,19.7404530631262,412.719712167493,-26.1631247662334,1367.32363627718,-181.454705332875
508.051780932611,-40.2722192226809,472.608027541112,13.4289418944203,1092.78865601153,-59.5662501560599,1571.85074955881,12.7075864814547,735.244392922445,2.30985395216108,411.690358710798,11.6859528761838,1138.16618640957,-85.6854339951822,255.302197818665,-11.6516188863994,1462.87315748799,3.50313151048184,452.146562819678,-7.78800741890607,681.169607696842,0.00580523744754622,205.204431253829,-5.58317002603167,599.418713939727,17.6169162193259,412.631204566583,-25.7527406275664,1359.31215619547,-180.130605659845
490.303114368414,-37.3018305275003,461.268081959641,15.1031400036559,1063.74603101105,-53.8135281468589,1531.84995397443,16.8268014989975,708.23057901371,4.80518626856007,398.023846426739,13.4185639196883,1101.26910697971,-79.256643134388,246.036895695095,-10.5738319741366,1428.51109501334,7.47532104611987,443.28231601458,-6.2590563046727,665.781552340385,2.30614428272806,201.502022395094,-4.22720514001462,587.409265505409,19.7116567724458,408.94136555462,-25.2085321256051,1349.77232209615,-178.337605209946
493.614749620152,-37.5501102605421,463.861686575802,14.5543677491986,1068.01332534374,-54.7561095409202,1541.50709274995,15.2805112480444,718.59742444012,1.94068350931536,401.991860277054,12.866656054112,1107.60898284724,-77.7870697134308,248.320845650335,-10.4962416832212,1434.59925364316,6.0437921737043,447.859287400645,-7.3445118618332,671.588305646652,2.12396098220059,202.723340677894,-3.83985596656572,589.442305365879,22.3030594168834,410.660527879196,-25.5352269314214,1358.40229017178,-179.544720946719
501.507984778192,-39.2266314023145,468.102718314961,14.6692132630148,1082.26665881008,-57.7134989300559,1560.39926830554,13.73001693978,730.42678798213,0.566718548989319,408.356279261411,12.6702819137075,1122.40468840651,-80.4926327768297,253.219853673995,-11.5361262080318,1458.9117357569,4.05067175754837,453.862368440252,-7.55719824193274,682.831706418366,0.365251595934408,205.751172868747,-3.78386891277656,602.438548897651,17.7003683405584,415.204573122444,-26.5866137360414,1376.22859694356,-182.816390692864
509.958837726364,-40.6813285840929,475.20941256884,13.3991717471722,1100.73860310841,-59.8084839689945,1583.73243528294,10.0048078069268,741.284403637142,3.04919611213275,415.608612297116,11.3156554544518,1141.02995894463,-83.6783852205079,257.566540572361,-11.8800377562735,1483.22657862104,-0.0363234143634572,459.194557420056,-8.66411935106895,692.95252513719,-1.27983555024805,208.432768928986,-4.5071008310971,608.046738487563,18.8820909447498,417.397678844093,-26.4221103446937,1376.60222700666,-182.960759875635
492.073140231844,-37.6050956538495,463.525512512151,15.4661734755498,1075.70332212208,-58.3236289799975,1534.76261217221,15.7671442981225,710.68448072069,3.16895690490466,397.255237206072,13.6720508510851,1101.83067267009,-77.0446534610144,246.061305611469,-10.4495306218449,1424.30334506317,10.8484303837445,441.756428059431,-6.14158953111371,663.714691031332,2.48810987542916,202.02623658599,-4.24393074506326,593.06893982865,19.9178816633998,411.909850299717,-25.9776583729017,1361.46359738245,-180.283313722872
492.979936971126,-37.8190267785576,465.666304594349,14.9370002544573,1073.12733698637,-55.969675149371,1540.64243606619,15.0526335103939,714.584411545339,4.88663542899236,401.120217849612,13.0957071562808,1108.82441761491,-78.3881770012763,248.503029041028,-10.7977089376577,1439.07285783378,5.80549697745464,445.748352521565,-6.67517100416998,670.19822431967,2.04099191271296,205.472332656789,-4.74054835836964,595.776921519569,20.5436710631646,412.368147949249,-25.6619869036382,1370.62047184617,-182.986524670352
500.211448007735,-39.0053279596804,470.915848790426,14.6106506770085,1087.47585444332,-57.7920603638776,1557.90925108547,13.6300699297029,726.13838923855,4.99210997722416,406.103169182432,13.0451342475566,1127.41737341198,-82.6246226369382,252.768460657525,-11.3968725059812,1459.86649711607,3.0933288211138,452.370832496433,-7.42540297792867,681.746473187108,-0.130263067906421,208.311383397146,-5.26200399718722,605.071609237883,19.483032953849,417.241445026701,-27.3451570825798,1386.52015637083,-185.221671540922
509.346256679176,-40.5643037972283,477.15375149761,13.4382281991142,1109.84583581294,-62.2486017243817,1578.52104377148,11.5486142795254,737.773937549611,5.41224651232796,414.14727449679,12.0432772223179,1145.99449004523,-84.397966619191,257.452810079006,-12.1487427159555,1487.49098924912,-1.63110132911587,460.193746161874,-8.77249771029969,692.317299319817,-0.774286223251144,213.144492883629,-6.322321827425,617.309988624948,15.5707096594504,421.711073329859,-27.8920365041511,1405.24165137894,-188.50739258149
506.245767770846,-40.2235392712924,474.463304794337,13.6724055832012,1110.03548703073,-61.3921278045497,1558.77118897161,12.5302602719796,719.640062238316,5.10845674024397,403.912183944076,12.6967448327676,1127.65657441656,-81.7177752116413,250.291636873109,-11.0842146069076,1460.5166879821,3.90458274368121,447.693213668944,-7.19092769416012,671.411422245557,1.80274987485776,207.408349691431,-4.12134185453639,608.790290928595,16.2833957052368,418.576780029123,-27.11911896314,1386.25542516172,-185.274912222157
495.504244772332,-37.6602491833254,471.030454488097,14.1179649023285,1099.58075490351,-60.7734299804127,1543.71389203853,14.8131033736453,715.584069029357,6.88269244600407,401.844709175873,13.0607728361737,1118.36539432511,-78.6224090380312,249.061884558466,-11.0257429980467,1449.64564048413,6.16063216919672,446.306077398663,-6.80852026922819,670.542577234411,1.99791546087681,207.864437497961,-4.70990884300605,604.718019197387,19.2327565741831,418.215779492644,-27.1894686279676,1383.81947961612,-184.608353718573
499.150387320547,-38.5719234253256,474.034568469023,14.2450799212973,1106.80251521271,-63.8543700021545,1554.70116827493,13.8881853223049,727.077053838113,3.64772801568632,406.52618364412,12.5525988831757,1134.77210039316,-84.4916087192312,252.033675634666,-11.2445348966265,1468.97004086553,5.44317385901014,451.403942853532,-7.20436633819662,681.133742573466,-0.112703892274086,211.149089506675,-5.38083111595559,612.366985491831,18.6511750058551,421.065738946762,-27.5244657729279,1400.35594143856,-188.542695516433
507.313818959194,-39.9980334312498,479.913050209164,13.473569585378,1119.1235249548,-63.297697355621,1575.49201439378,10.7306214217804,739.120215159635,2.70732136049584,413.370720935536,11.9341968694029,1148.39902984095,-86.8873481741624,256.908932435739,-12.1008273932954,1497.76687530007,-4.3768125732532,459.276992039603,-8.67473508616109,691.954658710065,-1.18266270130428,215.361872160831,-5.96129734901717,622.885833741899,16.550119339566,425.58566931004,-28.4687576280985,1419.53182963598,-192.217519730107
509.74906612602,-41.0617806290136,480.562991768421,12.6207676034178,1128.24372661691,-63.7962413693494,1560.75846503185,13.0557732086411,722.773552534391,5.52857499689719,406.057103673969,12.2395577159186,1135.42527848959,-82.6116673071959,251.530004833542,-11.1097080428928,1474.96030521466,1.48899422865688,448.231970829683,-7.24286532576292,672.811332457253,1.59254828523576,209.938635580663,-5.25603898826783,613.096985248195,18.0491250026618,422.603076927439,-27.5961995756692,1399.27777582352,-188.332661091782
493.913295899219,-37.9426504905334,473.776275428072,13.7333608926501,1115.27715523432,-66.6579460662404,1541.8180388073,13.5444925726716,719.399228995009,4.80602669247559,402.045066974339,13.2747549275456,1125.878101912,-80.7529093153046,249.403668002508,-10.8034997431947,1469.50788163421,0.753999806146766,446.259941216619,-6.66831819680044,672.045394778597,1.87921512291719,209.859153719886,-5.28916545158114,608.660510515408,18.2818898642166,420.375570153126,-27.0536016503633,1395.28430792451,-187.110405782268
498.201636791446,-38.5272659891373,476.855547816042,13.3610642275954,1115.88201920791,-63.0852021408975,1551.12991301221,14.3817260000905,729.359919411768,4.06505332509649,406.751476263891,13.0339218601529,1135.56517634222,-81.848239961859,252.957361167147,-11.4482844000278,1485.41510803398,-2.01300304371137,451.251105415163,-6.85821306484115,680.979054482999,1.06070314239928,211.471378022049,-5.28398325113777,616.577510677787,16.4859630827618,421.988677211782,-27.716805266367,1410.08064497728,-191.026846927435
507.333128787349,-40.0189046336161,482.854358816001,12.3981258200109,1132.39820957857,-66.3492353992945,1570.20573330244,12.0160302785329,741.570128935845,1.47344706285054,413.406229207924,12.3642326135202,1151.66511243592,-83.9345460033382,257.897966034075,-12.0816123164649,1509.94636040872,-2.74648864089216,459.813835340903,-8.39627306507194,694.349778851944,-1.32602227706654,216.554328520089,-7.46388759518728,624.387082583222,16.229312225008,425.766736042164,-28.4798092694941,1427.46039503713,-193.856037008806
516.209134123236,-41.5841104028276,487.167629549577,12.6065345242734,1151.07497708946,-68.1508816051049,1587.614188595,9.5744250565023,750.551879357089,2.60510614860323,418.85707623802,11.1399096951443,1175.67515261844,-90.0437034322628,262.166995753941,-12.884322593591,1523.74729181826,-7.81629889366709,457.286441130165,-8.1787048630668,689.915064015571,-0.0605204913253017,214.545904376046,-5.11477851164314,620.443241596976,16.8501988075523,424.578276280793,-27.9535230206979,1413.03211032494,-191.96794203375
494.810927807793,-38.0047127049678,476.532605494902,13.7109995778947,1121.143150859,-65.2957070473609,1540.60714405377,14.5999549098712,722.376540717399,5.58151439219513,402.202494106065,13.7611570676966,1129.85389956064,-79.3216269606169,250.292568673885,-11.1199630232667,1487.78721928853,-4.04885334187371,448.33508204321,-6.83821996284384,673.652362559077,1.92631905532168,210.925356407621,-5.96628124353474,610.671682302028,19.1268896644514,420.80644995905,-27.4544591876776,1403.25412146703,-189.778450502664
497.482336026515,-38.4340000846023,477.836014300472,13.3063560562179,1121.51011698289,-63.8026242371839,1546.8160100569,13.916980217823,723.581295815584,7.94876364108729,405.335594639215,13.4392998449457,1136.24594748649,-82.6019483511262,252.892502471211,-11.5372825605347,1490.14331105144,-2.47483807806455,451.262839171875,-6.70570013598998,680.684913148531,0.882471707234806,211.2661235066,-5.33197203535445,615.861378919913,17.4222783635426,421.186961502627,-27.7926591344575,1407.44965619341,-190.49910164368
504.43650440606,-39.6185131828796,482.866269022913,12.8760469502817,1132.34387153021,-66.0273315557556,1563.98651706116,11.3168239014436,737.104512848788,4.29073081219852,412.24835427714,12.282647646367,1150.05630843216,-84.7904112962068,256.810711769492,-12.0297946408161,1511.69544878694,-4.67461539576676,457.89647749853,-7.63868991625872,691.913223012236,-0.582349246583858,214.66552004833,-5.6816882849871,625.500860451825,14.3097489369226,424.111526046279,-28.1633200702137,1421.41631865856,-193.628204238
508.657920582505,-40.3376290584337,484.36392265225,12.4984960367508,1141.96522288759,-68.0120443352396,1555.54562492406,13.0292850605336,730.048473415387,3.38402750335858,405.78343822105,13.895828654697,1147.04214294028,-86.5060831723104,254.125533905249,-11.8108255374684,1499.63443541589,-6.80490870932774,448.576303748788,-6.57624266949011,676.606047246416,1.07218545980156,211.152997891503,-5.5306166643443,613.891084266508,16.6721536731416,421.219954081433,-27.3496059195638,1401.56003656583,-189.499359464149
491.895007300943,-37.460445020581,476.038700156334,13.4602290192677,1119.39629177698,-65.4393044926637,1531.58382562678,15.0858511862375,719.792851656335,5.40199037752547,402.149519105511,13.8717887932329,1128.77936987897,-81.7880789460237,249.959612851786,-10.8817240077369,1485.42620218267,-3.16083213121505,446.139598895078,-6.15218496233721,672.683540306928,2.38309291983362,208.756184546919,-5.29728370457092,608.652962021279,17.7582887884742,417.73021496696,-26.7842658307311,1392.27351706771,-186.981151044316
495.730247067133,-38.1767443636124,478.298494139552,13.4542537815876,1118.5805656338,-64.8584685190367,1540.01180147074,15.1529360789976,728.743699413142,4.8253531716521,405.757619557791,13.1975236815453,1134.61756084993,-81.8017460342356,253.210044379966,-11.6065767437601,1497.69894924093,-5.30454473242716,450.967665667432,-6.6257369570319,682.808381357176,0.201062658247535,211.166146265955,-5.58511079946728,613.665787085754,14.5511620435865,418.822323724863,-26.93088833753,1398.89560282349,-188.079164636229
503.047406899528,-39.0832879354656,483.655414578026,11.9840099684559,1132.7899216532,-65.8768713089491,1559.30384705677,13.1769829606982,737.946645633972,5.22721779797357,411.83574107187,12.8305866406689,1150.52478978543,-84.8349698565525,257.628734905143,-12.3620335705406,1517.8524351193,-8.9062591739728,458.910809969713,-7.68598198915476,693.536858860288,-0.881671693794654,212.820371759037,-5.25757127649281,619.007298752324,17.1248191089928,422.843445987819,-27.9759911560221,1415.90090244744,-192.297178532019
511.964425399018,-40.9918854840959,487.458343141219,12.3661471618352,1143.07806952041,-66.8396257482607,1582.45761477096,9.95326037278794,754.453413752128,2.02673730004683,419.276496561037,12.0590960489615,1169.95389282673,-86.35265464365,262.231443808131,-12.8770697044152,1541.862823762,-10.1260224765109,465.153188022256,-9.0304348693936,704.514063137079,-2.29676845416981,218.911877853787,-7.23860373129507,629.00660499164,13.326206824028,425.86482338288,-28.1832628536905,1414.96558599728,-191.410065978908
492.947919666414,-37.7588023159367,476.870188949699,13.7268860380011,1119.51915939565,-64.3509407469384,1530.88346738545,16.1357528703044,712.382826720244,7.48764662745973,400.642642673311,14.0466585914559,1131.23162998204,-83.586166637407,248.946718821933,-10.7104870577342,1485.55845341885,-2.57602088386258,445.259365921934,-5.69947950332538,671.03353059261,1.7954793929198,210.421031867809,-6.24307840452656,607.364641530345,15.9858893212858,416.802096088348,-26.6616778679156,1389.84659930228,-186.469286606988
492.119498883881,-37.0583688521484,476.395056021989,13.8808845283982,1111.74974047744,-61.6174089604828,1535.41175355261,14.1462919488817,720.830376475509,6.25396319531898,401.947728130373,14.4925959049407,1130.79851812429,-81.6862594274824,250.708076027844,-11.138912966362,1490.50052928163,-2.67616929870945,448.645231597267,-6.15131156038424,677.252764327087,0.989368991392901,211.303413123698,-6.55136413020296,609.890923011465,16.8333686265047,415.925983103193,-26.7693236731505,1389.11272225924,-186.544152856146
498.510979704685,-38.2126911045495,480.599840710935,13.2983907342579,1122.99677655164,-64.9563670719739,1549.96932043835,14.0628740272794,730.285367117717,5.74067486612588,409.112670892449,13.4278952464082,1141.54141605194,-82.5985558994474,254.707878097457,-11.616946204956,1506.93567943743,-3.56929661203325,455.588575950876,-7.16495317313942,686.101854651851,0.391158141956158,212.026345766714,-6.17697045786251,615.085707751219,16.468554433632,418.823284509421,-27.4342268238867,1403.05385336806,-189.258240903101
506.558461651347,-39.9516590596566,483.968638513029,13.1834715807524,1133.27151203922,-66.0505741767649,1570.05997546472,11.4473128116817,743.420178447988,3.4043516011252,414.724661015034,12.3944236588752,1154.75495481219,-83.1548908214591,259.182121790183,-12.5308718106176,1533.17952592834,-10.451503702284,462.492702459288,-8.49229324811931,697.438896242868,-1.75638701715341,216.277669202546,-7.33887091520118,623.932836948399,14.0407676230118,422.823899154878,-28.123908220573,1408.4743373445,-190.773230515971
491.289645762416,-36.9892823381647,476.302939241927,13.662935972327,1114.54552868454,-62.745413477523,1528.78950746242,16.011503018013,713.24607928916,9.03947514952722,398.94475950361,14.8178218469611,1127.26428176808,-82.3430367468868,248.481348432104,-10.6622481102972,1480.91814786012,-1.340019482119,443.432366705026,-5.1226870349713,667.737604395504,2.77075722810788,208.018947593378,-5.84542648833595,604.166938680812,15.7728780231513,414.27120998478,-26.1585966134813,1380.75730499558,-185.729195728083
490.894495669793,-37.1035411004773,475.398644088663,13.9266496693256,1108.10979228196,-62.3063791557257,1532.39012814778,15.95492003702,720.866169633667,6.36238807787327,401.25353547915,14.5765109243026,1124.881040608,-80.4352758199698,250.731570948072,-11.2776652616536,1493.26160064129,-6.90153767203582,447.749237120189,-6.06541394656158,674.924292482508,1.5215805595742,208.215257099268,-5.11414859870236,607.650214197063,15.1430361746394,414.518880008736,-26.2710234487994,1383.13673605074,-185.936257878584
498.126458529566,-38.7116957605004,479.775671018403,13.589436085163,1119.27045574774,-67.1288120303061,1548.44765372929,15.1496126864915,734.849331520023,4.53069916155459,407.775808393749,13.6656204372268,1142.07319155233,-85.8829055991568,254.244022375483,-11.6183902025489,1502.99621825812,-4.59469469053244,453.48872217827,-6.42022656819458,684.137556052708,0.834678328638877,211.047901774996,-6.00983543231614,612.621310277992,15.4734180348896,418.533386484378,-27.4430510918891,1396.24201290407,-188.636116043387
504.982330873817,-39.2328683816019,483.444365770814,13.0189886112709,1129.53824385384,-65.6714755296911,1552.444487717,14.2412318482342,733.996740455766,1.97149539719459,406.111376337,13.9942736812205,1141.29643829675,-83.1899170779261,253.929650504178,-11.5055529020335,1498.16186858554,-5.26926939256676,446.440595015443,-5.52849609482492,672.162376312124,2.27376224242468,207.15514116196,-4.91826338000568,606.612683982065,15.8497345206445,415.770174636048,-26.4223989918811,1380.76441741788,-185.462327030273
487.463561205248,-36.2958245117613,472.899195224535,14.7147037845472,1100.92086285193,-60.9799670602667,1524.64408804231,16.8583694516955,712.876745467751,8.50518815153999,399.171111409843,14.3901734549231,1121.65300161227,-81.6209204703377,247.875186826231,-10.9456402860029,1478.54608587918,-1.69276112142248,442.875621420792,-4.90358127636762,666.675266799604,3.19888024007142,205.622355918157,-5.18882369464833,600.356700148109,16.2127419354177,413.087907378196,-26.3015923679041,1371.20723119045,-183.375689765836
491.593543070691,-36.8727638056117,474.743004557619,14.3007134603395,1103.93463771479,-60.5054259791328,1533.18213397045,16.5935726375924,718.573097719557,9.64724979210415,402.69813470866,14.4860806103036,1124.54700823173,-80.8760448133924,251.198027743584,-11.247938921332,1484.96923574302,-1.44677384512969,448.126355897452,-6.05197396012053,675.126887931783,1.74027709488043,207.414298198464,-5.44010354901131,602.570377214736,17.8718910377516,414.757090125013,-26.6452915412713,1381.52482185815,-185.767712942992
499.71453655647,-38.8306472334792,479.03768855205,13.759897464496,1118.91594529404,-64.1360231586739,1554.19008231257,13.7321105231189,732.877639931561,7.88609087467245,409.865260424769,13.497942414205,1140.92118874651,-83.1652302410552,254.979999826735,-11.5451669220755,1509.61204310671,-4.56481922207774,455.302869462469,-6.927810699353,686.733731167953,-0.0501758286722883,213.16499270455,-6.7364293859754,611.977795156988,15.812758786446,418.910534292887,-27.3266690436023,1398.45129616737,-189.246083177052
507.766621859995,-39.6925791786991,484.791566626805,12.9416170891201,1137.84424472029,-68.3301135004297,1566.4532989185,12.8825798592499,742.403694457335,3.38441539131948,411.932320307698,13.1841313333855,1151.74644504418,-85.6242828461318,257.843090027321,-12.1235929148405,1506.18045608234,-2.49454602653564,450.313032412036,-6.06824289632637,678.027653932263,1.88750149856398,210.058011506915,-5.78876744408812,608.319380872266,15.3771967915356,416.897953928143,-26.9002080653078,1383.40585024543,-185.428936808788
488.553290716691,-36.7548446417232,473.16930070155,14.8249666438534,1105.18550026016,-63.6621538596942,1526.8480166544,16.980422238792,709.660826440217,9.90811791421668,398.487866437725,14.9811867718727,1117.18132202596,-80.5327606460467,247.081713512138,-10.3075770964465,1479.33251205851,-0.979205830420001,443.443101034847,-5.10663724630645,666.64507975677,2.81515112069493,205.156298697816,-4.93689226367201,600.10322794641,17.848607300919,412.579962008079,-26.0438534466927,1372.82120355126,-183.670919511116
492.290040386231,-37.2973655222039,475.301000217146,14.3618498101321,1103.19723579238,-63.1085634954969,1535.73123829559,16.3467917153279,720.586157874605,5.77154486023729,401.914130543558,14.5840608236962,1122.23083417152,-79.6777309050253,249.93155702716,-10.9352331134775,1489.15595074812,-4.41067743830916,447.810191562262,-5.66225462546684,674.056660978899,1.99118365160923,208.759755403397,-6.11763865801178,604.82207369615,16.4688825267706,413.776288077157,-26.6074243273338,1378.18928509,-183.970150877904
499.238400768639,-38.6570800318428,478.845052721505,14.0963404376332,1118.74838438152,-65.0225883363099,1554.35618658609,14.5957865580764,733.813165732507,6.14442582854335,408.347757778566,13.7750802948832,1139.93211682764,-84.6686125100303,254.40757031248,-11.618989543322,1508.19284283601,-6.78811899196307,455.424680542376,-7.11602705831863,684.857987678459,0.491732304466503,212.071631037079,-6.17585956972983,613.856284560204,14.4552537122661,416.87760281465,-26.6265901273256,1394.99880092592,-188.115861871677
507.85419340865,-40.0618751707008,484.344166410611,12.8603725724804,1132.53488218094,-67.2683167079302,1573.39970829468,11.2558435829782,742.590241964702,3.65889172365946,413.146961074481,13.3855602631382,1157.64685947997,-87.9895385559949,258.251195343797,-12.2029485192689,1520.94730166369,-6.92468339894903,453.300862415646,-6.77135261136313,682.687469377263,1.09497807572549,212.011867071957,-6.83240091357697,610.164007456356,15.1341425394271,417.097779554816,-26.9255421437188,1384.20233804602,-186.611332653583
490.585681821675,-37.0857676643847,474.979886965406,13.8223856124001,1106.00124549237,-61.8176712825606,1531.92132760002,15.9965344957954,714.786320035505,8.71862908182424,399.40405679938,14.4652264506113,1119.52808947496,-79.7759270619608,248.409096568543,-11.112672807571,1482.50494842272,-0.844466039468797,445.836112486764,-5.83140766537878,667.872046754639,3.12594926041082,206.769567039018,-5.5616613320458,605.163097973358,14.7620812947944,413.474116699056,-26.20684610594,1375.52787871777,-184.147736779845
493.44874532097,-37.3884006859968,475.948385310013,14.1239000347009,1108.40849089515,-62.7809737711273,1541.26290373603,15.1446692898024,723.919298379447,5.88680376684267,402.898743677262,14.2747988822457,1127.50994517182,-83.0336562679655,250.787654525471,-11.0993851436446,1493.14247278596,-4.40164757732739,449.751068755011,-6.26590491702809,674.933490923734,1.93335560985723,207.934143951448,-5.6225599986758,608.36473053127,15.0660851917603,415.189321875981,-26.4983548818223,1383.24563945767,-185.352109086039
500.870682072783,-38.5623071104125,481.047916196283,13.2957419712803,1118.43359597957,-62.0753552518216,1559.73321167829,13.0887388078143,734.033989313574,5.920426495606,408.937590282014,14.0804813368307,1141.90000808075,-85.1985155147777,255.697954417902,-12.1102155903042,1512.46126786309,-6.37963548245641,457.565522754849,-7.6804239309628,687.266585670979,0.00988503185870519,211.772081945593,-6.07768147209459,617.088089904526,13.476852556018,419.402054400094,-27.4965718169822,1399.47800702034,-189.068933723178
507.552703575387,-40.144960782616,483.300863886258,13.0472186693867,1134.51512785282,-65.6867590423822,1557.60773873346,13.0298796535959,730.585358997195,5.45300591780243,406.153180569526,13.443630047495,1137.89148388886,-81.6178917017942,253.68412539811,-11.9706982937561,1500.30615807672,-5.55424345818694,449.824115174447,-7.10537491050337,673.576158542134,1.60303047161544,209.194860880693,-5.10023781295556,611.216525890391,14.0653870705161,416.72207480184,-26.3244832096159,1383.65472936762,-185.821029007992
490.500787427037,-36.9350411403735,474.752601463193,14.0843333163581,1107.54246900326,-62.3767729683808,1534.58416812777,14.3859142357956,716.388730713863,6.90640325204937,399.716274896754,14.8335416816637,1123.90341592048,-81.7170392931513,249.286935321752,-11.2572413058255,1488.99696950279,-1.92550336153676,447.263820148738,-6.51013411217491,669.872805150769,2.1457639755593,207.824695332326,-6.2023204959426,608.624144776142,15.1375374423949,415.017568594191,-26.4222120555022,1378.46280069742,-184.904492556158
494.580288676559,-37.6420129532681,477.899291630198,13.3467400618199,1110.31804256669,-62.6745574370851,1542.75474569984,13.9624566451287,728.521263684282,5.44000589896632,404.701435639898,13.5770337679513,1132.26691998525,-82.5116512379463,251.965478127688,-11.4487232752456,1496.56225123488,-1.07077145156034,452.598586192876,-7.48225817295793,679.287230711554,0.735337767663799,209.419109275196,-5.89992333141798,612.947241799526,14.3365898106229,416.607822322828,-26.6348529641068,1391.49173083027,-187.723639844878
503.576938133375,-39.3955948275854,481.937284788455,13.5942693412002,1126.972779964,-65.2995040225872,1563.71908173767,12.317659577866,740.339798745102,5.68838560645308,411.163364140589,13.3469946706222,1148.81859084798,-85.9096415478251,256.914543946993,-12.1584962895703,1521.96980782199,-8.05511812716796,461.391728188834,-9.06013875802343,691.809333276034,-1.4335836500511,214.279763642247,-6.70308274475916,622.361079310014,12.8563421023482,420.580926595835,-27.0996069731487,1408.6078013982,-190.864355427804
513.724802454634,-41.5244903578503,488.858261957422,12.2764046250524,1146.90053597785,-68.9643910463193,1589.17032974139,8.44961041934181,753.836923717294,2.20808858255656,418.292764943084,12.4821916669371,1174.75594895065,-92.0550544009674,262.400805943233,-13.2181213485634,1549.51286839332,-12.3114743989035,463.31039884915,-8.79077270228803,699.269686908626,-2.68489627679869,214.135044585294,-5.93797223940841,627.514413428779,12.1024685853038,422.255568090203,-27.5143590778204,1402.69996938212,-189.972549337916
493.33895281239,-37.4710652862885,477.538703458219,13.3806111467183,1119.24112614717,-65.4743971425669,1536.6597445076,14.0687951564652,715.700022609437,6.67554757611069,400.283115621793,13.8245461187903,1124.91462764993,-80.1588644503401,249.753102140227,-11.6135412182268,1495.19886008476,-4.65812479227997,448.398423656426,-6.99188198998013,671.933351776923,1.39519968138862,210.102784393929,-6.21902797849593,614.830851771391,13.6571660194422,416.653453492918,-26.3781538570628,1386.55467521291,-186.44447966471
495.398513849637,-37.9318726600932,478.363120756842,13.3874822961874,1117.68091945157,-62.9107016749831,1542.64828324547,13.6616051701614,726.240347263023,5.3174442703569,404.733129806251,13.185078277892,1131.32113586953,-82.9712171546551,251.787507408049,-11.6119069323434,1499.28385391757,-3.75514254259582,451.955386790949,-7.41685555262953,678.703361667879,0.3185321360084,209.870545016347,-5.74934455932607,618.483415339748,11.6029524462133,417.214515556716,-26.5113309414812,1394.22099866661,-188.108829942485
503.118443048032,-39.0799017200167,483.568500485063,12.5636585515861,1128.48914750186,-66.0661849358944,1561.97478070807,11.1649490972648,739.084314508795,3.9410661697494,410.597712965145,12.7210156041588,1150.79026754008,-86.5206642789837,256.186826423644,-12.234921954579,1520.56653768079,-7.98007240086632,459.317718690449,-8.51241371074726,689.770145126348,-1.18658920930247,213.990452952396,-6.32386140630905,626.336989524456,11.9610382373223,421.141804864781,-27.4957823918081,1407.44661520636,-190.045666205106
510.744016926913,-41.0919828853285,487.901125079421,11.262692444751,1145.29993138641,-67.7977206232297,1562.72929511837,11.9282958379327,736.971398139441,2.06236623306085,408.785571496944,12.7951603541338,1152.43705021891,-86.7689108378688,256.412456190522,-12.6799335368254,1512.37274703736,-6.74150811273764,452.64941032005,-7.8093843721822,678.433147154567,-0.387982988670952,210.873849888751,-5.80719260591052,616.692292498936,14.2893285377929,419.13213107146,-26.6262775298866,1393.46951703163,-188.282690330912
493.018949512328,-37.7872854554392,477.420221847661,14.0599035193766,1119.84294035059,-65.6789974067717,1537.63746032758,12.6523966570218,719.936375285243,6.48762124633325,401.627270666496,13.7335599105225,1133.33357267078,-85.8218403999126,250.593917322342,-11.5403050466356,1495.92642994065,-3.89454243796407,449.510242055324,-7.34446940828961,673.941366660467,0.649232608939678,210.555615713033,-6.56739670603401,617.238776448764,12.9303631319286,417.691976474356,-26.4247355410963,1389.89674763978,-188.085018245386
497.655085710499,-38.7630331694739,480.830480684528,13.0699098899501,1124.28731781725,-66.1977202982777,1544.42519188689,13.418262026339,732.229704227626,2.89324456449844,405.648842641901,13.1765384590888,1138.39306040315,-84.7683027397162,253.560031000208,-11.731359300313,1502.47771193683,-1.71090786221968,454.416214228007,-7.91345126363577,682.491722888281,-1.02893767441877,213.209676608028,-6.48301961765093,617.140073593198,15.6492653078048,419.304292652161,-26.6905609381457,1401.70440035806,-190.268331000044
505.207459726393,-39.6950448402356,485.011959472228,12.7104276637486,1140.77290750051,-69.9925539456367,1565.27148106566,10.1624987617968,748.701031061265,-0.451036544355161,413.215347948589,12.0365836139039,1157.37235225346,-87.657153123402,258.72831052701,-13.1584547138464,1526.76697125106,-8.2925796958198,461.512553930386,-9.28052215014682,695.523411571734,-2.98726914647283,216.335062803605,-7.79364847781799,633.544945406912,10.1308205114485,423.734561062172,-27.76119068123,1420.40809712173,-194.691190703824
500.753714244143,-39.3417642377824,481.33777570348,12.9994682024361,1134.16532028664,-67.572114512208,1542.47762483808,13.3146396999224,722.693341602376,6.10043864110753,402.832184207213,13.7340031292992,1138.95760368987,-85.6061570582724,251.66315048542,-11.7998230646695,1501.64309214894,-4.81931788104395,449.385821891379,-7.20090175988279,675.523892010899,-0.268741693593578,210.722806760004,-7.01760677491654,619.098245322951,11.6543103516039,419.365414720529,-26.6736859641615,1393.22039093189,-187.74720774131
493.694756648754,-37.9685941362497,480.052886772218,12.8387965966881,1119.00694675021,-63.1038645615954,1531.63239501559,14.3106981065201,727.246269907231,1.87634297859208,401.383945217216,13.5786612553262,1134.72067212564,-85.7050852851988,251.385972020875,-11.8846285334311,1497.48000628496,-4.06784397293219,448.550422055041,-7.03951318782275,675.381061010551,-0.0236639041193798,210.155183022835,-5.7860576102764,618.020181584326,12.1623360666041,416.802169712044,-25.8528091330902,1391.56822589523,-187.377252044434
498.950958390075,-38.6193309450119,482.133718292548,12.9155225819935,1126.64835511888,-64.7292424208272,1545.35119841342,12.9475401668752,736.015558530533,2.93364224905699,407.991533564295,12.5057380653348,1143.17323316335,-84.1849244167444,254.993166094813,-12.1110425458877,1512.22922864963,-6.38990242199215,455.425665172613,-8.1741806241702,686.05036662295,-1.51035981138634,212.183842728488,-5.93066845718533,624.972621734251,10.9527434457317,419.790393178253,-27.0202912050629,1404.45977660148,-189.970144236852
507.390417713285,-40.4074099311651,487.103260997479,12.0086176336099,1144.82288785947,-70.9418156664212,1566.14551490321,10.7955654801886,751.138681213158,0.000724019046159739,415.01665564042,11.9523209468184,1164.17888923269,-89.418427358244,260.182909147963,-13.0798325562967,1542.02893073802,-13.6923097762995,463.187329993242,-9.14871077728827,699.708575424122,-3.62145798468857,218.252971615954,-8.21411244952575,636.098053564001,9.40898524408193,423.878263964878,-27.493672592377,1423.67875748525,-194.069249218109
509.266939733763,-40.8711130393603,487.510016473722,11.6635962031305,1146.37826181882,-68.1964988420893,1552.40680448263,12.2008219342339,730.711038890986,6.63081424308321,406.56558849587,12.8159112457754,1150.67842848489,-87.7048095114639,254.242209795821,-11.956952321733,1511.58968100798,-6.83833334888377,450.900518018528,-7.4247154990043,679.13790029876,-0.43226996912488,212.819090152832,-6.79323653475393,625.362461820396,9.47720935732209,419.995532413954,-27.1688900741772,1400.93861001106,-190.11825957393
494.574261458049,-38.09929987117,479.914106800489,13.4319373303967,1124.44028298036,-65.178642185034,1533.05155987155,14.2384064087098,729.664650066132,3.4713557831047,403.000992384664,13.0648905160679,1135.06566443635,-83.6317258074368,251.869901760628,-12.0263117301662,1502.54346759659,-4.33430996648059,447.817448154849,-6.88087083984784,676.54371035907,-0.546418774308448,210.739056043384,-6.61143395305274,617.881996625819,13.069231498474,416.179226412891,-26.2510847088716,1393.29451981415,-188.38227677119
497.699854163543,-38.5054233892868,483.667813539487,12.0040392841895,1128.57237290775,-65.4518660898796,1542.26664677796,13.9174691909741,735.760357162924,2.52586521740133,406.954358797291,12.6624053195281,1146.44410819123,-85.4192175126386,254.847593786383,-12.5354064055904,1515.26645851545,-7.45217467779135,453.610433903462,-8.09014056262804,685.08303288924,-1.40245485752969,214.637731247307,-8.63415064674576,622.060087271808,12.182408433233,418.215189812568,-26.7474549161992,1403.6727555838,-190.575216810368
505.407214451734,-40.0332282578447,488.053355668943,11.3427664302066,1138.63303528202,-66.7334739609892,1559.0180834032,12.6362173543254,748.584167295157,1.83898221049023,413.525123600485,11.4374020720893,1162.51322262885,-89.5724532594382,259.440422070905,-13.1451528119692,1537.47872616442,-11.1698617059644,460.416101613385,-8.96147873645067,696.115791812651,-3.29358268771814,216.125612626365,-7.30812016521115,628.673347023431,11.8316247537133,420.936327538621,-27.218494155538,1420.78180335833,-194.317790088559
496.509489419845,-38.3645888765207,482.115242284838,11.9618081685966,1130.57239804594,-67.7576511611634,1533.63856449809,14.4914973723428,727.761999294633,3.6765200385781,402.664496678399,13.0989202251551,1141.67330329284,-87.4397445852788,252.30232306533,-12.328393140541,1504.82464141191,-5.22600050692479,446.892789749937,-6.78178745744371,673.666134696787,0.336312217693517,211.821935497084,-7.50098017701664,618.124889863048,12.3304978483785,414.470207250013,-25.8458648043126,1392.1567047731,-188.920352023841
493.796152131684,-37.6159513437529,479.76023884947,12.8448821806104,1120.72082586117,-64.8680574021065,1524.6742434976,17.115050850889,727.531639403387,2.07388954549781,402.293777102007,13.3481840705521,1137.78661843747,-86.2529359778342,251.760790939774,-11.985634289112,1499.89261198679,-6.78563264794275,447.725035083273,-6.97726169434845,675.666392712153,-0.11945146422774,210.795528780047,-6.96243002580318,617.219064236862,11.4615760251428,411.856454296336,-26.1128898912346,1392.45979823562,-188.541075064634
498.599284243133,-38.3506765314827,482.914990940113,12.1917554623476,1125.21004100172,-66.305033591686,1541.39241528151,15.1280104213965,737.832224977108,0.502121157934586,408.155971527637,12.0355391740948,1152.56198679733,-87.121828011478,256.19740952337,-12.92332226529,1519.26966098184,-6.6948123527336,454.983154329678,-7.60501888661592,687.539236035606,-1.9190547413914,215.29171310323,-7.81943449730851,623.058124584887,11.8576868593765,414.056848633185,-26.3332371820748,1407.28810758314,-192.133707342589
507.333574109919,-40.238099494321,488.54113011592,11.4477091051918,1142.44280883539,-70.0810290093119,1564.90409968567,11.9494161854577,750.985758327817,0.245226386160803,415.467312047257,11.1846375894366,1172.40061601335,-93.1563416684184,261.604426055352,-13.6603688442781,1544.14621785751,-11.7474869508638,462.771423839646,-9.19992401384191,702.043097988286,-4.10974899776092,217.388428465524,-6.6162222496036,635.058481435977,10.0850583161086,417.538910752692,-27.282718776816,1423.96796958989,-195.035617329818
493.258949250547,-37.7829600602148,480.479056317053,12.0141954435516,1120.14559645017,-65.1933368207795,1524.64266662494,16.8365166065687,723.999344570674,1.82391942040897,400.492215238211,13.0001375997659,1139.44817735469,-87.8789098237355,251.12333379822,-12.0834988449657,1495.37991655003,-5.10379335226616,444.374702070772,-5.9375893473825,671.987296591815,-0.200458193495249,211.256475385884,-7.70130811502582,616.500216479575,11.9382348578474,405.494161663864,-24.8220338527367,1390.83348387135,-188.827822640677
491.894618523809,-37.6205920362433,478.975665575867,12.7473252265846,1112.43201688949,-64.9158005952659,1524.43768641596,17.0098643235222,725.248030296997,2.75327261554378,401.612910784361,12.983583068438,1139.70251671574,-86.8451493849882,252.237323490642,-12.5517194416888,1492.29491251071,-4.55766999416874,447.815711361925,-6.36171316795891,676.241911539017,-0.505710152085936,209.719401651453,-6.00982918317983,614.797329326237,12.6985893472998,406.296956925941,-25.1698008363588,1392.03726509106,-188.602019248679
499.837932596636,-38.9256522230941,484.256977643872,11.8725715931251,1120.94942723738,-65.590426106397,1545.60654819355,14.8680344934376,740.782139214636,1.54915486576468,408.432244667743,12.6508995909949,1152.58975451569,-88.3352214071109,257.499126910761,-13.0718510303608,1517.62216630508,-6.46664383961921,454.943721058757,-7.26015365041532,690.566161889428,-2.43986394782552,215.472685878784,-8.31210244815784,625.858141191193,9.3804871374973,410.574689412514,-26.0968755710947,1407.64321746465,-191.098963464033
508.47253963027,-40.4020456826284,488.934398820681,11.5746109089371,1140.95429382308,-70.7075063832504,1566.87845667331,12.2397347468624,757.478760399813,-1.84199969406796,416.358327069262,11.170034460798,1177.40031192065,-95.4248268763403,262.235447600748,-13.919389880862,1541.08326519027,-10.2985838168796,463.079754787935,-8.63894574215616,704.430793722168,-4.76825463513095,219.686890803037,-7.75360192925147,635.547348047914,9.33507524049462,416.913571607234,-27.4487266794195,1428.58070508854,-195.638870223014
494.853957232809,-38.1317788455825,481.418869097883,11.9677439807201,1120.16216244394,-65.2015965125546,1530.68376662408,16.7432540112696,725.587296771462,3.77049878825094,402.282091323596,12.510016099345,1146.80509756111,-89.8806446768101,252.759345694491,-12.5001164897328,1498.99533120681,-3.24207329914364,444.230610689947,-5.79893875900033,674.275840108263,0.289151630996276,211.163561235728,-6.76112888896486,617.724167290026,11.1932001427697,409.326649954091,-25.7235452709396,1389.93471283015,-188.359773520863
492.908612158662,-37.6622768853811,480.008210646737,12.6945629556734,1114.71970740326,-65.4664949013892,1527.19536191161,17.7681051753303,734.440416752948,0.133252213320521,403.272161902248,12.4609075444084,1141.87390732681,-88.8448002759708,253.380861629808,-12.5921987058582,1502.12299977635,-7.63869345422451,446.569209619694,-6.00325960961576,679.847128885359,-1.23690004880935,209.266822872446,-5.33856633230098,620.898483665163,9.91616852103676,409.923414944018,-25.464979910529,1392.81927144908,-188.705935170013
498.655888643435,-38.283297220471,484.736016751513,11.7352299472761,1123.0953802113,-65.5498306753573,1544.78900904815,15.0318300226023,744.986205697374,1.46967400584884,410.368587873449,11.1616195043998,1157.53464225418,-90.043459480201,257.678644264378,-13.2183912924172,1514.64112333276,-7.8855513464647,453.34803379295,-7.27188995769615,690.946019743311,-2.2055607539838,212.024960195711,-5.88389742133233,629.822516788328,8.32741556290129,413.369540476255,-26.1111654731237,1406.86858368667,-191.710986899279
506.953312327349,-39.8308057350475,489.012381538658,11.2958110453167,1136.89407468337,-68.0663466218776,1552.54812075079,15.4243959273298,749.467084452255,-3.59849048763554,411.588963587598,11.0678403550418,1167.51735055714,-94.7494112773216,259.842304556234,-13.8369065449384,1516.66440025186,-8.74068948686856,447.528698895126,-6.13349768435493,682.22437021631,-0.523606283693221,212.343342630105,-7.0054505383431,621.934045035833,11.2556857982536,413.028953902461,-26.3747750053424,1393.36773072558,-188.826769661107
489.607036718737,-37.089799073015,479.513074986089,11.9473036422284,1110.55916123792,-65.6678993572813,1520.87150871714,18.6962809808921,729.682461519581,0.946457207129836,402.692229422461,11.8613614642366,1138.49197503632,-88.4321841201857,252.084275399838,-12.5565491855367,1491.06994323269,-4.61514176457547,442.29162986175,-5.01499867167345,676.437140271728,-0.0772801104070029,209.747661674849,-6.77358550069063,617.322488339099,11.1622313679637,409.313767704768,-25.1914198264012,1383.4115726988,-186.150088414242
492.814878288549,-37.0491720386537,481.608007673089,12.2930648683555,1112.01823809383,-63.8487234908828,1530.39398286717,17.7716173580824,739.399257175706,0.014996602849674,406.115081453548,12.0749296281837,1148.12028982167,-90.8682194954476,255.377766455229,-12.983654812821,1505.04828862313,-6.08869153999911,447.903317655364,-6.27847032691212,686.756163535678,-2.39164840337084,209.879225720768,-6.04559299032359,620.529520512499,11.3736971389578,411.672970560815,-25.6778351272285,1395.78368811042,-189.12948722787
502.45943073479,-39.4759672721272,486.214316778374,11.791492255973,1127.12768370918,-66.1116003257758,1551.90014365672,16.0617432453978,749.211496528125,0.1605465576961,413.464921687936,11.0855859967434,1166.78454569097,-92.9425470844596,260.279262183703,-13.7867466285516,1520.93842389538,-6.7474762791307,455.978417263118,-7.35851616158218,699.019221222811,-3.79858580336849,213.02612738856,-5.90726065067263,629.461843085549,10.685130923707,415.544996436393,-26.1221735686073,1413.56507882411,-192.806546031712
509.77181009011,-40.7709134475823,491.431683661318,9.9934036398246,1143.87937469835,-71.8516751245934,1552.27806504862,16.0585211966931,746.760773963188,-1.05118407053211,411.543205197891,10.9938908094773,1164.15622836104,-90.5811518464885,259.386364115243,-13.7696349203668,1509.52273568203,-5.62936145074352,445.806349324262,-5.27758994730307,684.637536436347,-1.36412959916247,213.059515115765,-7.43132792853795,620.773159658602,11.8344812939064,413.631499214058,-25.9322430972225,1393.27721088811,-188.37846630137
490.113334648478,-37.0269559147403,479.548543472191,12.1169461482164,1108.98784471529,-64.4215699437282,1521.42313122081,19.4257305718755,732.289293454067,-0.129597485235629,402.429412827751,12.3667461108377,1138.5000257879,-88.6424515550085,252.28080918666,-12.6670079786246,1485.46260453402,-2.0795895558785,441.901570536298,-4.8246940346473,678.850615787653,-0.906458860645398,209.066260087728,-6.79201691164934,615.325815826638,11.9409212337125,410.551092156578,-25.4404321468698,1383.60378895615,-186.508826288991
494.534993531094,-37.4472723404438,482.495227817129,11.3471322441546,1115.23793869187,-66.9646851306784,1531.95953212638,18.7037870501606,739.020102692997,-0.296610381519957,406.874740631098,11.6331886750126,1149.31555317472,-90.6476237589143,255.39462516657,-13.0391443405769,1497.77113889365,-3.41954019262983,447.214864883603,-5.34429235082606,687.618894831321,-2.02670200959403,209.885744082376,-6.64750667583512,620.254596693183,10.3615730835247,412.308000127347,-25.7924339704233,1393.50747063324,-188.196161435588
502.711846677984,-39.1119870342982,487.896826406743,10.2266518043247,1129.07860882506,-68.2004820415779,1553.07984786699,16.491701805734,758.490269788936,-5.81661182308862,414.166979336529,10.7682317313762,1167.94726754514,-94.3874954583318,260.380498882797,-14.0860054613529,1518.2742268103,-6.01009258029183,455.410778520429,-6.97666432432871,700.271709618026,-3.68801764086377,213.93799188212,-7.35982176961847,629.401839073999,9.29700374771976,416.151834858572,-26.5742603829226,1411.83872148112,-192.335853095579
512.649006212959,-41.2575634511617,492.113987765849,10.1373309397319,1148.95467900732,-72.2282714091811,1577.59102961074,12.8407116133601,770.565075622165,-4.90312932554903,421.740383851264,9.49719594855707,1188.59128592222,-97.9797936923786,265.722777637529,-14.7128222088968,1550.71445943096,-11.6001659897747,462.986410725252,-8.25303279557195,715.079358403597,-7.05596388513659,217.669359301041,-7.32206365477134,639.980329531361,9.87360478063191,421.18576074899,-27.3308450965526,1420.893751695,-193.776722519248
496.152741346196,-38.0922102971999,483.933883085703,10.794317057464,1126.50291545736,-69.1005897225271,1535.29750212582,16.9852208891653,735.047068571472,1.41244456200603,404.423138894989,11.8955158219234,1145.93432468486,-89.3876607485153,254.050278076467,-13.0048809040208,1495.90879500315,-2.65126972537788,443.759213798211,-5.1331863164697,683.006355972682,-2.03027625582039,209.763066345795,-6.8885712753648,622.464120399765,8.95196781588612,413.847713512634,-25.9393796500968,1395.25888147726,-189.575544330905
497.508645104951,-38.5574783134862,483.519231939317,10.7405584982027,1124.09939840595,-69.7514070658121,1538.47859287437,17.0241428954299,745.564503740986,-3.88087022958582,408.145634836199,11.1430547738734,1151.76085041985,-90.6621182743649,255.435086236947,-13.1544374952264,1506.63116708227,-8.48806290875564,447.716813130666,-5.2972424141487,689.137599605289,-3.07052651320807,209.657323502004,-6.45232490158322,622.866490059255,11.0359952670094,414.865573853126,-26.2459164312146,1399.03532670313,-189.879476114735
504.058579209475,-39.5651650197077,487.346214714417,10.6160070467556,1132.33940404765,-68.2327371669841,1557.13369359695,14.5299840706338,756.945293677117,-4.45232597574195,414.470769572206,10.282332461733,1169.23691955567,-94.5234109656616,260.717209487295,-14.2567125286945,1522.51707413719,-9.38294706177476,454.469761268411,-6.62864393406046,700.7093665423,-4.78794154496712,214.566704647109,-7.52848345916714,634.282767352338,6.50393462238669,418.802067952034,-27.1096247101791,1415.53898921707,-193.74494467273
512.766657496666,-41.3319529664751,492.768018117872,9.56060120730121,1148.82623428446,-71.9921248799331,1566.04075720124,13.8341211837665,762.816283551941,-6.76316273132816,417.035484186674,9.35298393306942,1174.40046266892,-95.4213181144761,262.737184214716,-14.4296609188822,1525.1721253932,-9.8454564386374,448.873844912524,-6.15470432005526,691.144422925697,-3.16427726011477,212.213730485251,-6.9992018186349,627.585200991718,10.2690333714674,416.648235143683,-26.2863842692187,1398.35062448207,-189.288389921846
493.708705507196,-37.904182546072,481.989525006083,10.4687161124256,1118.26887636186,-67.5072466024939,1532.61793469248,17.0912639213174,739.515816773004,-4.55219000168036,406.227289306105,10.4275701021468,1146.412848824,-90.341780781023,253.329261271468,-12.8099462314954,1496.09553222465,-4.06103875805349,443.681388858254,-5.11435926061482,682.650091067986,-2.22529609410248,210.050079828139,-6.48060016037343,618.77730136999,10.8047720806728,414.048596135447,-25.9202782358462,1390.39531063576,-187.982209747451
