504.120226016825,-40.2228549805788,484.231266022345,9.80687657271069,1153.59800421108,-76.490130301425,1559.6094998504,12.6796517254151,750.759362216697,-7.03678863470591,412.907888259119,7.84088524195792,1165.49270379483,-94.8399553358402,258.108941509228,-14.3632687763889,1524.23534727349,-16.841505330022,453.913861759445,-10.5209786151704,691.302174642732,-5.71141702501401,215.828299321709,-8.23076868916125,624.092523640297,11.8338164974499,419.413942689095,-26.7510051521871,1401.11675841947,-190.401037835792
501.670237482902,-39.7186011872803,481.974017221651,10.9599000906115,1140.47418521559,-73.5360781593873,1554.58625501325,12.9856411600658,751.498228236501,-8.2343103651004,410.994807847384,9.11397099179637,1165.52036174546,-98.040464634303,258.148593575384,-14.2056621631591,1525.40099956277,-16.75732968177,454.903723162418,-10.0224023540679,692.983223617514,-5.32493903021623,215.439355906098,-8.47085488224819,626.606420851641,9.82299120256218,418.389381746293,-27.0462209293402,1402.58053354106,-190.842879729985
508.207714925733,-41.2615894901739,485.794706386372,10.0731712841729,1148.55054712839,-74.8764062482067,1570.53785673351,10.9911406294844,762.385289032303,-9.34308444596279,418.431330663513,7.46258486700323,1177.44529739924,-98.579960449882,261.712122974563,-14.6674600971706,1542.12896183779,-19.4607478485127,461.471691018767,-11.2723100182463,704.212108764441,-7.5767353981905,218.622372165886,-8.99440814782291,631.297940797864,9.91027530664122,420.68253102788,-27.1868555622119,1415.26892899801,-193.503738163956
515.265546559179,-42.485465077737,490.306762589616,9.78960931178425,1165.36681293445,-79.3216700007036,1590.37753543088,8.67862752643818,771.48292122433,-7.51663971330755,424.664464791113,6.55043527940846,1193.33592282057,-100.787978686315,266.330929166363,-15.7241983154063,1561.14431658476,-20.2891641514105,464.503756849572,-11.4276891485882,710.455729723014,-7.8038028336931,218.485943763095,-9.3026805420085,638.631608489346,7.40849510964705,420.863260559125,-26.9038718317089,1406.92223714786,-191.418491311179
499.896763797722,-39.738428166716,480.56809930851,10.4375769467078,1137.22580591035,-74.0714724967606,1549.82589340971,12.5651227534428,747.324156210093,-7.81237542286771,409.313506405069,9.1129765824715,1157.70837856688,-95.0295509870518,255.961482620239,-13.7884255523352,1516.86690413146,-15.833798800436,451.675694727938,-9.58867295781468,688.488008836135,-4.85013493704123,212.344553487755,-8.04347374155085,621.558628717108,10.7257639447506,416.236578991605,-26.123295497923,1391.55397384068,-188.195905370102
501.676040395682,-39.7467889977842,480.502580277881,11.0915939121681,1136.46332519571,-74.0386509912994,1555.19814097979,12.9460691851175,751.419482416575,-7.63105300106938,413.301220972954,8.2023426619814,1161.42808858837,-96.1486597971528,258.40845001412,-14.0438930657286,1524.30468191739,-17.5626227073309,455.028427127463,-10.0903736654811,694.849141968788,-5.29596127326091,212.850571460186,-7.62639305224525,622.954404247174,11.0273574447485,416.301601286897,-26.0924146034638,1397.09261213419,-189.471753450895
508.850502397403,-41.3769490242082,485.17981598237,10.3691088028666,1146.09585178774,-76.2013635447311,1573.98890194305,10.4315624920246,768.655955083426,-9.97508361524771,418.729508278494,7.79041025614728,1178.31217036075,-98.0280427492534,262.692176654905,-14.6895895286368,1545.35229667662,-21.9497473330772,461.629550107254,-10.774994107205,705.820594281442,-7.15133590428334,216.849021911839,-7.9808446890746,631.077554568684,8.75769521296177,420.028825285369,-27.1069282851063,1415.40057563889,-193.510436549904
503.793059374308,-40.6918476660583,481.561794417658,10.7314509680161,1138.66218169958,-73.4690595052572,1553.74249712322,12.7868037666335,743.584870604445,-5.1238504664825,410.169066409357,8.37953652585939,1156.49140374545,-94.1446137067526,256.635361036777,-13.8552738864732,1517.77606166519,-18.052625545706,450.396095981669,-9.01403622334922,686.375602163408,-3.5843672416357,210.840812029858,-7.56142890583178,619.511728376194,10.3210447441316,415.086645188064,-26.3412179035553,1385.75005579554,-187.448721836194
498.30319211784,-39.2877891716909,478.04818234486,11.3189993904287,1126.19991898399,-72.4922822123542,1544.12502859192,15.2012817759529,745.726866260819,-7.28392098224665,409.394137205366,8.62877450079244,1152.02267379399,-95.6106259835009,256.108252078673,-13.7542515839845,1507.30419268657,-13.079576815042,449.890642055221,-8.9412260469757,687.086047222757,-4.105191525422,211.634224365327,-7.88813625215332,614.059121531498,12.7061010487738,413.240913112257,-25.6626858155241,1382.68963455949,-186.753107976737
503.064753719459,-39.8776256171471,480.43987825313,11.5610290312297,1133.30403575667,-73.8568538255165,1559.73885706253,13.4094378462365,751.738700859446,-6.18294622002885,415.154010725758,8.01354707090598,1162.32634898662,-95.449500884882,259.399958633949,-13.9467785035614,1525.66250476869,-18.1760669994472,456.516147752866,-9.82510127238653,698.713489224174,-5.85850276274715,212.539561785982,-7.61843581866793,619.422192220872,11.6581244343414,415.925685846357,-26.3269252021463,1395.32099701732,-187.878415277738
511.241795517814,-41.3528516881344,486.152931023416,10.4133614978681,1148.04486335143,-74.3217412408674,1580.20637129086,10.8372853450698,764.376237849628,-7.41999096302214,421.655260681231,7.50402528811137,1181.77108093114,-99.6984710322277,264.223307852486,-15.0865905478756,1546.90186198721,-20.8502814745788,463.635994190374,-10.6516309895103,709.789941537255,-7.55467129250672,216.383253222454,-7.47537517417479,631.090872598784,8.11323713233755,419.476185461272,-26.6509521987748,1416.4908533728,-193.623210063589
503.899453622714,-40.1858136765409,480.82753865432,11.2664510144919,1138.63483302106,-75.1398490048885,1554.62083073024,14.4863585574379,744.532095883611,-5.57608088226527,410.955128174335,8.12966141057204,1156.91171793362,-93.9968416160836,256.093865802907,-13.6244624636253,1506.89688612496,-12.41275298956,450.403549223096,-9.08126837326334,685.972148838309,-3.73569565487164,210.706127186093,-7.50672813260128,615.926341252617,12.9266396826548,413.431667609153,-25.4086383434721,1381.81108269439,-186.018504557274
498.058991405162,-38.9815627009293,476.888780641962,11.8061973088797,1122.33296348781,-70.0151666537052,1544.43787411005,15.1040917876442,739.438140904307,-5.39451275961058,408.199479777075,9.27131280230447,1142.15400705919,-90.0189124721192,254.598766191441,-13.4579917639055,1496.3866938211,-10.2632926554128,447.570236670423,-7.84055701917797,684.825057494167,-3.6426350394906,207.658188407471,-6.38615571338323,612.392470896765,12.5482461044949,411.422707272052,-25.144187130985,1377.8438954424,-184.442651528679
502.369320454164,-39.7500943333597,479.943695807697,11.1393335031029,1125.59138020996,-70.0662627168034,1558.58042810187,13.6748211287934,746.888342113274,-4.36391715096153,413.901130556664,8.37179933285825,1155.55501505533,-91.9321686276896,258.225893619897,-13.7143970580142,1510.84553508199,-12.692645112535,454.829540629105,-9.32876498105741,693.10844919131,-4.1860509078393,212.361205003043,-8.0091318212238,617.496421981593,11.7246407865411,413.530638801243,-25.429990459283,1390.23061394563,-186.979341833963
511.024310232782,-41.524387663903,484.839000828284,10.5946218544045,1142.13625458291,-74.2635874032124,1578.44295085943,11.9560849924351,761.972601700782,-6.3693460105788,420.235882973356,7.86364611899261,1169.2471510035,-95.8373543028476,262.411152427455,-14.5581132110901,1539.66220702684,-19.0417404052739,461.931927323613,-10.0724492088779,705.969941937243,-6.05405076524207,216.551696621339,-9.0205247466246,628.24346948686,12.447677627053,418.331610996187,-26.7072903443672,1409.87685128135,-191.221906905686
519.608947099822,-43.020691835356,491.691676319893,8.90534754822834,1157.06428965404,-74.4977292095299,1601.52126704451,8.20174250997625,777.249414448026,-10.5002152259647,427.080875589216,6.66768000868976,1192.27292151371,-98.3684159548793,267.649390341742,-15.3864335214753,1562.227019071,-20.6537647259136,463.812217077622,-10.4259268091971,710.173651823648,-6.51123537337645,215.974527732557,-7.05237426142675,627.918499722326,14.0397736004983,418.597617276734,-26.3592275595864,1401.41473080559,-189.58195135262
499.643507680443,-39.0741099156344,477.800892392204,11.8259871256854,1125.59506045132,-70.04625548197,1551.22072241616,14.2854675622931,741.101734801588,-6.25834617535491,408.908234053016,8.89889549915865,1145.5083022408,-92.2537057836249,254.176586375692,-13.1458421981618,1504.69520737519,-11.5460372819789,449.494428888951,-8.46836186680654,682.529126276221,-1.98658277477179,210.835555448028,-6.97575235121343,610.83437915784,14.5093648357012,414.039544414705,-25.956362555734,1382.74470277053,-185.671406593904
501.20331434894,-39.6534230841111,479.400751262299,11.4638033425139,1125.2844948824,-69.2289184447614,1557.25420358502,13.6697143847117,745.073120468544,-5.94569250918561,411.814660372435,8.72275334447631,1152.44195078181,-92.6152609127565,256.109552249872,-13.2065684057961,1508.00486102283,-11.3926463830843,452.172166598769,-8.58540293032618,688.045877099962,-3.02043246774869,210.735067057195,-7.16159479123916,617.952415161015,11.9643150902034,414.495175922236,-25.8560567249905,1387.49975474606,-186.641076933306
509.135474744903,-41.2272769589621,484.062510378395,10.6314174545938,1137.62104140634,-70.8634898250386,1575.24843884339,11.5223585379832,761.681510776391,-9.43400896275215,418.409406980351,7.82147106222753,1166.42880624644,-94.6405618343337,260.430987949825,-14.0294169177075,1528.68901193009,-15.1750861137538,459.675110302765,-9.84047818077636,698.842563790103,-4.96858741247006,213.586412315013,-6.83328162518863,624.403907580036,12.478103733995,417.978448456352,-26.2763926597355,1405.36030633993,-191.084707556533
517.509667131324,-42.7628110572528,489.24783305251,10.0209849889237,1155.3660935339,-75.0318353916035,1595.47946145732,9.39718629347172,766.789727849591,-7.33625968993827,424.814456157091,7.09779913694747,1186.4544788748,-98.2989661596162,264.801780795857,-14.6015676297937,1553.45906060128,-19.7438119897085,460.224335450197,-9.67360907438647,702.825829922813,-5.34799024557299,215.789253651479,-8.30441267761489,626.714372956409,12.1991527390737,418.316408975267,-26.0867215975686,1397.44436416555,-189.865730244215
498.708949337387,-39.1767426156389,478.103756967619,11.6294518583391,1121.4750575284,-68.9158850419202,1547.83259309334,14.7521914729361,735.505214967469,-3.97422539548804,406.828692586268,9.69444647765699,1142.05798738653,-92.1340459075508,253.45388761461,-13.1738315084675,1501.81150511978,-12.2673986113498,446.844533515117,-7.33728418799616,679.477319168303,-1.522034707695,209.596812877577,-7.07316597117251,612.31774138993,13.2133273766238,413.535576839222,-25.4838782142049,1380.82439403336,-185.137084974107
500.620448681364,-39.3483948772008,479.517093438224,11.5329174763678,1121.51813925748,-68.4798036453374,1554.8893549437,14.4373560500233,741.857550363163,-4.04819636079106,411.133071435001,8.85298034299133,1144.16067087708,-88.5810130513821,255.65075173932,-13.2500713104948,1505.76055647583,-13.2819105696199,450.546978274947,-7.47828197071427,685.343609721507,-1.55673454821668,208.080020985859,-5.42071560358697,612.947414424553,13.1059579906473,413.950206847378,-25.338578881043,1386.37008711648,-185.958672582901
508.655387441649,-41.0271580023534,483.650177259881,10.5872476892117,1136.56467235952,-70.9466410411808,1573.52552414389,12.5585723947057,757.508118485154,-8.6925432316369,417.014749646876,8.66978217959276,1164.39376950809,-92.897262654482,260.056619523543,-13.8441526999482,1522.99835632008,-12.2015657635278,457.793643219704,-8.64706544380915,695.749497786868,-2.98158795451297,213.905457886923,-7.57162874612885,619.390187197421,15.8058380151555,417.623063090562,-26.0787396319191,1404.33560112587,-190.446073652353
517.013858754004,-42.4151574790247,489.957415332672,9.63995125796528,1156.72634449004,-77.4823710821451,1596.71759895549,9.64923345871214,768.597743390283,-6.54402565864013,424.290904137463,7.24399184647633,1181.20730573636,-95.3979188142542,265.153192038534,-14.795459083805,1556.28946738309,-18.8527836048606,465.228671218039,-9.90730911953392,709.021855952726,-5.11732092203191,217.146899634322,-7.19468917565272,633.562562721466,11.1001979734637,423.276776028893,-27.284756103408,1417.00766043042,-192.942920945724
500.979757398382,-39.5896702789608,480.928818486629,10.2794177005745,1130.6994379463,-72.491565228114,1551.57345290765,15.3946290720632,736.459310631335,-3.4819499730399,408.027832066042,9.45009545476406,1144.78574102648,-91.635895155832,253.465454033406,-12.7846409673484,1499.11413133681,-13.0694877616723,445.575362557236,-7.0694085368999,676.669358391135,-0.747880297052373,209.946569484132,-7.7435072827491,609.351861575251,15.2556178911152,413.707209809877,-25.35648184959,1382.86945210804,-185.947437410543
500.645497547335,-39.6749878062221,479.706944174935,11.3527139060184,1127.09295745447,-71.7405763127085,1551.57185090589,14.8123948222579,735.5555222428,-1.03702423590772,408.85230385011,10.1140070356934,1147.51914875256,-92.2419685037481,253.912675322551,-12.8965735807644,1498.88207868353,-9.56227406300706,448.336880576674,-7.31376945549208,679.969640398711,-0.511967938541082,207.612817069835,-5.56574201806097,611.116340883134,15.1315837301624,413.680044968018,-25.6209122222478,1386.16321203139,-186.147682714894
506.775938140274,-40.3659049642354,483.556194069432,10.7909008556323,1131.94193491453,-70.244879072201,1568.4122022892,12.8523353625228,750.540979824675,-4.06318372821315,415.133947838796,9.16289717065171,1159.88927623568,-91.1707660203243,258.214617659149,-13.4829685931569,1517.73462991176,-13.6336319291345,454.165957045823,-7.65872060558314,691.334466287456,-2.62318033420779,213.479602464525,-7.02710004620064,618.060265357517,14.572842247862,416.990016891016,-26.2140874800452,1401.24245149591,-189.109378608641
514.507609706906,-42.003803617224,488.908599751456,10.2551925086374,1147.45626117199,-71.9518723181727,1587.51128722924,10.7536760675555,762.725820791141,-7.37654982024572,422.120262687996,8.03536570715484,1177.84478301168,-97.2795687459443,262.398514652876,-13.9494569699827,1544.81896700704,-18.7003963089268,461.441068411963,-9.09344331122719,702.906513777439,-4.00767806538763,216.272499400389,-7.33003005374859,628.471245850849,11.7775507899982,420.602450562477,-26.482532474737,1420.21827043399,-192.680260875633
503.966877394164,-40.7384484006169,482.296168842859,10.3668393409347,1134.38187996879,-70.7896541964046,1556.61565931541,14.0197340663469,738.528920468119,-3.46743592128453,409.664023919955,9.45147385874543,1150.11442845226,-89.7008246401225,253.953837662037,-12.9624860582345,1505.45810060876,-12.5667344192127,445.392005152315,-6.03357932632773,675.751547970281,0.350087434838539,209.921063525935,-6.8776919456455,613.048875496599,14.4191195097784,414.576990927064,-25.3800793792433,1385.16993191569,-185.926412818744
501.082538746197,-39.5018134257139,480.364539412987,10.9360460427085,1130.86854572003,-71.2004797085611,1551.31000917013,14.919059600769,736.866168187662,-2.39415108759298,409.050555822736,9.95171904902503,1148.34964963759,-92.3760187720002,253.213083589887,-12.4425160895462,1500.96528282216,-9.93302069006918,447.909689828213,-7.02308568008083,677.790151045603,-0.166397312879928,212.058920931221,-7.54205554172553,611.465891652988,15.5905432069023,413.675276927058,-25.0520999690263,1389.07585570348,-186.997614020926
506.588500580657,-40.6027331475592,484.164990632804,10.9828555077218,1136.80699162731,-71.9675791056971,1566.62148068008,12.7735580890384,749.29661157227,-5.12150370583748,414.840276683332,9.4830386043611,1161.4952899923,-93.7676387120184,257.469234386615,-13.1973720363157,1515.96576288387,-12.4410867066404,454.186518847435,-7.97680017282051,688.529355888272,-0.84703170579191,213.846896488929,-6.63051464927483,618.726970015463,15.8548047831893,417.201515857848,-25.9143849187563,1402.16895700789,-188.524333586894
514.742678252937,-42.6169395070563,488.77081629013,9.9226177717322,1156.79496261894,-77.0143976349762,1586.90340004536,10.4009609401326,763.201233550255,-6.53112934596021,421.012604269291,8.72611586338673,1179.81932943526,-96.8579571518612,261.851950708467,-13.924888423595,1542.95980668026,-17.6396968062974,461.38268720837,-8.95141372282053,700.568228363081,-2.69982239848736,216.419163280218,-7.5762231111493,628.532434283161,14.2167916311812,421.745019408615,-26.556845439631,1423.05595037255,-193.926950097446
503.215858361912,-40.0108453401673,481.94168680594,10.6835980852515,1138.72250794532,-70.4720095558748,1557.80232245816,13.5728835896227,739.341379347121,-3.71153135236867,408.022071735688,10.2592786711798,1151.85400730972,-92.7824349962429,253.198457943381,-12.314934813608,1503.7565084227,-10.1170751444475,446.827262997461,-6.86783995118998,676.59613740546,0.0840514406124791,210.020847176669,-6.45444169235843,613.980286890684,14.0391310092404,415.17201492033,-25.1549152884636,1387.775473791,-186.72445167619
500.117620330393,-39.6929822356618,480.24296813484,11.0461108678964,1129.16144381408,-70.1604771955771,1550.57796095303,14.5814893850914,737.000401807549,-2.69517080859832,407.661257121864,10.1182771589005,1144.06705697798,-88.5241328807607,252.708124385038,-12.2652170433196,1493.58801525202,-8.46785978677429,447.708832320899,-6.98449356319961,677.312711714553,0.240508438009398,208.283946668297,-5.17746797243712,611.365225209836,16.9117149115579,413.683794395448,-24.9677577585395,1388.49683781115,-186.158974724217
505.448946251471,-40.4616828432636,483.23716894019,11.0792645889294,1136.71682895937,-72.0566332560046,1567.27062282591,10.9723024417387,751.336789424899,-4.73262351356811,414.056810157786,9.5986939036443,1159.78321788222,-94.7248138111446,256.862718486648,-12.9411889696847,1513.55423617281,-12.0173530930884,454.43886490505,-8.0488416547951,687.720019897432,-0.97338836883631,213.044938272073,-7.37762035137279,617.757216696473,15.1888087928277,416.697640792544,-25.5485746865424,1402.25279510366,-189.065401455347
513.620743805544,-42.2241754311082,489.260449448182,9.37173987532885,1151.29818403623,-72.9138056209722,1586.29273232966,9.27711526944408,763.060115707919,-6.1169500464957,419.534342746873,9.46533529614597,1174.41527869223,-94.4287062523456,260.882679928632,-13.3155304823915,1538.14339569008,-16.2262907284647,461.899588244534,-9.25920828988397,699.55830888595,-2.58644482270808,215.182831143291,-7.10861190558223,627.77802784135,13.7329376343745,421.310849242483,-26.5482298809636,1419.97592140649,-192.262409266267
514.213563795427,-42.6020594561464,488.140552850998,9.64468300452306,1153.64353695974,-74.5246323662894,1570.75848182126,10.8945394614897,743.355797423762,-3.20508589784482,411.685950862648,9.98345526664204,1160.25255642873,-94.3362698014525,255.859471495905,-12.7002828396133,1511.83044655132,-12.704299649688,450.622652924465,-7.62672221199553,679.570852915562,0.523579784104673,209.952727216415,-5.38313558912486,615.702780867333,16.970995994348,416.18166339142,-25.1417712660018,1395.44239822082,-187.648245011942
500.007567267804,-39.8535237504579,480.71659776154,11.0239573303566,1131.5284706629,-71.1625574497334,1554.10819277095,11.6106082498096,736.342834141341,-2.94348028835405,407.584635832988,10.4065966389921,1144.71322083902,-90.53803775602,252.361260566882,-11.9993435118293,1496.92386575917,-7.89402039565147,447.685843159908,-7.08550749113098,677.216841535124,0.297983075765989,210.35678149358,-5.95375359995951,615.380612161718,15.6587106742275,414.253576957341,-25.2690858265108,1388.07305082518,-186.188116831248
503.554468060083,-40.3675651830487,482.526866581689,10.9828342088578,1136.3998867176,-71.9214321502575,1562.91818733242,11.0907611585812,746.534336619732,-3.88426867455375,411.755350067256,9.71515140111865,1154.06614095543,-91.3218302878982,255.396049865967,-12.5961633979835,1506.29773930944,-8.28824265149499,453.602023047688,-8.27437954474598,684.565855122455,0.00764353218002042,211.601167696534,-6.35714388972576,619.009502908314,14.6057401559436,416.300862032834,-25.4875989013337,1397.7345961168,-187.339993917881
510.713717440237,-42.0931293966373,488.308238793493,9.64916505588826,1148.97224212162,-74.2219596148531,1582.30155544702,8.07513459695724,756.057976369785,-3.26014770985801,417.070619137575,9.53796951034801,1170.01377041346,-93.77975485522,259.590491759382,-13.4467256966093,1527.56550506413,-13.1474938387615,460.733048486521,-9.49742267369454,697.218531444241,-2.44383408876678,216.4479021541,-7.53957088512579,625.745148873405,14.2762202199335,419.785816577564,-26.1421617642494,1415.26907293314,-191.258450083043
518.764627760562,-43.5784208168558,492.753313681273,9.22620133902009,1162.12800123189,-74.4221988151267,1590.23515794772,8.03379637487225,762.664086182555,-6.48407541933252,420.041487555707,8.5097494132122,1174.04216281814,-93.9448374934225,261.554847008883,-13.341661932503,1533.77326173747,-15.6543411640506,455.874147524271,-9.07186986348667,688.359226551529,-0.616820870821507,213.265902699614,-6.46539559510443,622.832563615437,14.9309964672361,418.607664842714,-25.6075147003703,1398.93456446757,-188.339169223467
500.031542240348,-40.1931405205132,481.832978822615,10.6284668821821,1141.00725069983,-74.8587291080016,1556.01633177438,10.7123729095708,740.393498089108,-4.67317833670989,408.177708729652,10.1124362067728,1146.29770686741,-90.9054825849305,252.389591218594,-12.1149495165902,1500.73922494124,-7.56583196478879,451.576701793395,-8.54441193653429,679.114673308892,0.467614480671133,212.217541404383,-7.03141674126408,614.828003678236,16.5636402662691,416.522018008583,-25.308098297931,1391.90708905581,-186.904902161188
503.28827813013,-40.7257316346211,483.255732223394,10.8394615857486,1137.19331666313,-70.0303499719107,1565.8208480711,9.31659552183778,744.946521003222,-3.42505800711554,411.561735056742,10.0743918720366,1151.73320785467,-87.9208379351618,255.352525096393,-12.6500244119983,1506.82259104835,-7.38528648608035,455.592423473577,-9.01069380384841,687.152723728411,-1.25601538993422,211.282984634585,-6.10485188358392,619.679297664358,15.8286094463343,418.157419585012,-25.8084473574365,1401.74051495479,-188.048209430001
510.887545783185,-41.740435257167,487.785112795709,9.9323912312936,1151.72519458648,-73.4701349816175,1583.89623386953,7.57042472047649,761.954038518156,-6.86383832047073,418.581303834644,8.89196371143091,1171.88539394534,-95.0044600578085,259.617800572594,-12.9016065040204,1536.86036088243,-15.3045207491302,463.058189783919,-10.2986725641464,698.960433653802,-2.92863469482824,215.270096715795,-5.77253739554945,632.75731699707,12.1941139716576,422.877844284649,-26.8817452207508,1419.44054220632,-191.650643392217
520.076454542207,-43.5196001737813,494.702753579205,8.76736557695816,1173.19094978185,-77.3374821486702,1603.40618804622,5.63494562247921,771.820109161906,-6.9698814247167,423.080641268958,9.19382327927459,1187.72242158494,-95.428264440977,264.056763446358,-14.0007651578731,1557.50152988232,-19.6264622819325,464.013328863203,-10.7572070792665,701.179643016293,-2.92482994787048,217.77851396079,-7.15152784924112,632.513883616119,13.7558055901922,423.041208004832,-26.5716298988023,1409.82890305492,-190.598889406472
500.91215849348,-40.3316835487317,481.180517322255,10.6292438375499,1143.02490100624,-74.0688572332118,1555.27607208385,10.3515179934127,738.020571591958,-4.29265447481487,406.228074562349,10.7654328037322,1144.58329128242,-86.8804683411682,252.006840795144,-12.0699352726386,1504.75631703742,-11.205717527725,452.752210632685,-9.31565623293629,679.710921735868,-0.558787685703017,211.863869813912,-6.44983857854712,616.689005640121,17.0527831788518,418.640959288002,-25.6218481483112,1395.32206877104,-186.70207077491
502.666423383227,-40.5776019921899,482.54084695661,10.8810038870171,1140.42094761097,-72.948501659024,1560.24632135663,10.4365206412923,743.805198858742,-3.00081363075795,410.263910960015,10.5704599444964,1149.62250193321,-88.0509251048876,254.755081106975,-12.4274604184405,1511.54695275517,-12.3657891174739,456.614058189169,-9.67800528145019,686.564697177996,-1.16684587361831,212.150992043726,-5.58944103432606,622.261311987075,16.3024022223322,419.77254039948,-25.9015656243803,1402.41974570853,-189.057824788712
510.662657086781,-41.8985456773435,487.933463792626,9.4662730704209,1153.82744115931,-75.8342613646456,1580.08576959306,7.25877328889158,757.006649494638,-3.48875263511808,416.854054913048,9.67202619276479,1167.80815289622,-91.9908888083411,258.805093376031,-12.8707878819752,1533.24981699689,-14.2601816424456,464.197349694515,-10.8887179213089,699.656578909237,-3.99320426426207,218.124067348265,-7.48045093099623,632.178424913335,13.095817238974,424.140345508374,-27.2222770511124,1419.81227876087,-192.633113117093
518.967982257779,-43.4243220048427,493.263316701234,8.78824458141428,1172.51156817805,-78.9447520939,1600.54069988034,5.68798392228608,776.889121990989,-9.07154151632812,424.033674010761,8.91992455174021,1191.41858072239,-95.692465379185,264.229335900767,-13.8008323873501,1562.95391970289,-16.1085322245957,472.779606055451,-12.4886899544663,712.058489697795,-5.27175755424747,222.955565049178,-8.72985512792206,643.83182353761,11.3859163425381,429.551990224843,-27.8167456224929,1436.26910568284,-195.678490374195
503.465398307419,-40.6982123415775,483.973461291838,10.0736969582625,1154.4759624241,-78.0866273605575,1558.88754035742,9.92210634751488,743.482617177122,-6.34591977114775,407.466397947282,10.6043301546896,1148.4820825614,-87.8451413849547,252.933286596847,-11.8384109902195,1514.06013405093,-12.1388162046487,453.684916319881,-9.82516856041401,680.233507927038,-0.492384971056601,213.409639234027,-6.37156564651876,623.68762257457,12.9463943789934,420.924694727264,-26.3811675452079,1397.65109554286,-186.720198775465
502.256628553141,-40.3123436943431,482.343469437017,10.3963072255814,1139.81133671428,-72.4402735670491,1557.60927644819,9.70686857651177,743.893116162519,-3.69327310432294,408.269788920737,11.0348589342624,1150.24738885559,-88.8154114288069,253.711994436211,-12.018325971326,1512.95293350096,-11.5757729216443,456.81879179562,-10.2484580765696,686.980390809245,-1.68810671528121,215.08923913682,-7.51346886764217,623.570380793542,13.8131543675355,420.770959418776,-26.2590809824635,1401.76397169606,-188.942715874031
508.959965177868,-41.7302078125877,487.154079289353,9.77790377335968,1150.97384192968,-74.1205992487006,1574.59193877839,7.31810153235097,758.434954379776,-5.7067298594189,414.38132549161,10.2536906509444,1164.83974835971,-89.7446250462076,257.682544358535,-12.5866501378921,1534.67604277909,-14.8514947146894,463.064181985807,-11.0680000746677,696.974717324198,-3.24311810490866,216.289487348346,-6.85122768656003,629.32952331757,13.9876024863543,424.000643336555,-27.1360931595948,1415.35389421269,-191.54247965557
516.259376905344,-42.9707352572512,491.863543641769,9.10168772704406,1167.81412763266,-78.5951914477617,1594.2464380667,4.98405885807573,770.7950340917,-8.47158119996567,421.19007178709,9.29722153753952,1176.76335466076,-90.7565478200176,262.17508198269,-13.1072656244917,1558.12748003373,-17.478680962283,470.150244923664,-11.9142183357591,709.322595657327,-5.72061215379181,221.449004643383,-7.85723156510534,638.118559804342,13.6484726841847,428.439188847744,-27.9361357601645,1435.99406110123,-195.610022172494
505.063785168889,-41.0932108498802,484.810757863963,10.0519653194963,1153.76551545546,-75.9880815637454,1562.24215459669,9.41647304513132,750.278587056598,-6.48909429704238,409.664662317486,10.1734402576474,1158.64191870083,-91.8496010105134,253.963813386168,-11.8040990676683,1517.57581957398,-8.39939862808798,455.180418750291,-9.69707648713057,684.734361565,-1.62763785246456,214.037859275447,-6.52851145529979,623.101117932442,15.9744928429726,423.111418067687,-26.817794005591,1400.10640448533,-188.139991257498
502.405402982676,-40.6254885824961,481.813063206562,10.971185996099,1141.80805169745,-72.6023242952878,1558.56538281493,9.89605286596444,747.627242250287,-5.15202506255535,408.39624156821,10.9876019348521,1152.46229983031,-89.43768631519,254.074712108851,-11.9863467638737,1517.55305952224,-11.6325910886741,456.596908195948,-9.65280650245233,687.180769983709,-1.36332478838303,213.738776973614,-5.60370947897475,625.747846582984,13.1926905900996,423.304705300574,-26.9693390666869,1401.95856121381,-188.262109067443
508.898001351618,-41.7871400280773,487.300028204922,9.58020907742852,1151.83981067058,-74.3216464623,1573.87720297749,7.32857094568387,757.114007161959,-3.52485930910789,414.552034203149,10.4548843946602,1168.27145966493,-90.8179185473043,257.975153567991,-12.1971663719454,1543.74917769237,-14.5186756845668,463.458577623587,-10.7068340201536,698.050291286385,-2.86811557417133,217.593792286699,-7.53898575766193,630.146143754653,15.7915303899872,426.734387038004,-28.0886204798306,1416.28901964278,-189.785971528901
517.558521182513,-43.2958569108981,492.408735430304,9.33277949485833,1172.28301100406,-79.527464266554,1594.40811211091,5.51678537809817,776.151278914088,-9.49096827033649,421.28815319462,9.77032454872352,1188.72765261044,-94.7017326534889,263.725647421496,-13.8406794095354,1561.93587792719,-17.4491542105794,470.916135647001,-11.9894347722683,710.307892004629,-4.77629817403099,221.677040322785,-7.96227183933056,641.391759318599,13.9733027916141,431.442779784456,-28.7803507116713,1438.90946751649,-195.454823453813
507.155784257346,-41.8791979363281,485.948626179733,9.8176039494779,1157.87758996166,-76.0138527936132,1565.19814429518,8.1421365331879,745.489704388608,-3.73327578194493,408.995711640531,10.8247691718002,1159.65358462583,-89.8111760666638,254.825580790571,-12.0196597210015,1528.72573117538,-12.259795260584,455.120186320499,-9.44924310359785,685.362012954724,-0.734824223913631,213.342985546122,-6.15473811389109,625.291677198513,14.8127821075731,424.6587514339,-27.152290994649,1402.55414038677,-188.14848658898
503.276351691382,-40.9848116833792,482.72027603229,11.1100307979439,1146.62258028947,-73.5684349374109,1556.64331987874,10.4059740374106,744.783403379432,-2.36198139944558,407.954355167442,11.0700277989898,1152.99359230561,-87.9356822363908,254.077864949165,-11.8828847692493,1521.93917310031,-10.1560878042389,454.216274499184,-8.84131440097118,685.800976007166,-0.844449823467436,212.534513821153,-6.11637362451663,626.628600591315,14.0771451763497,423.426981847911,-27.0474423921687,1401.9535652625,-188.073563203715
509.056456497924,-42.180654340362,486.875348334355,9.71863356658535,1154.58140637587,-74.504632838724,1570.52353061981,8.17430634833462,759.17145464089,-5.44416068697746,413.757377076978,10.6620388215771,1171.24657395217,-93.4688183891872,258.422812735697,-12.5160466403935,1542.36646179308,-15.0511907509616,461.629222812247,-10.5416118763321,697.475879137165,-2.38758094497509,217.359330399619,-6.97133212879167,628.675048177292,14.8651272379675,426.593047347052,-28.0487579300018,1415.5350673827,-190.489679271378
516.850767855256,-43.2401689366153,491.858847559479,9.25883074546536,1173.88568522196,-80.7803517320632,1592.98441027684,5.56074100696764,771.153764033671,-6.11261959295475,421.205080483358,9.54771583352025,1186.99440141193,-93.2776442120573,263.432687977687,-13.3715675940447,1566.53826350901,-18.5636195930911,469.469086412361,-11.4379585433093,710.915057823469,-4.35520966060062,219.777446333341,-7.44256845833638,640.840390324773,12.804233072127,429.876699809862,-28.1932790355097,1436.64358849786,-194.656318832393
515.083136854946,-43.5292079308655,489.836923331407,9.06426539645311,1168.10461645135,-78.146648023535,1571.28270933367,7.80919926863036,752.198527422162,-5.45696849347578,411.666169194044,10.254011145371,1164.13103656264,-88.8520433644891,256.470412581811,-12.3749525869802,1539.10862335385,-15.4093604839954,455.757974707871,-9.25267967321049,688.541716964012,-1.55587079869713,214.729795419105,-6.62430113303456,626.61115809965,16.0227519902382,425.570212234493,-27.5753637899564,1405.20081275091,-188.884069099958
503.304337604243,-41.1951184836333,482.944463737093,10.6729574900258,1146.38933579664,-74.2160614716924,1558.6140672995,8.98685229746622,745.968195331148,-3.03397439573434,407.351150319475,11.580691944507,1156.18705615735,-89.7115172663847,254.329414894203,-11.9107338164977,1525.49428359421,-14.0069835622631,453.309186062109,-8.99496719907624,685.079621734275,-0.17713672802427,214.378919496415,-6.56127776005669,622.995705916596,14.384846012301,422.733413431154,-27.0923861278306,1399.47657475872,-187.405289719484
506.900376255523,-41.6046111015411,485.146803359513,10.8167524650761,1146.35885021,-70.5536797267099,1568.9206586536,8.64635978837776,754.265627185155,-5.62652805893268,411.461197143886,11.3215383124552,1167.03419951758,-90.3243368188649,257.237964544075,-12.341642131114,1540.00888613029,-14.4779423182077,458.786930241056,-9.67314779062688,693.787992326597,-1.36421869260673,215.103364672053,-6.21242305801764,627.66370441707,14.6653590749697,424.45931231452,-27.3095415033292,1410.15488130534,-189.65270260548
514.325288977246,-42.8620959681383,490.110442436264,9.52944119588672,1160.78493763781,-75.2959863837346,1586.05560561461,6.54953237883222,762.461714343287,-2.81351665689338,418.946057669197,9.80842490049753,1179.9980910065,-93.3867604842943,261.334574436519,-12.7478241274538,1558.09120613672,-17.478660864567,464.78058482538,-10.2098042090797,706.119725118352,-3.86835031064347,219.356578134168,-7.96859659019729,633.337176932906,13.8820174466949,427.839300664145,-27.7263383996065,1426.62728650963,-192.613327571141
509.60487171229,-42.5639177159879,485.325208879766,10.852726246333,1156.77776668307,-75.5082360074009,1565.60287271324,8.64367203958773,749.360559724305,-4.7376556672052,409.021034142498,10.6410835318889,1157.38533739624,-87.4722139419143,254.765873535365,-11.9152408975923,1530.25480406378,-13.8361437836841,453.133534351213,-8.56795116792119,685.687490212549,-0.287095856882076,214.069258656624,-6.60127577366448,622.452485917976,14.2426908231934,423.346214284006,-26.8073153039791,1397.81006983945,-186.603828379294
502.546691885955,-40.9933302469807,483.629588033267,10.1741437602793,1142.1043986315,-71.882941220025,1556.60606075749,9.73089860292341,747.325864579498,-5.6459869125721,407.397643631339,11.2799356129817,1153.27491157167,-88.3292190318397,253.548230282461,-11.5948871936256,1520.67545902657,-10.6615261160174,451.079890703649,-7.94902213130201,685.228360306172,-0.635216382605921,212.268734545731,-7.07724915684223,619.118144040395,16.2310666622823,421.98494383413,-27.063296214519,1394.60394259725,-185.635330975374
505.818234528003,-40.9870323560873,486.128937037445,9.97474946031943,1148.81629578304,-72.1519323765384,1569.25368685818,8.90063544822003,757.658205082159,-5.04243439966595,411.828139213467,11.1987686355575,1163.01424135883,-90.3310150332839,257.021745928092,-12.3848539274373,1534.72076954877,-11.0540759853334,456.780716806527,-8.4938658750364,693.975689748317,-0.708891406748092,214.980024447867,-7.00781042052102,622.888759045701,16.7346033018237,424.087623284667,-27.2900148943532,1408.25378229584,-188.637630898087
514.283916784193,-42.8837904000879,490.249544442284,9.87838886801499,1162.47463766968,-74.6195654957396,1588.79839353052,6.77466699207114,769.424399553569,-6.26738342611314,418.306171162944,10.3105795875908,1178.37154442273,-90.0740422172101,260.937197177502,-12.7754978939817,1559.61666133364,-15.498449596168,464.435453467548,-9.95939458343657,706.115967193425,-2.67510262283156,216.888806738244,-5.20578030943615,634.021259963873,14.8079656187268,428.618014999621,-28.3621205328084,1427.69317516664,-193.150097667581
505.228068300735,-41.2683006738646,484.506543561411,10.2251019720949,1147.89921843077,-71.3955506647956,1561.68259200716,10.2676818682759,746.084806750739,-3.27867936504296,406.819810845452,11.7838077995603,1151.65301635623,-86.5209950360738,253.124707119889,-11.413852609322,1527.69586651636,-13.0943223381354,449.439322185901,-7.58630291473658,681.562893618691,1.09000848909574,211.235909157475,-6.02258866971243,617.430877115896,16.5164349596029,422.004655562999,-26.7785818450605,1392.17752537404,-184.927590500628
500.174583189622,-40.4699721912901,481.940582219664,10.6220321328408,1135.97404644311,-71.4131563565423,1550.84582080442,11.7733129433742,745.113668609763,-4.47885705050373,405.14131986345,11.962919071055,1144.63483995236,-84.7685980050951,251.631682289572,-10.8527607446243,1518.95921938144,-11.5005730415859,448.097039185139,-7.00912584748216,680.775986893297,1.2223287017847,209.228354947367,-5.49670156002775,611.842654920934,19.3157831713034,419.652547940976,-26.4753082079544,1388.1367168956,-184.068592502041
504.200847742533,-40.6362929254259,483.891964007531,11.0941155617128,1141.14864853247,-70.7097221186839,1565.82072319586,9.63811600094503,757.447964266035,-5.3616511840089,410.179831656792,11.8549676111169,1156.01418603482,-85.7315492732864,255.446818112276,-11.6301157323703,1529.68910229768,-10.2901032221966,454.420846211648,-7.97427041146728,691.697492863715,-0.561294181267234,212.827418472622,-5.78337506435994,620.223596554667,16.2148636648036,421.818740062015,-27.288610849737,1400.29542281381,-186.452172697553
511.979413983334,-42.1822241146695,488.522332454578,9.98904190438254,1154.11067656382,-72.6581311656465,1582.92387516414,8.09206072222327,762.712650451779,-3.64734551505826,417.062575223497,10.419871607939,1171.56341776549,-88.6326179991971,259.618633288775,-12.0027763972461,1556.44972938317,-17.9364962396558,461.329948718356,-9.05673811172573,701.998248668288,-1.09274571383585,217.436925300357,-6.49257204742552,627.471515083221,16.288679862756,425.695458333083,-28.1787449653319,1418.44069059469,-190.250136589982
507.074070210352,-41.4851912971789,485.306663754976,10.3641432219724,1148.06053009032,-71.0854141532467,1560.72354123097,11.8061682189156,746.235731870701,-3.39570570161341,406.182775204472,12.3702749704177,1150.78302633305,-85.8602490592003,252.917414794849,-11.1372832981925,1524.39434377598,-10.7518807428736,448.562965566951,-7.00303384788492,680.727753795149,1.68776610419066,211.525890129688,-6.6441815104007,613.456339259766,19.2234607529754,421.001836876275,-26.8235401997072,1388.54293547385,-184.088072025806
499.623078008353,-40.100239246611,481.711211381932,11.1359528749057,1137.7473910521,-71.455011405159,1550.25835921569,11.7472821252054,738.883879027009,-0.113359871796307,404.528592709149,11.9398939304372,1142.11615112557,-84.9772257656301,251.316866071058,-10.8641768876196,1516.42448039047,-10.4815117301413,446.659636744707,-6.69302179632413,678.756640845089,1.89944778721034,209.311052567867,-5.68401692148347,610.118560094479,18.5110157922025,418.589756580228,-26.385482634034,1384.442953223,-183.376779240721
503.23635852702,-40.7149705842376,484.242442854991,10.7555939100848,1140.26681279702,-69.7614696334147,1562.0840969483,10.5487432934651,751.301857978318,-3.80033960939457,408.851413008164,11.8852563655799,1153.90343618489,-87.4579182655676,254.982808620432,-11.5278424142454,1528.59931198846,-10.3954099082476,451.46105047431,-7.01383315679775,687.880739015547,0.68903544781266,210.835147921019,-5.23034233142665,613.715713625915,19.4057232890372,421.19278729867,-27.1030100861629,1396.22569589676,-185.590807588927
510.099899306858,-41.9507136991252,488.745360572188,9.57496343913136,1153.01857863002,-73.8838557186298,1580.46293224915,9.35784415942323,765.976610515383,-5.21938538571324,415.335228284914,10.9359647024084,1169.42680517844,-88.3475693154616,258.754737368426,-12.0271323363933,1551.65446649674,-16.1126501182953,458.885415401013,-8.03310833800023,699.693155039419,-0.982635811457044,215.805169776738,-7.10532090209303,625.91499946023,16.4105252255597,425.755738242178,-27.5718779397096,1411.66737939505,-189.378273095556
498.579583721561,-39.8591000989117,480.371014004798,11.5811342524893,1130.79837362257,-66.7024170033197,1546.05164211708,12.3403129107402,737.388727777958,-0.66758019351816,402.116939134468,12.6382388852151,1136.35679607921,-83.9884478635112,250.336525095802,-10.5843615160783,1504.78652679504,-7.56286070992154,441.65780872614,-5.55109094461885,673.412110870098,2.82682647389306,208.239901930647,-5.28173481189084,605.666541342002,20.535919636179,417.482941652482,-26.0981691957201,1376.81727004829,-181.344253758799
496.976988435287,-39.5796393288458,479.503514139038,11.7824733199971,1125.33615470925,-69.1411364103035,1544.39303975346,13.9426920382034,739.588442363537,0.0906566893876088,403.195589758702,12.8029291903471,1134.79962313747,-82.2842333959005,251.461729933681,-10.7860713368037,1508.31206203759,-7.26768320499544,444.809093900037,-5.88054269190589,677.368937641439,2.4387811198112,207.355047262437,-4.57968329959495,605.447114255047,19.2060471190051,416.999904743033,-25.6419038401167,1380.37618033842,-182.362514618237
503.348007473685,-40.2035084141674,483.662596564023,11.1397719424837,1134.10909056222,-66.7155747681402,1561.78303376314,11.2457692821872,754.783114509273,-2.25741942690789,409.690395851952,11.9891863580936,1150.7300608896,-84.7799228541856,255.190412552649,-11.0484232842908,1530.5160558931,-11.7133864721603,451.455929768161,-6.31693105594911,689.206365343072,0.931570190566226,211.101856334693,-5.19316746930247,613.53183015114,17.9446577001939,420.668714843164,-26.827525894814,1395.74456769975,-185.583956341457
511.819584738319,-41.8693725419081,488.146773360958,10.9132256694592,1152.13976361458,-72.3572062976382,1584.34961312774,8.07721727621622,762.969215795848,-3.46372174013407,416.863691404341,11.2622089999684,1169.65101425765,-87.5011140297326,260.016105430267,-11.8032926993922,1553.02395762861,-11.0273400366651,459.610194639683,-8.05962586165684,702.463548291109,-1.26346017520018,215.294982272237,-5.88215287077708,624.69607125725,18.4821188983774,425.708270958714,-27.8374190441628,1417.07980851452,-189.583151210874
499.699172306955,-40.5729010592959,480.622499566289,11.6392563598618,1134.56692525649,-69.1967062300912,1547.89690433454,12.6487502044233,738.689435194374,-0.0858990973184436,402.237462874512,12.974208766815,1141.41701146435,-85.5365986498213,250.20703314072,-10.3425968760456,1506.70075833552,-5.74245771214053,441.397221187289,-5.4390476531968,672.770962924679,3.1792483854149,208.048169300528,-5.48065877727405,604.319145764546,19.4222262832806,417.05156054602,-25.9956123523741,1374.44739651178,-180.506394923368
496.394178188882,-39.3745236069429,478.632510673598,12.3456737421293,1127.29082642816,-68.2840513249396,1540.78834807477,14.4528873082854,734.264371539163,3.08754122289759,402.353989003549,12.9291757720913,1134.58048153054,-83.1681931575084,250.7196599978,-10.8268030359953,1501.40568590032,-4.02710590285244,442.067461472773,-5.00179545183293,674.89416228586,3.28169693692484,207.801592292025,-4.6863754288534,602.218369222135,21.7211599516813,416.150108816821,-25.8733313882373,1377.17029635844,-181.357302329495
501.886164075177,-40.2388337896037,483.216637410838,11.0583429867453,1135.82719586825,-70.0745836501143,1556.33500613042,12.7901579471299,747.043448142116,-0.955740351149331,407.713528048118,12.6127303938537,1148.94750569656,-85.3738830521768,254.791954375333,-11.4200692065543,1522.96751782467,-10.2996229115515,448.495970505815,-5.97676155082496,683.459860167186,2.62817436442352,211.238839556636,-5.95219860653921,610.355948898618,18.9975332799246,418.941860357203,-26.1497639473388,1389.41417457532,-183.598012940698
508.98133498284,-41.4046102765318,487.42354222949,10.511407192847,1146.28441029405,-70.4009256302659,1574.86514607181,11.1056796503146,756.86476874441,-0.393857318150073,414.522563143499,11.1264363147046,1160.88387904596,-86.5191924420041,258.471723329609,-11.6379387167983,1543.28762183667,-11.7239531669899,455.696810595633,-6.91452274022601,695.896894282535,0.0686389600964622,215.069820299832,-6.58841150994629,620.447906591988,19.4149481895594,422.852246610392,-27.2334671062992,1408.47929806288,-187.449380247568
498.906673712779,-39.8355477790806,480.888143298366,11.9366181834381,1133.95494133776,-67.5767742848553,1546.97639995114,13.5056096928113,738.230245272015,-0.724471005014086,402.997209438642,12.5952650511468,1134.8596621901,-79.9128465998624,251.274753525358,-11.0308888628866,1507.41643382437,-6.16627706169308,440.221206023211,-4.7529371424349,673.305533358303,3.19654302205133,209.472163675969,-5.28513580017922,604.212172238348,21.8492254891011,417.981320918884,-26.4730466199162,1374.36681815956,-180.196574231635
496.61217657449,-39.5587822217272,479.023666313532,11.9426770304886,1126.28425359075,-67.2900051687374,1540.25399762509,14.4517947622414,736.074774314761,-1.2005018874522,401.70475660187,13.373739599121,1131.13748636274,-79.6319042643302,249.96472845136,-10.1114645220871,1498.78010581514,-1.51886542100292,440.180727311128,-4.45077329120914,672.711053897652,4.21208766735641,209.016566168342,-5.42841641427073,605.499451083416,21.116405672514,416.473510593688,-25.6017324253557,1376.8886334592,-180.847266845887
502.139499854097,-40.6036412842296,482.968694154049,11.7993485911929,1130.22834000596,-66.2023644480842,1555.78191331207,12.9762204626518,747.527935309192,-0.136048623849169,407.842725338022,12.4970071044253,1147.92672907072,-84.1114610648598,254.333985511192,-11.1576595376444,1519.50835897908,-8.05766839902928,446.948867326933,-5.5809245430872,683.72073092101,2.31186545251549,211.768657118933,-5.91414407432612,610.788874850957,21.1022976675496,419.978297862713,-26.4167613515025,1392.44441212806,-184.508644630107
509.447597663837,-41.7309936226445,487.522804343376,11.2062830832593,1147.22195462178,-69.8395838373807,1575.71924692206,9.74363734770629,756.672025685041,-2.47416279219366,414.182085895846,11.5767549302503,1166.21317965305,-87.5119227523748,258.768314089694,-11.9863015487592,1539.22495434262,-8.71742937401929,453.66294239595,-6.50740382914373,694.504885613065,1.24335589684455,214.149864491226,-4.5112779621161,620.433398997677,19.7132154414384,424.807845451137,-27.2212213737912,1407.75490467435,-187.723662579665
496.500896047395,-39.8229602195216,479.742071285563,11.8215784874259,1125.63770900693,-63.829290968286,1537.15829454962,15.0478551715418,731.454327002861,-0.927749501605649,399.342556805295,13.4147654513878,1131.97344578313,-82.1380338445961,248.803607285503,-10.3661916620312,1494.79046130636,-3.34887769263843,436.008928111287,-4.02251285104666,666.707712804431,5.08186104589766,206.085512243592,-4.42838608513109,603.919329952138,20.9506173545711,416.819635647598,-26.1472575690673,1372.3268877065,-180.544305179315
494.575827641424,-38.7828297770068,478.374850530655,12.7410087539135,1119.98449145372,-66.0280987413907,1536.74021624089,15.1337012820716,736.324565499591,-0.5651250529115,401.112781865782,13.0239420613877,1129.3950591672,-80.9127723201277,249.770995130958,-10.2247832192685,1496.5762490588,-3.40462105948003,437.987371437908,-3.6440698823187,672.14429140293,3.78153126214198,208.500481183089,-4.38275947444235,605.635445888804,21.5941962905971,416.720417189379,-25.8136974391993,1375.49992668107,-180.267903725832
501.249911623451,-40.1024944862361,483.893832869553,11.6167081135875,1135.87736062256,-67.4569793831759,1553.70426834276,12.8315789119386,741.557409562414,1.91113110288116,406.683152175903,12.9155572177252,1144.90771726266,-82.8970490998818,253.976075763702,-11.1081018481018,1516.15180311658,-6.28720223864554,445.318536237898,-5.18178874399608,681.705505906056,3.48555027597904,211.946491265772,-5.45780631067543,615.286573449209,19.4650331479519,420.531017002577,-26.5482675170732,1392.15659548459,-183.82296617135
509.010637224032,-41.5453909253158,488.873169716602,10.9551153234775,1148.6097303946,-69.3850020810352,1573.85274412996,10.0682208042353,757.151409585688,-0.443489853137527,413.5489816888,11.8831696240166,1162.84495611292,-85.4508994236617,257.700589183544,-11.7236001942596,1540.39587121147,-8.91134175803443,452.720079310844,-5.86515756128826,694.415775323329,1.87608314568575,216.341321546928,-5.72271178186457,622.720935276898,20.3741443414264,424.652407740106,-27.3356727829701,1413.15276358389,-188.160783116881
498.048960193278,-39.9049202252311,481.803518995284,11.8222727397581,1133.54852325813,-66.2017689053931,1542.94537991121,13.7990500281469,729.025020355642,1.27148115141288,400.639178387264,13.3192912521205,1137.49462394892,-80.945315653462,249.641672757568,-10.4663656520099,1498.33906382205,-3.67940943165007,436.904711048902,-3.97563172174,668.7591904764,4.8386756925565,210.407023833003,-4.72377359344865,609.049226447513,19.9713012535067,418.622932574415,-26.2864439893264,1376.2032844275,-179.777326526913
494.703359116504,-39.1602986634414,480.311788181231,12.4094284926891,1123.39831815525,-64.3468813079868,1535.14356474865,13.9853926288582,730.872950860482,2.75943764830504,399.339392710706,13.4682362796969,1129.77031377179,-79.6061907335057,248.507963310676,-10.0062352899022,1491.86460656777,-2.40060737828347,437.028941839838,-3.93631621661302,669.803805746011,4.11207113842888,210.169620777417,-5.24018263808094,609.926002290283,20.3802464659558,417.348230719305,-25.9347308129603,1377.9681264926,-181.247436774447
500.012783610208,-40.0131192056553,483.941050185153,12.1903490575741,1132.49866008297,-65.8625353736282,1548.83570443413,13.1949030676782,741.971667513089,0.430930056352185,405.431520793351,12.922917471651,1142.44583990651,-81.9021550779722,252.446574203506,-10.4021192072057,1509.83868182017,-4.2793074356551,443.214942754456,-4.33121186316804,679.580178234991,3.51207704943931,213.095536503975,-5.94845704032153,614.724988559504,20.7276696832241,419.655270002149,-26.2605830053815,1391.18015880616,-183.896689100077
507.39785075488,-41.4073338475403,488.76397568867,11.2265086204419,1149.45954518478,-68.8894980638204,1567.44757665465,11.367796840236,754.844127788631,0.352264800140053,411.469424533005,12.4361743117466,1159.00049905585,-83.1362698600893,256.672206287156,-11.2317703811953,1533.64487709657,-8.93382554315676,450.318577076387,-5.83621414482961,689.980560110761,2.2877933176658,215.68278262083,-5.65648135212868,627.331758970962,17.1238101319578,424.118957411198,-27.1293426101251,1400.04760971378,-185.207372856128
495.023383280888,-39.1807107634553,481.5123840532,11.8347330283519,1132.08752345965,-66.8083007026431,1532.13638490209,15.1134263214464,726.792673463953,3.98855877919009,398.682191526197,13.7320072550684,1127.43629857152,-78.7758935837296,247.774658345907,-10.0312069242255,1489.0998167501,0.66508451783626,434.951988998685,-2.97474832172077,665.208556973389,5.45597035774551,211.01251157455,-5.83992474872221,609.416467867988,19.6669468316198,418.021357913636,-25.8343674394047,1377.60634009242,-180.823695359753
