517.007061166445,-45.5654151261481,496.048472392266,9.15809618220114,1167.57139977134,-81.6408325981017,1581.17764410384,-4.96805038596498,758.756742895933,-7.62786600891347,423.684225591733,5.04745646138927,1202.25242742525,-102.740700127895,265.610569877635,-15.9380198222714,1552.24511781962,-24.8345202323007,475.32349686078,-14.6842056659762,713.718551162934,-10.2690246033018,226.236098189653,-9.09961964838325,640.04217782967,9.63465441176117,424.956494273633,-31.1421195416808,1469.22693130181,-209.392490313697
502.415095411927,-42.9606042979981,486.769304104783,10.3778812158211,1147.56192267286,-77.3800785531587,1541.27552902706,-0.758049068285685,728.813765347183,-3.27109727135265,408.136950288185,6.96914745726833,1168.81571204541,-99.5147381413035,254.989719171546,-13.8199987857807,1501.52366672341,-15.9809055284263,456.891684929238,-11.8671574920449,686.743848459568,-6.20934429363534,218.471436172332,-8.27812235282357,617.689034138677,13.1432459571282,415.550719308563,-29.407362076134,1433.84284263738,-202.043696833966
500.982861943799,-42.4196792009128,485.63697872773,11.3169605906621,1138.7270550877,-75.7581037652607,1541.12952549263,-0.736937059174925,728.395436993368,-2.03298929975188,409.059670029983,6.91079074594656,1169.9066569684,-99.4941529489151,255.820960743897,-14.0231649180026,1501.23044214775,-15.0979292720633,459.999979617919,-12.1577563603691,690.749736729039,-6.95243593228323,219.472501983359,-8.55252317834229,623.380723477707,9.32481915773888,415.324895130188,-29.271495409572,1436.90141922074,-203.138843449686
508.470226861899,-44.0143032621886,488.785569981485,11.0584596773298,1149.65932697327,-78.1612657949038,1558.69441115146,-2.37786681276991,742.134835708542,-4.63112481693685,415.752645438656,6.35919375354985,1182.07593596518,-99.3543575133939,259.457091148131,-14.4532907225309,1522.65454088458,-19.1645560503516,466.942473853582,-13.1231016138328,699.825164580983,-8.09121554341396,223.350469682566,-10.0058627313687,631.382985829412,9.57701424783195,418.361503267809,-29.8238933423487,1450.65196505979,-205.56366006019
516.481192391409,-45.6628132874545,495.308516259885,9.33056758517601,1164.85043285248,-82.3996187691948,1581.57705986175,-5.72672953902354,754.914617594168,-6.2404842810788,422.513024229021,5.41915516428978,1201.7212238802,-105.114529651634,264.393330393779,-15.5896248587185,1551.56571341838,-27.2838017127683,473.653399762368,-14.230198410163,709.760896690652,-9.56592655487542,226.579454064176,-9.98386056391831,639.620730175003,7.38055621153367,423.231479621112,-30.6358497933694,1458.8147604117,-206.60518249473
502.72155196747,-43.3076287918992,487.447906194855,9.56791668732629,1144.74389272725,-76.8389568823507,1542.42739597232,-1.76188700137098,729.890493598527,-5.40184414992123,407.935160681403,6.80712929312585,1165.22086872214,-96.3641184292252,255.096759378737,-13.8125450260537,1502.32074210083,-17.3435883922766,456.995505543155,-11.4372564657355,685.737347415652,-5.37745299068754,217.929987280082,-7.80788151069422,623.492990093351,9.84316757109073,416.065920292299,-29.0755723986267,1432.12309908301,-200.792555183765
502.741179133347,-43.0791919793469,486.515615506626,10.5066348878142,1141.64751539741,-76.5732211092495,1545.9023624326,-1.49839910446568,730.520101773316,-0.721084104330673,410.09985984777,7.047382520035,1165.07824793262,-95.6752033654971,257.471701507971,-14.6708321826888,1506.89672480445,-16.6296441890913,460.605190344008,-11.9535418953134,691.790917354998,-6.38685407190162,218.691046666164,-7.21036013479555,622.568756217032,12.480914504289,417.170234403208,-29.4622619624652,1437.85735777921,-202.841643854841
510.174565978369,-44.2953166909041,490.635755763935,10.7319195430235,1150.12625799368,-77.6316008740108,1565.71271796812,-3.86043233801322,748.403310977696,-6.35328233102673,416.482624638662,6.68562791038317,1184.21619811356,-99.4388448900473,261.245591414417,-15.0704995468501,1529.11010023951,-20.8847026615145,468.234807807129,-13.3943973760925,702.264233029436,-7.84195401717691,222.546255798295,-7.79112715961852,629.464004770697,11.2879121123689,421.113856003662,-30.6140292479634,1453.00424211711,-205.08934511365
520.120846293045,-46.3692422655138,496.555911047131,9.86975285842336,1168.43859051835,-80.6281033990518,1586.14540572839,-5.3788744241493,759.798618621273,-7.49388323478535,422.474026065242,5.93289468794694,1204.77639331785,-105.421624246853,265.642146943783,-15.585974940752,1555.56278171124,-26.796808400443,469.381155542283,-13.8938193520545,705.810020671482,-8.72812721435201,224.204942762264,-9.29472143369028,632.881021193303,10.5884993373459,421.68721559472,-30.4522549411223,1446.91809294067,-204.355546385961
501.104761424401,-42.6195551823,485.535971992174,11.0624971715554,1140.5284693339,-76.2696843105652,1540.44087398265,-1.15427083305321,724.070236775337,-0.805725067037433,406.421663817854,7.78563341393348,1164.85956079919,-97.525372363323,254.271306095269,-13.7254947711606,1504.37543809987,-18.4390359904329,457.150103712876,-11.326178698778,686.56177080102,-5.68088538701364,218.708504390861,-7.86468782625458,619.783203374694,12.2286849734796,416.835221227131,-29.3091032142916,1432.44066967446,-200.681169987746
504.323104238979,-43.5224836587305,486.730486354195,11.2891277337011,1141.56436403962,-77.7056454321023,1549.33145395779,-2.25093070832668,734.659342180419,-2.72877795257748,410.500760903859,7.51282145969477,1171.98009764949,-99.8858091112911,256.814117044828,-13.975936865083,1513.68214356565,-19.6769075487804,461.288333456113,-11.803340922679,692.557997595396,-5.86900253937104,220.184540248736,-8.07264741783893,621.7813388744,13.4242665671938,417.62142071917,-29.6422916486974,1440.81729500562,-202.652672312155
512.316484732161,-44.3002607668201,491.874407512532,10.7946016465401,1153.64360755415,-76.8298798035453,1570.11769350484,-3.78278374370017,751.269308471664,-6.40210137876256,417.382490232918,6.80908625475787,1185.83823689939,-98.462497639003,261.562599507758,-14.4087680726965,1534.6545621907,-20.63916373533,469.975648899833,-13.6281532988289,705.047586731871,-8.48981527240984,224.095292196053,-9.43885880437089,632.180692104899,10.8620030345132,421.60055541046,-30.580967325403,1457.88535811104,-205.50673245475
522.132775316939,-46.6050920037294,499.162321433054,9.21084304542351,1173.49132842119,-82.7459777744933,1594.84963691101,-7.12935148184518,763.085088750645,-6.85500232507319,424.145671453061,6.00854655280711,1207.45736470065,-103.082754486074,266.663904317443,-15.4809238753587,1565.55176979782,-27.400308385505,474.769976317509,-14.2370040655731,714.932005696216,-9.62600226431373,227.530381617229,-9.9719545011021,641.299128352239,8.46038663654538,423.610126964201,-30.872154794664,1459.39308393579,-207.065483838729
503.974684691433,-43.0111117653655,487.885152653474,10.5872741994998,1148.23858162378,-78.7937308829569,1547.64210776328,-2.33248424607332,728.444783637997,-1.66008774413841,408.240549202901,7.22689702868019,1169.4045107309,-98.2452924298988,255.934000754353,-13.8108932313388,1511.12792670657,-18.6411954935383,458.825476038268,-11.7577271910575,687.85825912675,-5.38356982674506,220.056181155699,-8.35759678546119,625.357442656998,10.1097751945864,417.291326825225,-29.6761576154166,1438.08561710845,-201.923872545147
505.107779135058,-42.9915614890654,488.587468246137,11.208041825623,1144.76351689003,-76.2692485374593,1552.89779215612,-2.5466277605886,736.873859305576,-4.35440331365589,410.654095618948,7.62847291047928,1171.62883205913,-97.0625010137691,258.003366060101,-14.3221670828773,1518.11464551131,-18.7159188011638,461.986147845018,-11.8571386235708,692.836975001782,-5.99113046204102,221.627977891122,-8.72994553209411,625.669819069418,12.3020226267434,417.966523458148,-29.6202981638128,1444.56454552932,-203.997591365624
513.810835711723,-45.4864255260817,493.974687202295,10.2573010961711,1161.27903975711,-79.4256148013324,1572.41004398922,-4.52052129062182,748.244902737043,-4.8162131767615,418.347848839726,6.1505615030997,1189.07731093942,-100.145086322915,261.521178968803,-14.4639616819583,1537.03585291449,-19.2785849312874,469.454022146632,-13.5516951381214,703.612238762059,-7.37347098964705,224.150827441452,-9.85734950713421,635.495517606833,11.1235326916197,421.691782671296,-30.4517538520934,1458.94697968799,-206.301918694815
519.717581750927,-46.5284049630481,497.487715749664,8.95097764529483,1164.91118965955,-77.5177957694915,1568.17767024914,-4.31196066501022,743.551489578367,-4.81380157571812,414.832529467129,7.01617739525025,1184.95628343717,-99.7964711295305,260.647886785839,-14.5928645860733,1525.30445536539,-19.9557894408244,460.811100786178,-11.9904380518605,691.788333037452,-5.58783870676087,222.933493620466,-9.6148255259699,627.624369675078,11.1769327955318,419.344284390268,-29.9036293284843,1441.95258663498,-202.491479088472
502.65262204162,-43.0695333786909,487.856064935423,10.5994546572744,1141.27143765366,-75.5889240223113,1547.46451744844,-3.2560061475769,731.565421393472,-1.82626156334045,407.397614207428,7.97743938628053,1166.84093887256,-96.5392556981138,256.047150093032,-13.9981297901142,1509.15731152451,-17.3273517897095,458.441818210493,-11.7092254438715,688.654725610692,-5.4710232662585,219.242241057338,-7.93760441524085,623.424398126071,13.6727921349241,416.949399111996,-29.5520890915968,1434.4756606183,-200.876050480843
506.377290577069,-43.6823175585341,489.845472844953,10.7215143682199,1147.61792778665,-77.679637359968,1556.48934098482,-3.19155747648451,738.465659070179,-3.09827221260488,412.59309101759,7.25644943704238,1176.11111782588,-99.7178550653842,258.318317846997,-13.9189967979729,1521.02270483856,-17.6634014207563,463.814773559537,-12.2174579564222,696.254224255952,-6.04608809577596,220.330531129912,-7.52595880809495,625.416527350667,13.9968262539582,418.17384703766,-29.5464131930242,1445.05178915646,-202.723755014266
515.221464027871,-45.2910023005494,496.466095147091,9.42961387359452,1156.27323531351,-76.3692228451766,1579.07203392404,-6.21943295451817,753.40501652576,-4.74516734075969,419.509679655239,6.48639775626948,1191.98077194777,-101.879285513585,263.648816298125,-15.0120737303179,1545.52789329377,-19.5298031726506,470.919668255021,-12.9648307763139,707.541649685038,-7.89805021944004,225.743866286872,-8.93192615835465,637.752537653196,9.36618449716946,422.055268273433,-30.5608195650981,1465.13244277444,-207.737612065784
524.706577643964,-47.2117251181756,501.843620210806,8.8409116871885,1181.78106614784,-83.6033553194368,1602.13451376752,-8.50727589752145,766.651492034047,-7.23093059969198,427.160049104135,5.46429035803674,1209.20901644845,-102.310488635667,268.783332267436,-16.0260825109199,1567.65998357685,-23.3925290021334,477.491044704702,-14.6891599777269,719.67494935444,-10.7480763977636,229.359409530326,-9.79135362831473,646.227572814557,9.52094249599266,424.994106208993,-30.9397305849041,1467.59312397082,-208.540747404177
506.067796938649,-43.7756041025389,490.059110674096,10.5307753374627,1152.36877957517,-77.9593314122519,1551.17550104598,-3.07987511077986,728.883785438869,-1.40798000235963,408.104339422249,7.80645528899711,1168.20924970834,-96.1427852775636,256.456553664356,-13.8237704959492,1521.38323388095,-21.8779304972559,459.373478060517,-11.7923832100306,690.678221119815,-5.95786708197394,220.95605574803,-7.41662496061067,624.90575361092,12.3119211604848,416.829417888337,-29.2111672142815,1439.88193477305,-201.648094503433
506.283658092059,-43.5978408799157,490.312036532744,11.081427103374,1147.39605891745,-74.5373937275628,1555.86603459814,-2.9537241000889,736.095151096795,-2.48016331890003,410.41570849489,7.67807492848229,1174.49603836165,-97.0043209057804,257.779193843807,-13.7371198657064,1523.67637865271,-17.5568518834032,463.559913842712,-12.5422272288776,696.223717143778,-6.99067826521381,220.289118520147,-7.76003604000374,627.832423349936,11.9757194989448,416.387183473445,-29.5763905098116,1444.42045685791,-203.332831602426
513.955491117239,-44.9630656245849,495.618805084544,10.0616137048778,1160.71803933788,-77.8805498005274,1575.19554283969,-5.23663647473255,749.715092903247,-4.61952935272141,416.735020939712,7.33428767682326,1184.66877766656,-97.8529924991985,261.851497356716,-14.6442782117626,1536.94401465714,-19.4620343161344,470.683140626005,-13.4860305811074,706.18963559724,-8.5071039694833,224.186836843819,-8.49151015251768,636.229120646092,10.4907060565635,419.606919103703,-30.3890729333919,1457.88943329753,-206.572221541905
522.525582866658,-46.9727668744501,500.987421993566,8.49626842483654,1177.95435860988,-81.9544192578115,1594.47701532527,-7.67887926472852,757.898064199495,-2.78145125211639,423.034446994002,5.88913062879478,1206.3789469448,-103.502004170931,266.48467211535,-15.6171216128832,1569.91531689509,-30.5158400513302,470.887641073568,-13.4380032061253,710.616822156367,-9.08033187493684,225.921859969995,-8.5306416192228,637.327522515852,11.3300596185915,419.491962530842,-30.1313013527466,1449.59198376176,-203.88489413313
504.510145389891,-43.5257128128484,489.675563174172,10.8439169002419,1147.89974963236,-76.7628217798565,1548.15925495729,-2.09586592626626,727.762105890709,-0.0723337933485339,407.018602052623,8.40930787104137,1163.78880607578,-92.6865479385783,256.499294857919,-13.955938893355,1522.15547494702,-20.4988632912461,459.689562878374,-12.0387498488042,690.73018779525,-5.51761274113379,219.862384806636,-8.33784201573502,625.007422786462,12.3450848511987,414.514644117482,-29.1925208548102,1435.39562748014,-201.906964445355
506.0227880039,-43.5096111738082,491.50855664957,10.357960660244,1146.50132531459,-76.4638785129744,1555.59068174955,-3.18546979282363,736.645354627035,-2.52694826369747,410.33957558051,7.79287286775847,1169.91200543669,-95.9574174160723,258.268905246023,-14.1895167115915,1526.4808243255,-19.9166196339992,462.988088224167,-12.1958744406476,696.332609586526,-6.73697691567316,220.539113635405,-7.83365544852119,626.886885860447,11.7764917379745,414.188763837947,-28.7689749642744,1439.53548159215,-202.091485653647
513.785032340569,-45.2478792327489,495.475604615168,10.0572490238482,1157.54157432682,-76.2024692252502,1572.22062969637,-4.31168806301282,749.287170564007,-5.76501522048901,416.196561606102,7.47411753502806,1188.69361566618,-101.828350204558,261.91399439988,-14.8416899029438,1543.70896803828,-21.9104543742908,469.931380485768,-13.7208473390305,706.039114411728,-7.98904044024427,224.634840321838,-9.49224288457936,634.281418826094,10.978206917367,417.610201581534,-29.4705941616631,1454.26067961438,-205.753374671413
508.224974955854,-44.2591870473486,492.322460964885,10.1895349085065,1151.91780930302,-77.0796546575786,1551.98323861231,-3.1361807860549,730.932549160731,-2.76654969720948,407.443421686875,8.3943829651433,1167.54302535924,-94.8154021273992,256.386945191832,-13.8471515202658,1518.31428039921,-19.2827000455156,457.530635583883,-11.3305341303039,689.332058387886,-5.4327982951272,219.20678674492,-8.56892278677969,623.376481011371,11.334903297477,412.863374149484,-28.7067267053118,1427.55746671092,-199.943880273811
500.57085664328,-42.2908266554581,487.53740782336,11.1194648351837,1140.25959329481,-75.797997834901,1538.72219947786,-0.605872798368611,727.928699764097,-1.23494541484729,405.355159243934,8.50150485978793,1158.21101413245,-94.0620830779258,255.078469495504,-13.370454532609,1509.35230239044,-17.6055527112742,456.230167672346,-11.0581647800143,687.161599075688,-4.6269044592031,217.988694191297,-7.70543067025432,614.314194913816,13.9385756736508,409.754035343665,-28.2990878253473,1421.10531844424,-198.673967767062
505.542587827916,-43.6860304816876,490.672242711863,10.7340816043008,1141.01305186472,-74.6193871870501,1553.43027034534,-2.49366001659293,735.785404123704,-0.50589344531744,409.979327393014,8.71015186281683,1169.96325252116,-95.9917945590776,258.219142568467,-13.7380443704945,1524.71313847458,-19.3799828254063,462.645726142862,-12.2436482689724,695.823547506055,-5.70972927535783,219.797485005497,-8.39830136808192,617.683414374504,15.4034111614179,411.753335492997,-28.4977081944921,1431.15954496945,-199.421984112084
512.851867799365,-44.5380093362558,494.810411265698,10.2294879519885,1155.58359783549,-76.991698480522,1574.04117103913,-5.18418100868632,745.806378613543,-0.685112883279599,416.784862808987,7.63902784600722,1185.54910358154,-97.0092968009036,262.960674186882,-14.8257489776176,1545.45735713144,-22.3254512541852,469.748998619649,-13.1899897725838,706.420743717416,-7.42675046840448,222.964021888705,-8.64488437158885,629.38936509522,11.6986176532673,415.817808320884,-29.428549028522,1448.21722862192,-203.762857091504
509.472367057963,-44.3674135470659,492.186896817995,10.3996303015291,1148.87447064279,-73.6215946736256,1551.82079837475,-3.06798346334065,727.355482952724,-0.153816239801304,406.56430767699,8.98766347548811,1165.75755257222,-94.5517057701431,256.18686537406,-13.4783098971252,1513.37875209859,-15.7372801613596,456.606898615514,-11.1381219181519,687.608560169978,-4.00974320573575,217.421639142198,-7.09660252371227,620.337405044923,11.9979385191622,409.884073495675,-27.9252091577446,1420.74045355658,-197.382371060572
499.364223023784,-42.3262461670127,486.426673902294,11.8761507086078,1128.57803811644,-68.8135506437203,1537.19054584604,-1.31759705917166,719.109410131484,2.10426390499243,403.858918651258,8.68069310125836,1152.9246954199,-91.9560348790975,253.874866366842,-13.0350345752757,1501.87617382665,-13.5004604014384,453.867179104649,-10.6565242218545,683.956511750184,-3.25619199673631,215.437346887927,-7.13434064132319,611.586954830874,15.0538204448646,406.644601595317,-27.6668640152312,1413.55277530825,-196.457212441082
503.113933374225,-42.5864251416863,488.227672709115,11.0875101948759,1131.4063868484,-70.4573559561246,1547.68279071431,-1.83485068983003,729.044510444268,1.19377368600917,407.292772916059,9.19284105686252,1158.65105623425,-91.2924388750685,256.479040275986,-13.4418536237181,1513.28241925649,-15.9979496743217,459.467244890018,-11.4165411500964,691.357157949086,-4.51984041039294,217.074854091616,-7.37371068338817,613.196985005183,15.9401883035339,407.958076686828,-28.0332499866087,1423.44697158982,-198.462214772061
510.119478931478,-44.0287171631224,491.456797179023,11.4395756581566,1141.45467787833,-71.9359226475502,1567.28398628468,-5.46245419650595,739.953348613187,-1.00151093814394,413.80661394514,8.33928785654158,1173.81961665387,-94.2959202159443,260.196300471868,-13.9812106790767,1529.13652422887,-16.7148691946785,466.177914325705,-12.3494824360012,700.333152496064,-5.5830594145903,220.662562548736,-8.25835425160658,620.954082160776,14.6882839032859,411.385997365373,-28.4218639687106,1438.22163288463,-201.406564023956
499.969349842877,-42.2157442916022,486.902993548324,11.2951235904943,1131.6824724619,-69.2976618605149,1538.10192906924,-1.23255165019448,719.719078887157,0.274379552754275,402.28961184184,9.48697348056296,1151.30011995168,-90.7646279570216,253.423788736378,-13.0967062598149,1497.63536276612,-11.8247096446447,450.970775686503,-10.2834109347463,682.271543961424,-3.83676211577252,214.314643779855,-7.27724255775386,608.481544128092,14.6063979283066,405.826962925346,-27.4051325559839,1405.63397188924,-194.074815351876
497.959051897551,-42.3228824368398,484.477129109723,12.2565311988764,1121.17732043648,-69.6782884214183,1534.40207817381,-1.12956325705005,718.572929834875,2.4399778567723,402.019644839014,9.69036257902995,1145.62908200009,-91.7182741965678,252.725575118075,-12.5205108152305,1493.54841876642,-11.6218896963869,451.243458840634,-9.67760541269823,682.810590838041,-3.55654381589492,213.384229129248,-7.36011568732992,606.71871876763,13.8259411631824,404.427723214799,-27.2193215278639,1403.54157508382,-193.316350876897
503.573689752668,-42.7513885370329,487.696169047896,11.7095403451489,1131.4338304388,-72.4102414677356,1551.42367401301,-2.47414321022821,730.235572089228,0.925770234018746,407.767095636238,8.99631789403292,1156.6211436352,-90.9006533603721,256.209610008146,-12.9667060714531,1512.84743736186,-15.7302416846934,457.585441115118,-10.4339424744984,692.513055074517,-4.61150317247869,215.914312154852,-7.73553609276734,610.397851970921,16.2845168411831,407.070748520495,-27.5355836663179,1418.09001867507,-196.703731710414
511.559180457823,-44.3429517481597,492.481067283236,11.1513021051559,1143.65990910116,-72.1252062786413,1572.87380636031,-5.37157446337108,738.141988523943,2.62471719439394,414.553247048988,8.2637931387151,1173.58233533607,-94.1145205843112,261.121378129624,-13.9682855056854,1537.69204055408,-20.1342629305484,459.430106399247,-10.7486151868171,696.728414061251,-5.25420774484899,217.730368019127,-8.22976445295507,614.796752122492,15.6217979302863,408.815555555134,-28.1229131964863,1412.5525840808,-195.23441777868
495.804427200899,-41.9030737756531,482.723848291351,12.1275797193488,1115.52538446031,-67.9666189467403,1528.88785139316,-0.683746957471482,711.653937024875,3.75356236078663,397.665634009577,10.6566049550986,1137.26029058974,-88.5388773348269,250.803808766087,-12.3386052146574,1487.18408897743,-13.1699842518537,447.013036988964,-9.32411220692624,675.928854578944,-1.31781494329587,212.998078973419,-7.44357956859252,600.433793044866,17.0029832627027,403.092620915509,-26.8431411477756,1394.51852168772,-190.968957281569
496.94937963742,-41.7928633698281,482.633450225384,13.0288422814478,1115.21190136545,-68.262550338222,1537.3348073575,-0.865204958002894,712.828713740222,6.54663947706767,401.709909493728,10.198518572367,1139.01793149109,-88.0610644025469,252.98452325635,-12.5595104869295,1486.09877317664,-8.3557876536652,450.629794741464,-9.46702778232842,682.546976156909,-2.35947242021271,212.554978163644,-6.90480069898983,601.673067168927,17.1160455631199,404.124455325753,-27.0323496901498,1400.51274375538,-193.00766961675
505.364562839764,-43.3757143754988,487.30056194539,12.2567756826448,1129.36465696166,-72.094195772885,1558.46723585036,-3.59183812463702,731.759115428673,2.6415980168877,408.211032029683,9.56066004537709,1154.2049269682,-89.9678200160591,256.676494307755,-12.7699691437041,1511.28590854381,-14.6654522968834,457.696522674368,-10.1965496422655,692.756666203143,-3.61793171185532,215.121201569346,-6.53959138229487,609.548994579354,15.7481663560976,407.810464400115,-27.8708744351414,1418.26925472164,-196.179193826362
515.12165224334,-45.1518694533368,494.313240009176,10.967726743372,1144.61697503084,-72.0257102381568,1583.45458831636,-6.7451714559696,744.249952487798,0.708022515976748,416.081659068904,8.05787215565876,1176.59532063449,-95.0864835400177,261.817261564874,-13.6483612491041,1538.64523093467,-16.2993916800471,466.519450204001,-11.9506731768141,704.917513136023,-5.96506606071178,219.890300235991,-7.33547575944002,622.263936510132,13.7551947206467,412.970533683742,-28.3241901772986,1432.41764339841,-199.201131518917
500.1229994125,-42.9055777935517,483.528600267295,12.4929547067783,1126.83202976685,-71.3852841670445,1540.44257337281,-1.8538798058766,712.853262264971,3.56249367675359,399.821742745106,10.0419389784237,1140.86516108251,-88.4028735258306,251.526211816472,-12.2897415290212,1487.87388645917,-9.69576822318471,446.401524955562,-9.06998244270524,676.076762973558,-1.03457820321693,211.010357843047,-6.00458594950509,601.013435401477,17.6966994979466,404.116582231104,-27.0829994954804,1399.51577812144,-192.365596477877
498.446212907554,-42.2987006970805,483.155584416643,12.8358546344554,1115.70613477494,-67.7272918154112,1545.28258305821,-3.71722029079296,717.035116008838,3.10719806101705,401.604094617689,9.74468820168022,1139.23948247206,-86.7559125332234,251.604917142896,-11.832718503506,1484.37021808738,-8.02568502226812,449.888289548319,-9.50246776555214,680.875766419956,-2.46922823326194,212.931485543852,-6.37832554557768,601.528262718358,17.2644959260347,403.885365967748,-26.3551712578939,1402.45780164061,-193.330396188482
505.796972588591,-43.7299116724513,487.202817013029,12.275810296114,1129.1626536302,-71.7064581114617,1561.73358846456,-4.84400108322145,730.544268705588,0.865722637911437,407.18335395084,9.20010851920646,1148.59463896821,-86.6138469110302,256.076816537757,-13.229576164912,1504.27236657487,-11.7338036134349,455.980944369866,-10.0878137000257,690.061337463245,-3.20095771643477,214.63174907826,-6.52125620803543,609.8745268061,15.13659349487,408.255552092453,-27.8146342678507,1414.02982634443,-194.701386058856
514.968928822101,-45.6093013509289,492.714502619434,11.3318319559748,1141.37259448544,-72.4847320058557,1582.38317223698,-8.39370905024548,740.57362710125,0.476318719932838,412.548418849561,8.8368756584103,1167.62940282344,-93.4401117953357,259.733826746983,-13.5329155174937,1523.71903769241,-16.4123372085749,455.155956354015,-9.90898376919598,691.752003869729,-3.57494937924737,215.139336758745,-6.527957365213,609.993498784482,16.3510096286822,408.908033429677,-27.5370244139171,1407.77953859294,-193.354321858654
496.977559108236,-42.2764583962786,483.427536387341,12.7306853758109,1113.10458026896,-67.7160785735081,1538.77263957062,-3.22032906720433,711.824725067676,4.18378340566255,398.035400274335,10.4780241350197,1131.46134444567,-84.5168786036679,249.90752859167,-11.6274672810889,1477.62190028696,-5.95075150850311,445.318881242577,-8.6354261252562,676.006888922467,-1.2239054273027,211.985362214316,-6.82676690057789,599.631753139374,18.1989024660693,406.114996606822,-27.2874774118589,1396.79918592753,-191.33196929612
500.264815665977,-42.9704031799285,484.497465577734,12.3177665657281,1115.09719988898,-67.8787360928832,1548.55255839688,-4.04106996688687,720.487056983597,1.44379518316433,401.973787140934,9.9882391644369,1137.8499374074,-85.8238892979044,252.485069401514,-12.3228501523124,1489.19427388521,-10.7490758286759,450.229493752013,-9.5576885830555,681.857694217234,-2.05869660763761,210.924601207829,-4.95812495413721,601.760288309939,18.356822666442,407.521505125398,-27.3149038713363,1404.73970672711,-193.49626380386
508.521244359091,-44.8305367365004,489.997206930766,12.0907177301473,1130.02246203918,-70.3723416641416,1568.23534226977,-6.70711921043016,735.994386616661,-1.08657153559421,409.647953756408,8.7826828089681,1155.52324967465,-88.8045137630815,257.198433173414,-13.1918875391288,1508.26505830361,-10.4534752026892,457.034154332999,-10.0796601026582,693.374157234852,-3.51176042504524,216.413465421876,-6.95977268473653,614.167527700857,14.3317871433798,411.945911415855,-28.148238565715,1421.98937405407,-196.34436174878
517.11465343707,-46.3401162820379,495.782172582671,10.8996863894797,1146.78864291323,-72.9279826199262,1589.49612668945,-9.46027537546655,745.925056987259,-0.413683472443027,415.32985306528,8.69602958272086,1176.18770434998,-94.0219577743745,261.662548222568,-13.6542463329649,1539.94419295979,-19.7971017247692,458.308334322395,-10.6918019419296,698.088560457003,-4.30265480852286,216.4367130047,-6.82665045833782,614.934123296723,16.6538556831489,412.955325417093,-28.0262611787926,1417.18048792366,-195.328590049287
497.302667515706,-42.4632981193898,484.247453535096,12.3566190923769,1118.89471592811,-69.2626462832929,1538.42576268855,-2.7821469063817,711.063429518882,6.35881050408993,398.840790406073,10.1505123985267,1135.88955407083,-87.1329538076591,249.722011523294,-11.6900353793238,1480.88105538314,-8.51707310640015,444.777164052981,-8.48541678086971,675.688445080346,-1.03526513651635,210.599718996758,-6.09014620769758,601.658014174153,18.1883713107511,409.031471626422,-27.4321381753271,1401.58541966144,-192.350961258418
499.406239027342,-42.5861620303966,486.083990461709,12.6142120849861,1119.61870836216,-68.7460703867209,1547.94932781101,-4.71880834872782,723.300999763122,0.893391401916052,401.555197469342,10.2156044103326,1136.10330865606,-84.620944576472,252.760705638148,-12.2708648921329,1485.72020662668,-9.89319642464518,450.032176507781,-9.74093250780917,682.518103754093,-2.16552444459809,211.70409080087,-5.24754662031719,602.82618591994,17.6279309041731,410.167515304288,-27.8568445644148,1409.73950208603,-193.664106952499
508.550099579571,-44.6698032578553,491.637365775647,11.5553009963219,1129.02764390634,-69.7243962156034,1565.34002539041,-6.12729497608618,733.451703316104,0.84221135558416,408.368892480992,9.38981919777071,1154.53773540213,-88.6609258458135,256.346237077613,-12.5883733147665,1509.06129253603,-11.5942309632322,456.739807048346,-10.2390810452656,692.909535357284,-3.42990251071839,217.513940322906,-7.92009433527987,614.105612990877,16.2714869212698,413.44059797988,-28.2456949386098,1426.83361908888,-197.001752150697
516.640074697552,-46.0698526610678,496.678473211873,11.2326726023102,1147.95260511896,-72.2295316516718,1585.82948574293,-8.7132011566877,748.712821808598,-0.491047495381142,415.135090872868,8.4931260365172,1173.90860592743,-91.5653179642303,261.266010525494,-13.5018111744058,1532.9578642731,-17.1389915066077,463.501299856104,-11.350079372587,704.753858525987,-5.88148521624057,219.796178502733,-7.33096221658257,623.671967139162,15.2799201214965,417.847233482294,-29.0163222756976,1435.60373575986,-198.944440227623
499.911334300213,-42.5924203203561,488.754357660967,12.0112183608517,1124.90846751502,-66.3587090899514,1540.85238502491,-3.30030472044909,715.720896426794,3.73975693569809,399.040390075935,10.5744711492575,1143.04224418773,-85.773795527279,250.925593098777,-11.8833276849667,1483.30817038721,-5.69110826188356,446.180585801248,-8.93405559313214,677.854537009064,-1.87889415807324,212.225795526095,-5.21695605652144,606.183760779613,17.1290245017099,410.965663265777,-27.8601462776627,1412.65268956223,-194.209901861624
500.789830577758,-43.430403936406,489.039859900952,12.0007091841484,1124.20025901617,-68.6221177263451,1543.72050388773,-4.20331390962479,725.400520283211,1.44269308879896,401.128203860888,10.5784511384173,1143.89427556763,-88.8445839048168,252.488934651172,-12.1942218097651,1489.02748312076,-6.7074713480693,449.49916693933,-8.94736234592267,683.184517092559,-2.40379480959964,214.541343781359,-7.13443396175885,611.55733390256,16.6158918176122,412.220795382796,-28.2917714900653,1418.58136599692,-195.872416903699
507.302419971326,-44.4575674222791,493.591214384346,11.5060383100291,1139.17268547703,-71.5951630766964,1560.45858074877,-5.99483777252534,735.641253640145,0.554755591715547,407.371140713548,9.93315389088764,1156.59263231418,-87.7453688401558,255.946083225757,-12.5179260499189,1508.39158442747,-10.0502207340035,455.84205479656,-10.0789526554663,692.898774079979,-3.56482493731286,216.226163000299,-6.35746092924157,618.94377333615,14.9874502391251,415.662629396986,-28.9544158521434,1431.98897832304,-198.740408085664
508.255775646044,-45.1739422755657,493.446873120624,11.5248418081657,1144.63500476814,-71.0905213640541,1550.15822876906,-3.46207273217052,729.696855772447,-0.0858511885374973,403.03315749609,9.90515841408935,1153.85332792681,-91.0419080183492,253.837382390439,-12.4209598318082,1500.88399293652,-12.0338915890046,448.432914479096,-8.87060029838773,683.420633347128,-1.72476455557308,212.590057836174,-5.98269959938111,616.887271952244,15.9108541032463,417.798314347024,-28.113609612411,1416.48807890325,-194.260385351751
497.774605228671,-42.6918038979752,490.633883480499,11.8938122251015,1134.89860336164,-70.9513539314867,1534.14478866477,-3.02344222123955,722.13230693576,1.96634376021246,399.704782193251,10.6543969858236,1143.3004798844,-87.1877198696147,250.673831470042,-11.5234288418557,1490.17747891308,-8.8595103902077,447.368855528014,-8.73493387529514,679.008200566417,-0.719941278278782,213.069646977957,-5.75518437721456,609.879108440984,18.4013329870642,412.438438099257,-28.1227075975737,1418.69434972362,-195.399637452651
500.409298156365,-42.9495089888845,490.950744187463,12.3502554903046,1133.53694425844,-68.7886867884456,1541.82045335543,-4.34075299486235,731.447844040503,-0.278058716241816,402.641960617835,11.1878889294932,1151.27964896991,-87.8880562087083,253.487205000895,-12.2042445576148,1500.4769375878,-8.21194060414562,451.750732503827,-9.34191651832318,687.155062833384,-3.18245118051229,216.797612804506,-7.65747792272373,613.599282842185,17.2537291237108,414.043222308644,-28.5065651219283,1426.55452795464,-196.25338521134
508.121553667016,-44.7028698698546,496.043189082169,11.205746533154,1152.74899053101,-74.3556534289204,1551.61764236703,-4.34255152662771,738.681966434773,-0.393667029859686,406.726529858605,10.1755588562284,1162.29606409776,-88.1420624736355,256.323951282661,-12.6465942202479,1505.30936517898,-11.3755021762205,450.296356616507,-9.68635721908839,683.622884795193,-2.13168721137233,215.18296679121,-6.84332065437778,613.050822511857,16.6202116350773,413.724592193268,-28.2716691419256,1418.87292870495,-195.302597607566
491.776858538894,-41.7238315588293,486.862863225787,12.811638959032,1126.29483841117,-70.1200461168226,1516.60663989536,-0.200472150193947,717.363807087464,0.312805088701577,396.394432125551,11.3020580668291,1135.34566600635,-84.0596696786592,249.508099439972,-11.6118436311831,1476.64285124865,-5.67918197795535,444.90950898466,-8.3862302011167,676.087038266685,-1.07312436763688,211.575368620515,-6.08095997731118,606.415064031552,18.7646834494976,410.749503343604,-27.5703933351563,1412.14268849789,-194.40486611446
496.246862093942,-42.389353611181,490.450546153913,11.1410698136843,1126.94209011392,-68.9074649556461,1523.61015360438,-0.490644896255989,726.038162737469,1.32627398159588,400.628022200771,11.026035181771,1141.7238481289,-85.2441463096459,251.62404230899,-11.500401457456,1485.85384303165,-7.24274578809271,449.804260689142,-9.24770052697585,683.250463772131,-2.29994406434448,213.698881783295,-6.10021981544101,608.848013433026,17.5620421887098,412.161403580132,-27.7550503966113,1421.04740763109,-196.288070418211
504.219099963985,-44.046393610487,494.48532600241,11.0422718609564,1138.26185498223,-70.1462281232511,1542.8659286929,-2.91796983593515,739.21520311836,-0.945967921869633,406.746057526289,10.6107907151216,1160.78817287629,-88.9286742446789,255.450893452521,-11.7563093853052,1502.80379350703,-9.05740703949253,457.563355529978,-10.8129232440447,693.396914652012,-3.84957535216462,217.36928039528,-6.11221565751565,620.08047925962,15.6713785134533,416.050424703503,-28.3999009659643,1438.86685010085,-198.82243310019
503.35138899743,-43.8642919041953,492.240776527007,11.4743809474823,1143.2477158322,-71.5506788081265,1525.74413757696,-1.88955367916679,722.398430216303,2.54137380927114,399.065882891078,11.1624781472397,1146.47088455341,-86.5805582517645,251.266185499741,-11.5669344402209,1483.4289480341,-7.34605275141411,446.579497086536,-9.29221365467619,678.220591537962,-1.91117134224627,213.338244509706,-5.29097457654499,612.635475744572,15.3589765197381,413.213653987277,-28.0276602467332,1419.07189642799,-195.540128559528
491.758560964306,-41.0636368388896,489.263136331594,11.6984146343085,1127.63714885518,-70.0128044801772,1510.00723366622,0.0259983197342401,720.247754662498,0.690600266537399,396.510007739528,11.4787381561193,1134.43184862477,-83.3644597537524,248.80535150376,-11.0982116671197,1475.97552409512,-6.92189024405329,445.335572203921,-9.12643340616776,675.256394034374,-0.98756450648028,212.279589941258,-7.10798261755511,605.629571562422,19.1859020190215,411.160737542017,-27.500351291092,1414.84022138466,-194.790315867256
495.814032397346,-42.1463146254583,491.158009287743,10.9805337049647,1132.22006889076,-70.6536296627955,1520.29683777661,-1.09267838947552,724.672013823456,1.69799936701806,400.654779371772,11.3682020016361,1144.79315855034,-86.5136050631852,252.654989968293,-12.1380794527177,1482.08705020235,-5.47623951915291,450.611159894447,-9.77675557972817,685.143939712584,-3.49350563521385,213.724228359354,-5.2431143162319,612.395700148951,16.9813581182565,413.716270028293,-28.233964292031,1424.90509615979,-195.653616424126
503.979505423864,-43.7868781192567,496.011684659061,11.2840735585962,1143.58989918961,-70.6028739693222,1539.39787030077,-3.02554884671312,734.610742570292,1.3058873522879,407.195304587213,10.3824659101956,1161.61913928001,-89.7045700846618,256.192327556145,-12.3579776785673,1502.86662621059,-8.27043522000717,458.438391642363,-10.8133150583694,694.866115626874,-4.22653953778801,218.688376801828,-7.06618589421066,622.25467688793,15.0856246336225,418.622014751009,-29.5334492640122,1442.64377126151,-200.34403285214
505.085139455664,-44.1765472815408,495.288137697162,10.7024677458167,1145.44155567109,-70.5774839367696,1525.0522617776,-1.34158817298436,721.205694884816,2.44348789649098,399.713720827707,11.3956982426199,1149.1562717251,-88.3694717634617,252.332976480967,-11.6909169778542,1486.38107084226,-9.31967966600375,446.435766356114,-8.86705433679875,678.466964631893,-2.21344323935016,212.637052674429,-5.08775162198458,611.958503942056,16.4113878295508,415.175840833044,-28.6264068929147,1422.75650910984,-196.921259341103
489.811320418306,-41.0426287112604,488.423054942067,12.3185738833064,1126.9752004128,-70.6648358223442,1504.57423546036,0.672645321309908,715.081442397227,3.08206134342454,395.750322777036,11.737446645145,1133.40916167683,-83.5009493288176,248.907245638314,-11.157533512538,1464.85188970561,0.0555195124948707,444.300293493315,-9.01909742406133,673.108924782879,-0.620090143334912,212.174458583788,-5.7392457467328,607.238210658077,17.3456826638414,412.315462434746,-27.9261820978331,1414.77092388975,-194.586608593426
494.655284646615,-41.8916282667554,491.70011907175,11.333962748707,1134.82677575965,-73.0393651425998,1516.99733672961,-1.17388492091501,722.654685430864,1.12364658265326,399.916289627211,11.759619343282,1144.31704120249,-87.1625686472238,251.402419459383,-11.4754500256306,1480.56868873371,-5.26662996381687,450.443098507974,-9.87665816450204,681.9660407182,-2.2872678947897,212.339695392517,-5.13505987525632,608.439671055466,17.8393645002877,413.894587358632,-28.1767222577246,1424.36439809059,-196.441955903849
503.44044943045,-43.9815828227596,496.950076411408,10.4184739049735,1148.52946605863,-73.9287393070104,1536.77880287615,-2.54507125663575,734.385806630308,1.51627328006971,406.892178166263,10.6448024645478,1160.24181225824,-88.0860370973553,256.032324734251,-12.1844990209091,1500.21793337158,-6.51422283009454,457.759788099415,-10.8181027441567,692.996291208835,-4.14888340735745,214.76896853422,-4.35198664417065,621.457438553017,15.2629011962607,418.102608606992,-29.6901268329088,1443.80076064772,-201.419378067385
512.288031437668,-45.2756463672306,502.547318924505,9.53676370000524,1163.96607091201,-76.5438535014311,1560.35842318732,-5.84651427750285,752.365275365571,-2.35337205683469,414.127625195164,9.76626096161785,1183.97033015784,-93.9910934555378,260.779429221351,-13.0040939686237,1523.01809314084,-10.2980738907906,465.757539817513,-12.0620462727702,703.948750713548,-5.34639684358988,222.010758112705,-7.37439871329669,630.223475348231,14.8817691279942,423.636466082258,-29.9805821087655,1460.21602506607,-203.433679524194
496.935434108142,-42.4685187306408,494.193426077638,10.7798381350493,1147.08018199094,-70.8979004858652,1520.51554462718,-1.20140917041764,719.221429573313,2.52883690865031,398.565031583621,11.2565758667751,1146.95437112648,-85.7762008390194,250.274340737282,-11.359609864298,1481.1760217466,-4.84670315697945,447.043649812995,-9.34177724385226,676.180426316465,-1.45749815803783,213.429921672491,-6.29986222319619,612.652393414102,16.9864426555717,415.105086234782,-28.6673801745389,1425.91029110429,-197.040421927987
495.613252470947,-42.7195289145144,493.798709675497,10.5191404931399,1139.18080112205,-70.8861473185841,1517.65197406134,-0.102265302984314,724.024688923769,1.65573689569457,399.884639953779,11.5710161771458,1145.42581752457,-85.0120752049585,250.823643940314,-11.3488998467078,1479.77512795077,-4.61224576924,449.255931569892,-9.21419025027651,680.128453154702,-1.67110791456852,214.658558327165,-6.06491615303477,611.122200735352,17.6340774390997,415.198807034067,-28.9198403981025,1428.95491360238,-197.359128929695
501.911969325697,-43.4925676701835,498.055535365187,9.93824592646704,1150.90014899799,-72.4835696665007,1534.87738017871,-1.93935047396946,736.201741884988,-0.15886474784147,406.241380746897,10.7204686543757,1157.93037791079,-87.2294645359324,254.932473954362,-12.2345615804962,1497.04453053814,-5.79715257686855,455.990170880705,-10.080681336911,689.683882436708,-3.24496142542518,216.861444644914,-6.22627218561944,619.451094335184,15.9355385802608,417.668205495115,-29.021152450453,1442.11792139483,-200.341579589226
510.796198933194,-45.2757025804206,503.379387681404,9.17623397754676,1165.97409421145,-76.354596325017,1551.76791392082,-3.62093534111518,744.893944956585,0.970586301085466,410.74854851216,10.1766045788704,1173.38318941277,-90.454000012308,258.612499084009,-12.7490253102616,1511.16337593871,-9.61717738808584,455.303928488766,-10.1303524862508,689.150495191437,-2.58983448559369,215.710353072864,-6.08048087686018,620.929567671354,14.4242720221915,417.935210326967,-29.1309876819292,1432.72055887149,-198.012868304438
492.780069034098,-41.6647514960777,493.402061742826,10.4958316055211,1140.43498024654,-71.3323937686051,1510.20132089609,1.42276284740553,720.756626313889,0.288336785184736,398.072839270145,11.6045924047929,1141.54350823272,-86.0030816016791,248.296973293572,-10.7593417003475,1475.01178633917,-2.86909903270138,446.312222325915,-8.45842085779569,675.09854679546,-0.852966699845469,213.294162464712,-6.37896066613206,608.74216668924,16.8485456531738,413.561847048984,-28.5483300060222,1419.04345072336,-194.996318457064
496.291856158204,-42.2718777763914,495.667642627386,10.3023461542292,1142.17996279207,-71.3880677406648,1518.6478015409,1.92836129949466,725.333957254522,3.50505605097923,401.73591628016,11.5216499865961,1150.74149346245,-89.1497636580843,250.544824263316,-11.0526177076787,1485.44950205906,-6.4643242638795,450.0287451372,-8.72468277083582,680.656578641674,-1.26659169554221,213.000496064356,-4.96749345099952,611.976973347119,18.1407613256693,414.173749698974,-28.5004730488549,1428.21178716286,-197.162364141623
504.064806218053,-43.9569349330243,500.550510697496,9.14935843654652,1153.91499630846,-74.9933979956388,1537.63320130087,-1.4231303790401,741.118943516396,0.189205436505963,408.191119157204,10.8894198890789,1161.8656448037,-88.0850046306536,255.28797393635,-11.7856741971155,1502.46097724444,-7.56686400387959,457.849955136904,-10.0338488697689,691.580330036451,-2.885143844254,216.766600469836,-6.2431340218398,621.676032505451,15.521316914137,417.961022508387,-29.3796718528475,1441.69324334284,-200.080931846854
512.624264341482,-45.3536414133343,504.863645875132,9.24702324439408,1169.75474407746,-77.1398932071089,1557.55955325379,-2.51260296902766,754.561399009085,-2.38351630025722,414.996391177645,9.97640781014535,1182.95095090908,-91.8280365889897,259.734583694177,-12.5718459397849,1526.09069945941,-11.9917351333172,461.22155713644,-10.5841837192689,698.04105209062,-3.29470252377861,219.297549325775,-6.84673330772065,626.038819282105,15.7299345285335,419.478867889445,-29.3097703998702,1438.88051425178,-199.378040462685
494.099893163934,-41.6201157061627,494.266124230245,10.4834594579708,1142.09245530717,-71.0492156145198,1510.6759494864,2.87818640735862,720.35814481327,3.11059592877076,397.959315517503,11.9840950080068,1139.55971738153,-82.3732374134888,247.948777395814,-10.3970429928825,1476.9337963029,-2.53070587970022,446.689970660703,-8.3730566819766,672.302602105941,0.471891879772661,211.367877039247,-4.62728672040542,607.326101349271,18.1723484472816,413.32510334129,-28.3802160364944,1418.32238947672,-195.20205959683
494.864653475257,-41.6677098200799,495.274359425802,10.1188793260181,1140.3209719451,-69.7876880931384,1516.64577232043,2.0917322109599,726.602892464052,2.62002829081766,401.123893157399,11.9048824265489,1144.59860664418,-84.3000903152656,249.67953482853,-10.452576196515,1481.28089656694,-5.10808442841096,450.027725651429,-8.33862887177504,677.734415859114,-0.125111410827845,212.962409199112,-5.72762526944629,608.800783496716,16.8408896179088,412.963383357917,-28.3889852500224,1420.61842808577,-195.620084708512
501.778389475811,-43.1091349837852,498.784875495733,9.42107574814367,1150.01819549965,-72.2487696178245,1532.2768199068,1.44500567374271,738.652660906712,-0.346415118752063,407.064990933334,11.3080839607039,1158.61991541788,-87.20213313898,253.418604144311,-11.4251658157801,1495.6559369635,-5.85059710710265,455.535885314227,-8.5778388163517,687.549717225967,-1.83342040725325,213.523176517228,-4.76839513471304,615.940972661303,16.3455584790061,416.128673522097,-29.1211183120415,1432.60228811044,-197.419104492192
509.003330908781,-44.2144400056573,502.889092423241,8.717032962626,1156.30881902887,-70.1438615753277,1552.14431649412,-1.79035092599366,753.823636303494,-3.08828505963247,412.913643573597,10.5707188629424,1170.39690073563,-86.6345526897138,257.463751243957,-12.0120660830267,1518.64482524022,-10.1309515482321,461.304355064351,-10.2122087912096,695.53204323245,-2.96624789097589,216.045600030606,-4.64921618956999,619.945404429206,17.0668334049831,417.508286349875,-28.9098543873794,1431.93902573804,-197.792278357879
494.024225504987,-42.0354805049246,492.37881825292,10.3732872321283,1139.57978113802,-68.9591815579807,1509.93342245709,3.23554474856546,719.256988674949,4.18281368575997,397.285961127396,12.7386575501988,1137.56288080363,-82.5831944027428,247.124211794714,-10.2703360040945,1466.28063354346,-0.0810138926953452,446.580568214609,-8.02048889633346,671.652136151324,0.696759164092438,210.222780946905,-4.72662861552747,601.327429226969,19.692458338991,411.534468116194,-28.0884015061022,1410.45874041563,-193.107116656891
494.120132241427,-41.813927039445,491.882794171338,10.930914375992,1132.26283437605,-69.2672881417493,1513.11648864006,3.5231674365714,725.782774914272,1.83295898002419,400.607788299352,12.0108822699923,1139.21121627475,-82.7296952059799,248.719475148682,-10.3053936874279,1471.76799177328,-1.0583822787505,451.007279485052,-8.9749151990798,676.842985860889,-0.295356875164006,210.718699286024,-4.75578812710658,604.596529394193,17.9749029933757,411.385339511061,-28.0105404825158,1410.05448650581,-191.889713130232
499.958843637928,-42.7187095443441,494.291408184179,10.8051040257336,1140.7516589789,-70.2814577667205,1531.31808094453,1.33803729143842,739.60072360828,-1.80437167577869,404.768597622364,12.71030480443,1153.72915852952,-86.0357519354735,252.552179702405,-10.9972301544364,1489.28637438782,-3.21645277370644,457.253942150569,-9.73593926632688,685.561371013232,-0.977369475124636,214.174758354853,-5.8612632578957,609.361379520951,19.1706291474645,414.131907726175,-28.1556802510148,1423.22797211506,-195.547230188788
507.915825392497,-44.1621751629482,499.414134521224,9.0336269806224,1155.80847691366,-74.9972724601554,1545.60473099656,-0.359624465574859,744.351225282021,0.335430154784584,409.862104454788,11.5812799095991,1165.96388433121,-86.3008551328409,255.531207120973,-11.5054511199247,1499.9940383598,-6.5360002018841,455.459756891703,-9.5999954688965,683.689988921966,-1.48557629965136,212.664180858421,-5.01407680445847,611.21843214778,16.116181269742,413.325569052376,-28.0244331836199,1411.21609564245,-192.359789834002
490.328971885455,-40.9524107362305,487.510758231585,11.0901217981334,1126.68601460153,-67.8229275560881,1503.49319356285,4.5113548079325,719.325337881522,2.96513678896282,396.415902391413,13.0045691461165,1128.98342510126,-79.9679596681252,245.59600735033,-9.77124310440312,1465.12437876653,-0.746903815805546,447.437667493422,-8.54061142148465,670.175883361819,0.563712268721245,209.212056162495,-5.17857573600165,597.575794427864,20.4547109197574,408.760239618719,-26.9138398019828,1397.15561970948,-189.915839507796
491.976858662497,-40.912052518378,488.043707365131,11.165337829933,1127.22301611678,-69.6582609810442,1509.43159698768,4.41106699190764,724.274474498076,4.11055185178523,400.443852902913,12.4793585304151,1133.30549251846,-80.4968599251337,248.204665275089,-10.256143460664,1470.76237041165,-4.50102778905552,450.801039415448,-8.70403457542361,675.428813365042,-0.304169130576314,209.377665298932,-4.19464047405623,601.325114711142,18.6014421584692,409.054474542869,-27.0037589996138,1402.67210896063,-190.734356424747
499.472503726441,-42.3966218927553,492.182391047852,11.0504075738283,1134.54459229725,-68.5726335238077,1527.90720694258,1.98202262849346,738.255636113944,-1.2119228405661,405.76763260331,12.1533735789122,1150.62640597496,-83.8992988858021,251.753667204206,-10.4492737615136,1479.83780613283,-2.35321546761019,458.096321248784,-10.0431579418432,686.50782676284,-2.43866735433619,212.485712195111,-4.86765849902204,606.825184787215,17.0180202606704,413.140312245518,-28.1526189734089,1414.76748424225,-192.451099914687
507.89561153543,-44.2912334318984,496.833689992758,10.0642683590305,1152.29558510792,-74.099302817045,1550.77763382562,-0.866809140579708,750.467804245186,-2.29067851070775,413.09565058386,10.7616775241403,1162.74908367955,-84.0995243044626,256.272627063607,-11.4206500764721,1506.93181572852,-8.1485725059898,466.421775839605,-11.9577431181178,697.064813229578,-3.57803452530938,217.177376155546,-5.67081853727684,617.36834977355,16.8704073509605,417.920594440242,-28.5720727923959,1428.48872512738,-195.384173909207
494.298339397231,-41.6204445952747,487.040928290496,11.5836117182203,1131.92566370918,-69.4487488956939,1511.54897972099,3.15389179126691,724.152549817671,0.529234834256893,398.131901372809,12.3265851017699,1133.29946992147,-80.5873789684101,246.158142633643,-9.47195637291412,1465.60358129337,-4.49390892152588,448.580039566651,-9.30499535949157,668.98377087526,0.672900396619469,207.316688093161,-3.58773768641352,601.87413624841,18.1502535949095,409.118871189162,-27.0803951389072,1395.59693635037,-188.615821956164
491.858257328894,-41.4558290505041,486.013413902537,11.5084271815493,1119.64692906182,-65.9282260862907,1508.34245276872,4.79811222512847,721.835748249547,5.14436639177738,399.169333655695,12.4401269338039,1129.70652691421,-79.9950464715993,247.36863869684,-10.0849534574185,1462.89281163017,-0.902938419559615,451.606475745474,-9.73373084306011,674.402340088393,-0.17788671206881,210.192045290663,-4.85758072518772,597.340282851216,18.8703579897024,408.649052790567,-26.9878159081441,1397.15572119637,-188.820722507127
499.154126145396,-43.0209494092269,489.779220684769,11.3788763882427,1131.6726274684,-70.2208519762791,1527.36583704493,1.63563592971096,739.97118092331,-1.18462522530989,405.93413784764,11.3485744440287,1145.39424821634,-83.0779298255957,251.48456606007,-10.712046305768,1484.55311381437,-4.63080216135247,458.031747653871,-10.5614098262696,685.67029325431,-2.47439496769253,213.791705575107,-5.87124833620799,609.172914302532,15.8168619899328,411.950516893705,-27.7161175520014,1411.16024287787,-190.896750703252
