534.121368589498,-42.672822633399,495.260517316761,10.2000862297704,1159.35006292862,-73.1349752618177,1622.57053948472,24.1956142722239,769.907834385994,-3.05072207414618,423.531268495621,10.7004718546904,1179.35372380856,-91.4858297874983,261.275606423422,-12.6294347956869,1533.51132419975,-11.6200648665464,474.942814694162,-9.53093714540807,706.811706351804,-4.11111121367862,225.755200657867,-7.33063976114862,640.69639627332,12.24086950976,439.43382708938,-32.52557689494,1414.03448439699,-191.94298552051
516.755530082626,-39.3394294606884,485.46587976917,11.5353605013827,1134.53194683246,-68.1859671726538,1578.12271958465,28.4621017170101,737.707866422887,0.13538790596295,406.280447439612,13.3331494824388,1141.8253584847,-83.1904304249028,250.395850077418,-11.2430166308029,1488.92186814857,-3.9549884565149,459.645066839483,-7.28264379265523,679.168216166146,-0.0159331060529478,221.038186596862,-7.07411896446089,625.984042224763,12.4444014539229,433.175413484775,-30.8882232361515,1397.24927701923,-188.878520316422
518.361033416497,-40.0087323954234,485.501723613761,11.8844971442829,1131.74860389282,-68.2107206265201,1583.20656997773,28.1428830677872,742.604074699719,-1.23142286882034,409.271058233174,12.9360628744721,1143.903786662,-84.4715159208816,252.261771622445,-11.4429390114699,1493.28089777534,-5.17853782663522,462.894949076181,-7.91026103924948,684.204333192834,-0.735180369245715,222.350682557313,-7.0769439906854,624.824813441451,13.6609055561557,433.272599300699,-30.8763258709386,1399.10543319745,-188.600134056278
525.370072594986,-41.0988174024362,488.986727075125,11.6226570675631,1143.77708704786,-70.5380118921353,1600.31384528747,25.7550610438836,755.312334917022,-2.96763477973571,414.923727646434,12.4343657311232,1160.69385863594,-88.4538522373711,256.296269531336,-12.1352145461009,1510.83291412693,-6.17122537590828,469.104405244714,-8.86787941218836,693.790461220159,-1.77367754178477,225.039565481281,-8.24013906076448,635.654205803456,11.3052815625257,436.23868098331,-31.4803110903205,1413.04974735582,-191.837513462891
519.678035526732,-40.3706127769527,485.977016890195,11.2468368000222,1139.64688832991,-71.335251498643,1578.07641783823,29.2208167893906,737.241108587067,0.255939482226826,407.371764987088,12.916080185949,1140.56730547998,-85.1385958853384,250.588867017241,-11.4781750539996,1488.3229432888,-4.14158954806102,458.55633811076,-6.9778152684201,676.270493821596,0.809199888038899,219.106294767082,-5.64903633942482,622.111500563308,14.366405274603,431.933591020205,-30.4436757743955,1388.85061081543,-186.0795142534
513.983592782288,-39.0882524830509,482.146745108265,12.4166159529467,1125.78626353379,-65.6771301648402,1572.12557458152,28.7819639207521,734.560822282468,0.628737716493546,405.189779535835,13.497119263076,1133.85958652805,-81.2117399549401,249.738471772109,-10.8702091611085,1480.19628620453,-2.39190378447632,457.708583689171,-6.90168717142853,675.315384736435,1.00353484902414,219.079721677205,-6.24489711149944,617.877773020308,15.531782360194,430.812825357096,-30.3625033952521,1386.29387808504,-185.735316171835
518.462382697218,-39.7781468966063,486.317704663479,10.8180068322141,1130.48798753301,-67.4653421857002,1585.88835353916,27.3650452325564,746.578032083097,-1.65960653987729,410.698563739572,13.5033910332622,1146.21103078964,-84.5401874641684,253.246986979449,-11.3809839147448,1494.2228467765,-2.94626784749926,464.296656986641,-7.71540430843256,686.302124419565,-0.411076923192012,221.185426888693,-6.64211908711145,626.95701892289,11.2981092833733,432.69345569901,-30.8347709403485,1399.61973222525,-189.242873683356
526.951900725314,-41.6771096722611,489.390838977157,11.4073858240104,1142.29527259697,-68.7317456998454,1603.47598592965,26.0205495187405,754.872708589597,-0.41258868945784,416.993327589875,12.6550132085847,1158.85469480951,-85.3243400444885,257.389852622837,-12.1994636845716,1516.2361847878,-7.46957609265727,471.795163859056,-8.92283040637942,697.158685975107,-2.5016002219974,225.440947806897,-8.42579131874161,633.815890847679,12.0445257056057,436.806095356773,-31.6393006360963,1416.85236161885,-191.991255958689
514.861103899346,-39.2922370613294,481.79164943748,12.8666874590659,1133.82756286336,-69.1868169718691,1573.77199302987,28.1345677447462,734.230021839864,0.707339671545413,404.718078626832,13.7043138854246,1134.64442872514,-81.810636494039,249.531591604964,-11.1012122190801,1483.95989637236,-3.06159153447044,456.689501901478,-6.84143938452879,672.449477985208,1.81217070702763,218.250509514571,-6.41409331050777,616.090505409826,15.2375899888444,429.253567981793,-29.6674111079712,1382.11187291965,-184.659696344304
512.388718993496,-39.283976742801,481.421532180947,12.4109094434865,1120.85133386137,-66.9768153291838,1567.16288441887,28.6752856724951,729.999144995336,1.4828939433058,404.198365211071,14.2014315290252,1132.07809694583,-82.161460725726,248.807702389563,-10.67672675958,1477.01661510732,-0.317182793366493,457.783456627851,-7.21158813901375,674.033768212806,1.84711635407739,218.952404240202,-7.60272569827087,618.384322651527,14.2365599225392,428.524118691649,-29.8166864939309,1382.72820993955,-184.929502914944
518.286051712845,-40.1620329801376,484.207436808011,12.4667684332697,1127.01476218254,-67.2685083481106,1585.49596948455,26.2986439651721,741.62709395785,2.89645233636661,410.190065914021,13.4141050062352,1141.74232066222,-83.9579222125674,252.381625581441,-10.9031915668886,1491.08733762191,-2.6521899441983,463.922159633469,-7.83253413845234,683.6518359292,1.0539637944558,220.574625377386,-7.194064262021,621.953154798038,13.2267980017546,431.308857654368,-30.3728545695506,1394.24553380853,-186.946248361267
525.568211686125,-41.2803715754767,488.950523524442,11.8538877311605,1142.73997598942,-70.5898811817003,1605.26218013914,23.8870805522657,755.237851208473,-0.71227100509753,416.376290719867,12.6208485882346,1156.36035150907,-86.2184153713464,257.395928764608,-11.8265829086703,1511.24886715351,-4.25719075455595,470.730644167888,-8.72030619643847,694.965371156152,-0.43064641243746,224.077445725084,-7.94953776595233,630.193674875026,12.8465833707246,435.504237592936,-31.5681223547738,1412.42246629447,-190.54666939748
525.030676596781,-41.3132195433368,488.21422495987,11.3382793940009,1143.77502026267,-70.1706937002377,1585.84344479964,25.653780742783,736.194163339241,1.63149101206021,407.383122120808,13.492920123291,1141.4149827667,-82.9167095835344,250.57789343209,-10.8169782726256,1491.09586214079,-3.33096934496038,459.207323348263,-7.26331971151987,675.212762192282,1.95829811912361,219.150002722112,-6.39110065495109,617.03811600838,14.8663582669885,431.102175873168,-30.2882003837093,1387.60436480828,-185.844110200514
511.508421423845,-38.7364334235393,480.706157951158,12.920448737331,1119.01216964087,-63.7316646693876,1569.90727570917,27.4099349776031,731.674356021607,-0.289384236603415,404.090842379823,14.1459173616669,1125.51825415225,-79.1850029018998,248.144829185667,-10.2251489806841,1480.40610241142,-0.982787286150076,456.897471249898,-6.92982883677639,671.902716685443,2.5205702722746,217.814708970838,-6.40652269016394,611.617704245507,16.7987570662077,427.525000810235,-29.5615824114311,1381.36774143506,-184.462193872248
515.369508370562,-39.4532264358397,482.89585079757,12.756403074312,1123.24677175439,-65.7322858751945,1580.70009284382,25.9193196757352,734.682365389636,2.97709224245161,407.874710656137,14.0405916469273,1139.03706765099,-82.9769227679089,250.869993223053,-10.4922706417394,1489.99132531642,-3.35611650504697,462.630822630077,-7.86703645210576,681.055747170631,1.12100843879012,219.685033601385,-5.81869351638882,617.532869386141,15.4660653951444,429.641608999228,-30.1835912837444,1392.52296058694,-187.465891086885
523.07039046615,-41.0576243767612,488.541643450263,11.7725020529011,1135.98463110522,-68.2322214049333,1599.81387886534,24.6532602156501,750.748094236898,0.0292437892272183,414.044420407701,13.3668157221963,1154.51468981743,-84.7876301144183,255.470095114893,-11.3925328170126,1509.74618047504,-2.69814914429618,469.252627308341,-8.83370061802871,691.303824502545,-0.254677265421955,222.054500787936,-7.00732923702462,626.573136514192,13.7230726350146,433.475505806859,-30.986551771453,1407.31568933,-189.090479121065
531.980103190706,-43.0747744616112,492.843454171468,11.547570415033,1154.20540455079,-73.1518377229517,1619.56103011192,21.6049412982666,763.456698924108,-1.77030526167906,419.967230669029,12.5457085737127,1165.07241203913,-85.4710728266801,259.481880047974,-11.938843764577,1532.58292767423,-9.21389512468693,469.483872243252,-8.87270049028852,693.465962884547,-0.680462602475993,223.821732025182,-7.09240789511157,626.319390690066,14.4998374459938,433.686681053382,-30.8378297296165,1397.75137056597,-188.300582607631
512.686250495276,-39.5187119496483,482.314404522345,12.6440517934177,1126.95768408787,-66.890574748351,1574.01410526557,26.0561293176159,729.366909306749,2.95586807529927,404.225057175674,14.4086825960227,1130.30269769418,-80.5721791086545,248.287635787517,-10.2303873922052,1484.43850256577,-0.541856655778602,458.910448201758,-7.1310629959556,673.770699478024,2.14824716976111,219.041672535913,-6.4603402521283,613.885919160575,17.2418885414253,429.535939792701,-29.8470946042039,1385.72463281833,-185.27023124934
515.382132215315,-39.8245620437374,483.907145602127,12.7476818692644,1130.19822938834,-68.9896331826458,1581.75253935626,24.8687353107451,736.657609723973,2.51959378481747,407.863361638474,14.0734069408425,1136.03885567893,-81.6652391409258,251.095416547338,-10.7303455360239,1496.90954344694,-3.87350547457934,462.26090217162,-7.28639044372275,679.349112212609,2.22830950851973,218.869356663903,-6.6458756512563,620.061045047741,14.8494832223764,430.343937316909,-29.9237301214128,1392.44298808686,-186.250896550135
522.656267247278,-41.3905448973763,488.299319649493,12.3943604527601,1135.99720924182,-65.7739153299902,1600.63400676758,22.0901211124426,749.04458248555,-0.0494187733184981,413.882247858892,13.4986785465003,1148.87575822779,-82.3273015181891,254.867779672127,-11.0089208589994,1511.79277101394,-3.08075128567032,469.490862479286,-8.42586737993131,691.667323479659,0.342490962272645,224.339919336543,-7.71525785372233,625.736574449252,13.826540023794,434.429712742683,-31.1806918883487,1408.85329803292,-189.686405729416
531.517218147193,-43.2967006121507,494.350063746524,10.8929806460819,1155.8842853238,-71.5438262135455,1621.39495106431,20.137393256698,761.91965506337,-0.128306449413056,419.660247385224,12.9123488525717,1167.59652269087,-84.708559285999,259.282733289305,-11.5377941647452,1538.21249511801,-10.56050772664,470.473676332264,-8.96970985768042,693.408558589491,0.349154695010944,223.241827981088,-6.56182872557533,627.590584383816,14.0001987251437,434.922237454078,-30.8510963027161,1399.61653197504,-187.885761605091
511.29797939647,-39.0070517749087,483.583038278444,12.0163613567511,1129.42607731452,-67.965851761105,1573.26029596011,24.9305178274018,729.95007888067,0.922334462530685,403.105796888661,14.9224836956603,1132.06708701939,-82.2304260377533,248.024901539502,-9.90088926803854,1493.64864052937,-5.13814954233372,459.339213020222,-7.36294206934629,672.835992887537,3.62620278170523,218.673739887272,-6.61348783585568,613.794630271888,17.4383868756352,429.78491749417,-29.5589740113088,1387.62366242384,-186.215432377695
514.482133624047,-39.9739488480191,484.110162784469,12.741139492685,1122.83281022566,-64.1837240660109,1580.46795074288,24.8780957150113,731.434264821823,5.60515766417577,406.290356481589,15.0379072297945,1135.04456960437,-79.6029438833643,250.283044773811,-10.453262311827,1498.59303276081,-4.03433103170962,462.078492145209,-6.85247378203648,679.897247118547,2.14823232085368,219.551556557358,-5.95572207789943,619.120801096335,14.992186517356,431.355479301107,-30.5995645402024,1393.47488046085,-186.436273005185
522.289144406864,-41.3573207206443,488.605091479055,11.7386572517072,1144.43978293276,-71.774600151997,1599.45544273494,22.4185475088134,745.697342576565,2.82286887421507,414.04379611278,13.5374940776318,1152.08139479138,-83.7985293660126,254.925765039571,-10.6900836892136,1521.10243023676,-7.78911438108492,469.285482491626,-8.12397503002345,691.301549083394,0.728061803052392,222.883414816775,-6.76577470520767,625.528803818169,15.100635121302,434.357692283425,-30.5222727238929,1410.93980051597,-190.614881832837
530.670947190011,-42.8182938114418,494.120162018747,11.6294144720352,1154.45813855001,-69.4556262785157,1624.30673286911,19.4320628490147,759.252849570122,1.58182576826655,420.465280799609,13.3977647080064,1169.35139435788,-84.9763403971042,259.195491533972,-11.0965787280696,1547.94044940984,-11.3892530761836,477.114709784297,-9.17705850173286,703.257588865649,-0.881615953280833,226.144685986082,-6.6945280937499,636.726143966143,13.8865914910257,439.74490852715,-31.8600395291012,1430.92712082482,-194.327927410058
514.917484440266,-39.8444344971268,487.167850378011,11.4689957336511,1140.93269742038,-69.9086145051003,1581.56554317355,23.6422835311247,732.175902135639,4.05056063026754,405.120753485944,14.8783488977919,1133.96087523598,-78.7308984325774,249.368038384533,-10.0707616836069,1499.43614777623,-2.04765150588085,459.751231147416,-6.98893423741367,673.696145695544,3.43578199270278,218.209585016511,-5.87787471205428,618.033128175833,16.4635623424497,430.584146296296,-30.0483199520063,1391.83284749276,-186.220833684263
513.707301580358,-39.8976205649507,486.250539040335,11.7162519797218,1130.24195200801,-68.4880185516354,1578.28480565342,25.0709281675065,730.188703117431,4.62880691700295,406.121309355124,14.3934630661621,1136.06479022476,-81.139122845177,248.952574410147,-9.70453561053672,1501.80834492072,-4.09145194731064,461.585029076147,-7.2815874880838,676.743495855942,2.83501735964321,218.277363607278,-4.92053702410243,616.233327502618,17.3348458471666,430.142446625203,-30.068685752913,1394.48474197746,-186.480140373393
519.552149101294,-41.0133948320197,490.014447015248,11.6045623231128,1139.67131022544,-68.7932563652253,1595.36650664964,22.3200590797757,742.784953847928,4.04872412699972,411.20688706136,14.6004118121995,1145.99021060438,-80.7179647325341,252.833870015834,-10.2764714065255,1516.53141840384,-7.29686102614281,468.158788971798,-8.48243832079947,686.197840342072,1.9303513332293,220.167691327397,-6.35576970464956,623.857358976826,16.0600349718788,433.130333668139,-30.5628889290396,1407.13132485413,-189.219754200668
527.314546425095,-42.407813351594,493.23771372204,11.4789425297119,1153.20917554627,-69.7278367817552,1614.85880417475,19.5278983795567,751.287275322727,4.17275784429452,416.588042187135,13.9333696913143,1160.48690857714,-82.351489760662,257.330588306437,-11.257741750561,1538.46099616102,-9.52257979131964,474.341733842076,-8.735861644632,696.470809925413,0.537149857883208,224.447152724328,-6.13383891900068,631.812956129334,14.9426938486489,437.666302469771,-31.605522072243,1424.58075788915,-193.095307132041
514.694643142348,-40.0585106015251,487.891652590934,11.5223330738897,1140.4995965202,-68.4173414448008,1584.51328372608,22.1646992461418,728.640427302758,4.49791127696931,405.521700313512,14.7012497497451,1135.45946811663,-79.3040493700288,248.910923693551,-9.69176185967779,1500.29992211895,-3.46988475709287,459.573107039469,-6.59719743653883,673.450039566692,3.81099789081689,219.616743839599,-6.84733676598436,615.965780535778,18.3330103099323,431.748372266253,-30.5402929553597,1392.63481389819,-186.528725808017
512.974826091479,-40.0574833264519,485.917326882811,12.5568327188488,1130.39550211527,-65.2497896435289,1579.74276757199,23.1995058351421,727.50417022467,6.98146957755174,405.04450844769,15.1264269779523,1134.57860334341,-78.3867601123071,248.493728403569,-9.34794151128409,1505.04716418586,-5.60392779130295,460.809486095015,-6.5936808400491,675.308747777419,3.5025853994036,220.431192180216,-6.77482532933597,617.079713804518,17.2327132627244,430.550339247196,-29.7843486776768,1392.77329073293,-186.421274926574
518.870827098542,-40.9341001705219,489.228951396606,12.02659410139,1136.29960825609,-65.6700384366427,1595.33520465814,21.1833359045427,740.357627491889,3.74368045320854,410.250293094102,15.1204239612647,1145.89695903717,-81.0296899270124,252.464180553499,-10.334849121872,1516.33176816043,-5.41251051733316,467.245550764746,-7.65115212879387,684.905539065554,2.60405082950989,219.695899962063,-6.10175127044783,621.973660872981,17.8226324299646,432.889245527894,-30.5562478664341,1406.77403031523,-188.807956625547
527.299549887031,-42.4064145660646,495.503815563218,10.6333005913865,1152.41710816242,-70.2381435447735,1616.62894136974,18.5242999086179,755.328849935771,2.80551396643564,416.741967663891,14.2142166695989,1163.47278213381,-84.3897366045399,257.114662164903,-10.9070369680735,1541.1451454759,-8.76775961351458,474.529753344128,-9.1554640789214,696.870659662845,0.524467291875995,225.428802910423,-7.87267693042713,631.469766265206,15.9321307620245,437.815307410734,-31.7342406773682,1425.9492877719,-192.983426257855
531.622822897286,-43.4316780461137,496.064542566403,10.5621272652366,1162.09660914554,-72.0504374456505,1605.2892623458,18.9335851887047,741.593406073145,2.60718719829881,410.727411710164,15.0935402730042,1149.89265982585,-81.7450644889126,253.696229214896,-10.4229200839244,1521.1550196605,-5.97442170027827,463.451313768592,-7.11179932302454,678.80302239871,3.45750343129346,219.994287601571,-5.88155982774058,618.457493144962,18.8338478849238,433.839970072261,-30.5894211421121,1401.21617941631,-186.870889425361
511.987786278537,-39.90379008841,486.949985789312,11.9972386022385,1133.37916476072,-66.6472962881286,1582.61253258313,21.3118727706747,732.630746404482,4.76562920032184,405.63934344794,14.8183185171098,1134.18447774902,-79.719573708062,248.488203428273,-9.4875871417954,1505.39205253578,-3.79300300461206,460.262686216167,-6.80242659162526,673.568816017866,4.3146607212435,218.723964250013,-6.18740859855778,614.314984757262,17.5642028904851,430.464800482142,-29.8645627357164,1392.47105026762,-185.846395644808
516.85071885749,-40.7524842468725,489.772346240773,11.7416524610999,1135.83059701068,-67.2750507772256,1591.89645207967,20.3899646729948,737.945851895143,3.85742494208506,407.851434396697,15.6260320346007,1136.50848655313,-78.1084725995196,251.404064431425,-9.97550517403864,1515.18949065215,-7.41581149560767,464.353225145376,-6.67842885218492,680.981137314107,3.28947113948974,220.880499290562,-6.74918637285348,618.168118340997,18.2611703746567,430.68552805321,-30.1815583117436,1403.77134436183,-189.006480068988
524.18110220017,-42.1963634938751,493.737889668215,11.0253064094643,1148.908287644,-70.2666396063804,1609.56662285585,18.229962231649,749.156771947753,3.99710674468795,413.194696074545,14.9408929895969,1152.70593862436,-81.401448709255,255.247146819799,-10.4321557039723,1535.18243492419,-9.55688295762604,471.579574112996,-8.1992673123891,691.718658308956,2.01501660482793,222.742933657442,-5.51015240934157,626.332474083723,16.7253163173789,433.576336795079,-30.6878233944215,1417.9763793609,-191.460347548237
532.350379815935,-43.7138865504699,498.734137174295,10.0530785250146,1163.59537136244,-71.0112027432154,1627.7283048895,15.9215041634889,759.19638978373,1.45800754428342,418.719973417502,14.0271595309467,1169.33892320777,-84.2838930529082,259.615138414398,-11.2582952990053,1547.83057310613,-9.70369848254157,470.861268032912,-7.96459201034429,692.815406822191,1.46271218052742,223.274038616809,-7.14899611581446,626.365117923547,16.5387403081946,432.753754619006,-30.3156004045974,1406.35220905665,-188.893469934041
513.339461365671,-40.1778978525773,488.06858688536,11.3501752626993,1137.12396394826,-67.8368227189941,1582.09278940992,20.2422453922815,725.972385020281,8.0039672553957,403.555333891208,15.8285704010308,1133.31288932457,-78.0960167193976,247.92369798405,-9.14502184953745,1508.39620966449,-6.13231341850182,460.906666105515,-6.68972300497077,673.856631461937,4.00825854344344,219.20949176273,-6.64768498452469,613.80160077376,17.7343006030447,427.615698857604,-29.4199070312652,1392.34765948913,-186.067117512955
514.611257999709,-40.1932631827279,488.248407126006,11.4480487540972,1133.93608050282,-67.7337030126637,1587.58031558395,19.4349150142249,733.296700312306,6.10903085969622,406.560345378096,15.4927807574574,1135.11917409601,-77.8482597750801,250.523794263333,-9.83047625123507,1508.63341999032,-4.73518114539086,463.981392401449,-7.19325995424556,679.416138224991,3.59889655483038,218.56601557567,-5.19897916607752,612.552177274251,20.4730027919914,427.66292138816,-29.3809278413633,1395.47000574773,-186.456213207512
521.691570643687,-41.6501515043147,492.679287240875,11.0415542705074,1139.99711294678,-66.9101803720236,1603.8411390545,18.0417738481597,744.957008250753,3.49904975213049,411.565592360037,15.5373810098732,1150.50045963598,-82.028962685317,253.77980429381,-10.1734492491425,1530.65132166265,-9.66384578098749,469.892837866698,-8.07899541674595,688.283200543287,2.37332028278148,220.42077261612,-5.11479288465667,618.549845028229,18.5890382892066,430.253915798827,-29.9227329200305,1409.37337551944,-189.153867294624
529.527984777606,-43.4646624358351,495.813555112834,10.8076012042431,1155.41565356345,-70.7426509009852,1610.42185864122,17.0206499551717,745.522763252184,5.64191524340978,413.012171560926,14.9025234567135,1152.63413077265,-80.0132919905322,255.322286059002,-10.2919622971589,1524.19057219232,-5.25680367739214,464.52741061827,-7.21814494618255,680.117395054592,3.70238658585888,219.991298081414,-6.29706365164877,615.637047529348,18.142709718556,428.708734415592,-29.8817195139589,1394.70789921984,-186.043097613077
509.461845871779,-39.5330927938704,485.822834622323,11.4696618896095,1125.69246503919,-66.961960507244,1576.76872262862,20.0116352204938,726.364041366707,3.84997656969089,402.002851816217,15.8331441280309,1127.66590325031,-76.5341443244762,246.998703183473,-8.91901842880152,1499.9057280726,-1.48441494271523,458.699646050873,-6.25169019536763,670.988315098556,5.26171626619425,215.835824069226,-5.68279396550618,607.823736921027,19.2239800827226,424.17610564761,-28.7701245763483,1382.36525195602,-184.050651166046
513.059296749413,-40.6980190353239,486.931189351522,11.6941612058556,1127.94316339892,-66.3331061701551,1583.08154839026,19.8631355497489,729.197955993244,6.69077775831788,405.219288344982,16.1543674175098,1127.90993817462,-76.6667627373748,249.274988487996,-9.32479849163408,1510.74671954338,-7.52734419747056,461.918215047191,-6.08529713918733,677.634191390656,4.61871700012389,217.481162103129,-5.78644255707356,609.555751494405,19.2603793880917,424.677161419941,-29.0151001907846,1386.76572548165,-184.148690743438
519.828451609626,-41.5393700731591,490.991411535931,10.9212347220655,1136.22780862523,-66.600970815695,1602.20267007807,16.9401092140222,742.930635007416,5.64417272825424,411.200245749768,15.5564473280746,1147.30928366118,-80.1040690970326,253.537670659962,-10.1102435215908,1526.23497426529,-7.45495243869188,469.183194081469,-7.70267193698403,687.94929338713,2.68852306531273,221.097586858084,-7.21537548329923,614.099715616406,19.0807708264317,427.617989826691,-29.3629337374436,1403.36852909731,-187.55674856584
528.255161549765,-43.2809973316573,495.193599521761,10.7780322632844,1147.85615633648,-67.059371419244,1623.39714855397,14.3963641928292,757.248684097765,1.89343929439751,416.778796843688,14.9528810633113,1157.6151640094,-79.796237941908,257.790935458665,-10.8795600315972,1549.54396720119,-10.4963113460232,475.414286260506,-8.41831484419591,699.546038941381,0.900890748826229,223.277881331548,-6.90758593904643,623.532141579011,18.5704353176084,433.470782860801,-30.5190699220733,1415.69624356127,-190.649896394965
512.98339938827,-40.7749352915803,486.816209559698,11.3386113390618,1126.04315313367,-64.4815556115422,1580.51278259795,19.2824289401558,723.128989492282,5.42187944816916,401.667031645496,16.5084173325947,1123.65077361483,-74.596017031704,247.234749839315,-9.08771698303547,1499.62561070982,-4.90099499836252,457.731799891042,-6.22285836628629,669.972674127247,4.83574337601804,216.901539886751,-5.93388342951602,606.854424928094,18.27316004899,423.127222011306,-28.8907896761117,1378.21377629396,-181.880589501166
510.393382113193,-40.0346790615499,484.488264260039,12.4923134750224,1118.68832437398,-63.8932015103163,1580.23368575442,18.6990414235481,725.956798069655,7.01840032105394,402.382029901185,16.6720366860371,1127.13264216953,-78.32929261801,247.563731653051,-8.82477377577442,1497.56442195553,-4.46229778011925,460.165018144292,-6.3272801559398,673.485960407737,4.90317706172542,215.385657411011,-6.06402669263228,601.523714259854,20.2883636199269,422.143311027954,-28.4503321086089,1379.05165258133,-182.675677323538
516.970939335684,-41.3227600123934,488.509727519508,11.4494875603339,1126.89155800622,-66.421875568151,1593.7925527309,18.6924316268854,733.806552323582,6.66989761084519,407.830536235835,15.8529100177891,1133.91667259335,-76.8401592019797,251.639138962306,-9.70115852249519,1509.30339856709,-4.20078544592346,466.514717704464,-7.12970146215229,682.834903968373,3.37025833337275,219.383261450478,-6.71278036280084,611.63552238569,18.3595677274748,424.467023125997,-29.1901003241935,1390.7140755334,-185.618072281248
524.558493737256,-43.1465956214408,491.288770522679,11.2466541735928,1139.9357101415,-69.2365405163275,1614.99728907243,15.2736940600583,745.324451787921,6.30099210933006,413.977339012799,15.1991257614118,1149.73226084061,-81.179594513619,254.776693135152,-9.75421566949557,1529.31040359455,-4.56145199944659,472.817273252249,-7.97087630939172,693.661599354548,1.8772166884298,221.05304188957,-6.52516712584732,616.126581008716,19.3866073320343,428.464040823143,-29.5857513256569,1405.55550744137,-189.175290044323
512.140227969336,-40.7469793814604,484.044995008361,12.4651739640591,1120.45666804914,-62.8979215663006,1581.7742913921,17.4976942567223,719.773140956432,8.69466988125632,401.708165409668,16.0739825405609,1120.20365594796,-73.8412612093509,246.536449027032,-8.54021889820944,1492.3715938832,-1.88336743117614,457.474170588937,-6.23447704536942,669.582475101346,5.07755372053669,213.315994647322,-5.34443197995294,599.156064764482,21.4363393070653,421.119351858551,-28.3145127204655,1372.16666074713,-181.086995294418
509.294027134994,-39.6993697320582,482.900629496794,12.5427485051686,1110.08738342488,-62.5805514711598,1578.45665370447,18.4763121220496,720.991397199301,9.4792452417766,402.35676289457,16.3150031153666,1119.14086166896,-74.8658652142676,247.136964238672,-8.95831555823258,1494.78482176756,-3.66634377827596,459.181835039454,-5.87791090780776,672.79213634721,4.60330040760265,213.212103785072,-5.61276176953939,601.687920398483,20.4123560894865,420.888128540757,-28.4955293436864,1374.08620901766,-182.048656707106
515.703299907006,-41.0706982223643,486.785615934925,11.6089514751776,1122.82350640319,-65.7918338951618,1594.37946102951,16.736792809421,734.792544718683,6.71899391381514,407.030833620855,16.0349857023755,1132.24241295879,-78.0096696626091,251.096390250019,-9.57345526195019,1508.15954529526,-4.90567819377266,466.90419983288,-7.68086709226112,683.186762183389,3.28941105852605,214.613600599031,-5.05098128728464,605.351847649435,19.8164650833211,423.365750441978,-28.6435502963414,1385.04560322557,-183.98743918708
524.189719531186,-43.2489865208277,491.947074759128,10.9333854973806,1134.24273566219,-67.7446573320188,1614.64676321485,13.4767365444846,746.628656087419,5.26708694670417,414.692689166665,14.7834323032375,1148.63238675046,-80.250940638986,255.088393720581,-10.2314156031494,1527.82550521197,-7.52424016939508,472.335399064245,-8.42221570398485,693.962959971922,1.94965262836325,219.517664074915,-6.76853557363263,614.793395824848,18.1066668292829,428.806530160441,-29.8341350297831,1394.71625166319,-185.5390611216
509.618659703683,-40.4370029036199,483.369274713497,11.7721775851009,1114.92309490174,-63.2870132072593,1573.561016894,18.4699197655683,716.737921440343,8.86912480057829,399.424179419319,16.5820932071344,1109.83929169554,-71.9473959287127,245.869682582436,-8.79470072210671,1486.06629936857,-1.26563911849605,456.754817148051,-6.3993055290599,667.351282113202,5.70539773485552,210.86040432204,-3.91103050465131,593.796718924669,23.0905656528166,420.550728880746,-28.1470152366331,1366.64851120446,-180.582912735085
508.096442436285,-39.7785710964406,482.559260295812,12.5946996065794,1105.88032504625,-61.5237389897869,1574.75103890813,18.7017787752116,723.441492082247,7.33228999528953,401.243787278766,16.5386665330424,1116.43869145492,-75.0128062430045,247.244516608047,-9.01908909743352,1486.84650079782,-1.01720954211345,459.515827564061,-6.44188727223012,673.62873687833,4.54550503344687,211.820638259706,-4.50939238938464,594.019670253077,21.6911788550464,420.680560444729,-28.1820273939617,1369.08553270971,-180.678000978261
516.077541176375,-41.8104671595471,486.437972745709,12.2254631804276,1115.46946955905,-63.3842874714784,1593.03301651288,16.6127407272061,733.864409222379,6.38176843037756,406.841619603888,15.9929327285442,1131.79122261551,-77.0092780601855,250.78808422683,-9.36247210984737,1501.17445761259,-1.64799965966854,466.774083242395,-7.72269927029709,684.810361877779,2.59913401361254,213.430094348626,-4.33926236110597,603.333396840101,21.0268181189542,424.046896093433,-28.868120296466,1382.70138600294,-184.008231345605
524.173702530752,-43.1515863459147,490.824592389225,11.7232085512305,1132.64559375885,-65.9242768404429,1614.74664595073,13.8973101129233,748.839590832523,3.46966897072661,413.667276553668,15.0851471247657,1150.39997010731,-81.8376050630785,255.620563592984,-10.393039627404,1526.29846556245,-7.35493615563673,473.916838236214,-8.81447570702865,696.438080836447,1.19993632102572,218.384383016303,-5.25209161716075,611.794842841355,20.0867966092578,428.509095986573,-29.9668110251725,1403.57090027767,-188.17542940459
511.374939277518,-40.6150626298456,484.479654461645,12.0869466983051,1115.90446865938,-61.8173325793723,1580.97183818234,17.0336927313587,719.879534814523,9.85909068454931,400.55729107777,16.8215262761914,1124.41473322893,-77.4427723218774,246.991990035777,-8.84576301673614,1488.65861817442,-1.21317467261916,458.710621540314,-6.90457048857713,671.368118833882,4.59794086582092,211.338224112529,-4.1922968396327,596.640367336901,21.4192471953075,420.82496710536,-27.8409580826305,1366.7461004895,-179.884061561733
509.174565497951,-40.7132796579205,482.95263651452,12.0656315203047,1106.4635391037,-63.213904353179,1574.55518550809,17.9459898447401,719.886120378634,9.13596458868579,399.635961875554,17.1088832039759,1114.89957619116,-74.4096772104643,246.28585330177,-8.86117271256819,1480.34460088221,-0.382547407169558,459.745993393659,-7.02851235042856,673.658581930266,3.59372205327902,211.511348535291,-4.52970687342028,596.102943701757,20.4790317299987,420.341520024524,-28.3481289202758,1367.67430578572,-180.899034552291
514.568818323211,-41.5508949517251,485.91336160533,11.912148281149,1111.71029347935,-61.0838231231598,1589.25593892978,15.6855223426198,733.510264770284,5.86027403891401,406.005802492439,16.1860358587871,1129.6775081729,-76.1728705633668,249.999980675128,-9.18482423382247,1491.1576704766,1.97429783621041,465.732258098051,-7.5329059215996,683.352788721336,2.75047065085871,214.166311968048,-5.75488275223497,599.708021847133,22.9511056763367,422.77313925304,-28.4637548249068,1379.08785956505,-182.728687366349
522.323104456204,-43.0357210609704,490.006891179809,11.1331135550707,1125.75934519163,-65.0334060078841,1608.51548650923,13.3748533119078,745.09925001,3.0208552783623,411.333046012787,15.463624316859,1145.93053905345,-80.6992997272338,254.721164099006,-10.3786773829905,1513.46647716596,-5.17326944560431,473.273650909217,-9.10948890487791,695.436810546312,0.331619506075082,217.709933230885,-5.38372009167506,613.708821381507,17.2904109789031,427.603175793625,-29.62212958045,1397.30716585143,-187.191465166665
512.005181857956,-41.1498963985359,484.884984808241,11.5771740232915,1117.31072597373,-63.6212997144109,1581.2235214763,15.5617163505214,721.881542787084,8.64930161257834,401.321467982387,16.194948340556,1122.67635374329,-75.8990853665467,248.05612085212,-9.48634497677738,1486.29352646619,-2.13266463022939,459.97473011281,-6.94094696676717,673.861679592434,3.50540303668828,211.939217496067,-5.23375519307406,595.880628053806,21.7394133046933,422.839026307934,-28.2422168644186,1367.20606185272,-180.131736715457
508.982473117036,-40.2320673995263,483.964693224758,11.4179255895078,1109.9285551471,-61.813170654585,1576.45849065167,16.5080341931598,722.592192289669,7.70861943379651,400.330127322166,16.6241585816841,1118.38908149732,-75.0500453862727,247.302627134776,-9.35136747013021,1482.16684307329,-0.162453685922329,461.267986875509,-7.29791733589555,675.981857977677,3.52648939893284,211.326922578662,-5.01200042476477,592.895479746004,23.2788684560687,423.181195134878,-28.380248384886,1369.93655532736,-180.985994211984
515.483662489084,-41.732391569171,486.750393736198,11.3455631523137,1113.21503097875,-62.3820966076094,1590.96766715938,14.5405663732642,733.792236256307,5.33058128136978,406.863482549186,15.5691108133256,1130.19162644015,-76.2733510181365,251.747798917279,-9.93695515222296,1493.30729228092,0.563852322970531,468.43316523701,-8.30263095166493,687.244426226172,1.21682775271583,214.453324075582,-4.86143123468187,604.122171595588,20.9491939560232,426.338004913121,-28.9096419455378,1383.56814750623,-183.596166636747
523.782724420006,-43.5205269363148,491.65621747266,10.6982560087571,1131.03313813449,-67.0016906412084,1611.5240412833,12.0862437869993,750.076830431495,3.5946899167555,413.785288083504,14.9695702920966,1155.27484876958,-83.3761512792548,255.996747746669,-10.6502422467659,1519.6923272955,-4.06715487784434,475.624377245739,-9.68722927863682,698.750725043336,-0.530391549027247,218.29503664805,-5.68128229943101,615.067715776053,17.8675209187141,431.271022564872,-29.9726048087495,1403.26278178724,-188.159601805426
527.76340556957,-44.2513739173322,494.635754001098,9.36140244903931,1141.22050095603,-67.870400161645,1601.83587088187,12.573011962146,740.029159098664,3.48046634006985,407.700437764351,15.5184350641617,1144.09303794954,-81.650640716008,253.216754583869,-10.5054873083158,1501.57692784702,-3.45143077780928,465.998122444563,-8.48636888128881,683.363571623219,1.68400795995762,214.883774408758,-5.60826093325916,604.466256773323,21.2061348408609,429.041224280258,-29.2522748661482,1381.85474063932,-183.569794583926
511.089198081241,-41.6195017238868,484.166472625886,11.5802097911591,1113.60104554915,-62.148118320359,1578.38287093574,15.148430983559,728.647165574665,3.72255306564157,402.54307614834,15.8256286513209,1128.0639437258,-78.8346253098775,248.585140843393,-9.63697037632793,1487.84673225993,-1.25235410069124,463.915697529584,-8.46411584125057,677.79717420414,2.6514108484553,212.039953361031,-5.03788705534999,602.229846690511,20.2452615167476,426.720267307178,-28.8582375517626,1376.84324305177,-183.319740055343
514.321343640239,-41.5605433165465,487.068921614005,10.8639471223102,1115.7479894861,-62.6775674377445,1588.06260272533,13.4687816974967,732.736184476623,7.12850585903447,406.631209222992,15.443828708138,1135.62209877791,-80.5785244279284,251.422880191453,-9.99005712952835,1500.49516427903,-5.32574931931442,469.253000711588,-9.05293507966754,686.945721557473,0.853844612938115,215.377471613189,-6.02493063769962,606.627866714111,20.1816930179557,428.920168499015,-29.7722335829045,1387.95797570755,-185.324691831338
522.599322550782,-43.405913779204,491.463258506627,10.4497179789256,1137.4575436406,-70.3273358009938,1608.90898496081,10.4308460298342,748.566776172957,3.07323073535983,412.971616606694,15.0784368395236,1149.22150757669,-81.1275527611919,256.227739810634,-10.8069149273752,1517.56896940008,-4.34016502977037,476.309072821845,-10.45521455242,698.734901864887,-1.63845402503777,218.949584638228,-5.7843232666438,612.811852983072,21.5373625379114,432.390274198833,-30.2492666059727,1406.17163171154,-189.35698914771
532.447150208471,-45.5464828593375,497.885355443544,8.58251908084545,1148.08062744187,-70.1388976780463,1616.05318855633,10.1969173830668,752.684154910578,3.01452631676043,416.252250644968,13.9373353555064,1164.88206222755,-83.4747124021583,259.338068570027,-11.7082855463704,1519.59900883283,-5.86490219089085,472.04913309183,-10.1918456889613,690.578838168636,0.250909754955105,217.129668153356,-5.22194578356623,608.717679534871,21.0302257106068,431.685049686098,-29.9958916072172,1391.64463232445,-186.543525854675
511.844382121579,-41.926330263084,485.843843418431,11.4377120075586,1119.9756945112,-64.006208600128,1577.87289023657,14.1473896262574,731.442952388506,3.69915434008869,403.528739409079,15.6246027449132,1131.73369790259,-78.6024524337778,249.242615112491,-9.76143065493702,1490.48864924383,-2.1221212401977,465.894454314377,-9.33527060905314,679.76333657874,1.27570207132563,213.826589391373,-5.08800679505087,608.156347440024,18.6945392663284,429.174743585777,-29.6047603603658,1385.67354305128,-185.534632624567
514.666279674855,-41.9019506864559,488.004033010487,10.6242102815579,1125.05807724187,-67.1437524654135,1585.20308859266,12.8139527875046,736.718405301213,2.7871085287619,407.873805121477,14.9478021139429,1135.72633526914,-79.1291132921045,252.749770603212,-10.7703732262625,1502.7445618053,-5.14036456718975,469.832568769126,-10.2148469517293,687.330647343441,-0.0683908691209646,216.809342849983,-6.38936735284122,610.016749988432,18.9313717577354,431.260809941223,-30.0193967573289,1394.38263186225,-187.16620293038
523.00509261714,-43.6927008898405,491.772450852175,10.574331740879,1132.6752054246,-69.2455049023746,1603.16174851641,9.61841468044426,748.562676728246,1.78881132703308,414.043727036503,14.0200705961853,1155.81659995939,-84.4607882305194,256.15458540721,-11.0925838283997,1517.66702526641,-8.36086660303359,476.806768304481,-11.1859095061233,697.555153464969,-1.92473113601197,220.516076169375,-6.70426112356402,615.886177418356,18.497477871725,434.4306599658,-30.8181553755823,1412.35916221569,-191.167251881438
516.898959614386,-42.8206205341085,488.912125397727,9.88763869273974,1132.5696025323,-69.4506459251753,1579.68535548325,12.2776909937375,733.211208443474,1.4168868027023,404.81185089593,14.7114876117344,1136.45893534814,-81.039595535273,250.403507932399,-10.3012604487481,1488.84956161694,-1.75044498687343,465.042483356504,-9.5437911722679,678.561305282485,1.29085618085346,215.056166882681,-5.64579491241706,609.501437932066,17.1970270161312,431.077622317903,-29.9712530192275,1386.46935580223,-185.069751716863
511.445568825111,-41.9321618362008,485.742661470263,10.5650993630961,1118.41742581859,-65.2001790001332,1569.47105994735,13.2620450465034,732.92449199098,1.39215548190249,404.464704469278,14.6027735076203,1130.79102339099,-78.4801843445551,250.316278744944,-10.4692865484068,1482.11353221852,-0.823451953271522,464.946229242686,-9.68309500825874,677.972760386412,1.39732330358734,214.504168065186,-5.85204640674136,605.365772434321,19.3721651161723,429.88855560117,-29.8332700213476,1385.8673801912,-185.873972342155
516.086520889496,-42.4355981051351,488.442617481867,10.5643421205066,1129.14904687744,-69.8148799599957,1581.72676507047,12.2748826586522,741.854174602714,1.49643096377847,408.956027186792,14.94435963178,1147.87907015547,-84.3396387716101,253.800917916742,-10.8069181982559,1502.01767281299,-4.08800005770619,471.033677189137,-10.2303893114785,688.866069177238,-0.158950014721995,217.325907302303,-6.38528187582153,615.512961639346,16.5349570408347,432.76923818913,-30.4086536637156,1400.39891305021,-188.51107232629
524.241271694682,-44.2293245871826,494.129327481844,9.70011261827177,1139.98391774964,-68.2158084650051,1601.51299005251,9.92155537077224,757.749626110931,-0.976480812778886,417.015513933078,13.1767586787414,1164.31960243682,-86.4801710161876,258.802265395732,-11.8290658918731,1520.42438926884,-7.11910613666422,479.259876818117,-11.6694948001409,702.318765349344,-2.85532198402588,220.110252720058,-6.0926621099789,623.969537949911,16.7266547470545,436.414851543739,-30.9653557988404,1420.39587143064,-193.292784177033
525.488654537555,-44.9008822581409,494.335797119403,9.22932388842934,1145.00348675753,-69.9241538157713,1584.18506601242,11.9757957203773,745.552670595344,-0.624958694945058,410.163850697171,13.4536528211633,1149.35847608032,-83.2355878544205,253.951751271186,-11.1178971735458,1503.56608356966,-4.48299885508229,467.612184010089,-10.2674723978577,682.987711657174,0.260368737394596,215.327834273484,-5.17030500408574,616.04035161985,16.9951878784872,433.02292332187,-30.2528575884925,1398.43190768445,-188.479736910676
510.235256077496,-41.7619961198649,486.964344817249,10.244705310549,1125.61011084206,-68.6236298090294,1564.69222639204,14.1064852155076,738.426773971656,0.31436298990209,406.049127476365,14.1377867665678,1140.15901828667,-82.9334206204796,251.016797075759,-10.5779344280576,1490.20885518488,-2.58239378404443,465.622482943405,-9.58146877605716,680.152137458936,0.523378524298706,217.421001434501,-7.17681831222167,611.476754889318,16.5548977623576,429.219282885672,-29.3696942402645,1392.77383567379,-187.77619100398
514.341421347282,-43.0413907065396,488.474393075768,10.40092137522,1130.18739459829,-71.2142780098543,1573.96013616784,12.5950247337779,743.373587666512,0.843299211998648,409.781573578623,13.8132845561244,1148.06938951688,-83.2836096360615,254.078429033694,-11.1152698867861,1503.17176358761,-5.27716907773872,470.682131258609,-10.441463128126,688.190001111182,-0.108234828045104,217.904378661073,-6.7122683502319,617.270114772455,15.5886861272304,429.992388899611,-29.7716214518002,1402.88048642022,-189.592984305037
521.255191414707,-43.8849496642398,493.42707851384,9.49435063773383,1140.6456586207,-69.2289119873204,1589.70313546351,11.2538767862938,756.903253914283,0.36377425943556,415.803375904921,13.0262304215262,1163.1937505651,-85.7013163220557,258.973728910015,-12.1621787239383,1518.99635121146,-6.80439493473998,477.548341842798,-11.6519574594466,699.278967676764,-2.43625292199783,221.674064359088,-6.80115314894518,623.753629607488,15.2119348274333,433.330014013208,-30.6334989362118,1418.54203445787,-192.517868691121
515.324523682995,-43.3991900104706,489.61988069306,10.2949527294253,1132.24506845228,-66.7961719622694,1568.81959521968,12.7275392372094,737.604684754276,1.87144089056101,407.901375450339,13.4154791341069,1150.49582871601,-85.5280842738711,252.732158196317,-10.8019387635183,1500.76863870957,-6.46321482720199,466.490533192639,-9.90327972451042,681.443479628537,0.563481767989896,216.163798532088,-6.46267492945642,613.339878218054,17.6270780432794,429.150583293642,-29.589424734367,1394.47446184561,-188.370795105888
509.991417330777,-42.2452166154491,486.579014298789,11.1890978456175,1122.58714137914,-65.8093039806503,1558.8696327153,14.6407303959116,739.158999946021,-0.22704952532134,406.551402617194,13.6618264588416,1144.54999764149,-84.7571795092009,252.070825973549,-10.9018774424969,1492.27756026683,-4.26470623126588,465.924104295397,-10.2506594522125,680.744571704187,0.35512966689203,214.354754898664,-5.38110899421718,609.710220603595,17.737226251254,427.851788368843,-29.770954888306,1393.15274554996,-187.233589434886
513.719474477867,-42.813647078131,488.515045388144,10.9156942984276,1127.80286513514,-66.404514842548,1571.5731375217,13.3721553004545,750.884350042174,-2.22781430157402,411.682029580199,13.2105688095925,1151.38028115816,-84.1043015742873,256.529000814883,-11.8789048771493,1505.47911269802,-6.85253067470612,471.319899882429,-10.8613464605651,689.4826888842,-0.53210831116394,218.777877532081,-6.44121935312924,617.58593724137,15.9563808781642,429.227101715894,-29.8155583437707,1403.47444004998,-190.074804722434
522.052995000327,-44.6931320673308,494.05544327254,9.93585841444871,1139.57979120746,-68.7492503638883,1589.89330140666,10.5759156191344,758.902942193697,0.444281406248236,417.552038882916,12.3745371828217,1170.34821864567,-89.5671964239037,260.37863020176,-12.2208131072114,1523.13576017445,-8.04367696789201,471.651688373433,-10.6366487480549,692.71156829416,-0.952232787838946,217.743720057098,-6.29007753385513,618.775198224996,14.8054729718904,429.013866343384,-29.3288680816141,1394.66252521137,-187.305593494121
505.237118396126,-41.2565579901623,483.728514966477,11.1716678976237,1117.59088128726,-66.2429711275692,1547.39828627672,15.2534272240416,733.609333641294,0.0053080620378179,403.62061962789,14.2038201639376,1139.60073023442,-85.1143841242618,250.783972787608,-10.9681306687661,1480.47236705653,-1.76957459149915,462.356732203064,-9.41957495648887,675.784224087484,1.48961383178762,214.532681503557,-6.89376597408077,606.104938197581,16.9663147759463,424.415877351392,-28.9611828868511,1382.73066245461,-185.927672804525
507.035633332487,-41.5315829522306,484.735465854131,11.5608547883956,1117.4040413726,-66.9798232467979,1553.27746807434,15.5725391843261,738.989448596247,-0.127337883939029,407.973310105812,13.3318972236953,1145.22270036102,-86.8799701743811,252.37790974561,-11.0533284507978,1489.58374135502,-3.42859314460438,466.058990902269,-10.1005846656048,682.919460609934,0.0928047572848305,213.449539936084,-5.16496115931627,607.424878750861,18.9773007186485,424.568624472502,-28.7108352620987,1387.31911944519,-186.300062619231
514.946032605844,-42.9057041473789,487.73252338094,11.6102504792966,1125.22448488878,-66.0564375330668,1571.83503603992,13.3788700756118,754.299386883007,-1.46803895034671,414.929461695818,12.7558825755372,1158.20204836608,-87.4695958937133,257.448033665904,-11.952488146896,1507.52160882334,-5.07300407915571,472.61430830405,-10.5889349923331,694.935278200564,-2.31315319545159,217.823597796495,-7.15846938986236,614.819739238656,15.8178174932242,428.11085545903,-29.5077077202828,1402.6274415553,-189.359408009302
523.846708457694,-44.9007924848374,493.537518575163,10.1727260263229,1144.97894524104,-71.414189130471,1587.45565478896,10.4312905314439,759.993351630539,-2.96995210245516,418.824276680189,11.5232590866991,1167.58759928364,-87.6210024638735,260.601584630717,-12.7048049282778,1515.25445512898,-5.64751845420427,468.730582859256,-10.4396049046433,687.467245051178,-0.234244255101657,215.741507246264,-5.85429984529737,612.834104513512,15.1738270812728,426.857387374384,-29.0642028720743,1389.99635329693,-187.09068784239
503.607139409734,-41.05626938718,481.994504807368,11.2886829499779,1110.7355547547,-63.9247808957821,1544.01933999368,16.5074184333543,727.254224912097,4.66178605190238,404.764910559552,13.4678773002825,1135.77222436242,-84.101474424319,249.973907400514,-10.9494208467895,1477.59306452893,-0.108199260499342,460.737424295747,-8.9487064284671,674.052507351151,1.54356950694216,212.923508950451,-6.00976627520758,601.887310026288,17.5128875828224,421.595067599122,-28.2671381897935,1376.15586906258,-184.334521894212
507.081680882272,-41.6489000476835,482.624060938417,11.5331415676069,1108.65793996921,-63.7485387955761,1553.24182952171,14.4363503090075,741.659350801498,-0.302678827100473,408.919179786491,12.9394756376721,1138.84240218846,-83.5699556914986,252.576420167922,-11.2986102495245,1479.68997691333,1.76711561458004,465.369955077232,-9.69323905595609,682.505319228635,-0.374494469660563,214.038110303253,-5.99269571783423,604.911122424704,16.7402318665052,422.372391059511,-28.605885259852,1382.22773435575,-185.547003937949
514.122890456642,-42.7977974755429,487.057495063508,10.9345859376078,1122.41123679062,-65.8444282928443,1573.35623263347,12.0104242986366,750.813715194247,-0.338897480650516,415.687031852638,11.6964197238507,1156.72898588329,-88.703495801315,257.087984793271,-12.144375320704,1498.60034404473,-3.79284286430165,472.598208178571,-11.0730122776141,692.782148321704,-1.76096961841259,215.342250930981,-4.9978425898289,611.890960069215,16.0553904600299,425.78750025706,-29.3913126082224,1397.24509470404,-188.634655034233
521.608166902033,-44.4821683278555,491.390431178676,10.4779092912355,1137.8612423919,-69.2999575848934,1572.70199899217,12.8642560875085,748.174896263764,-0.891739414796524,413.01291655332,12.3200691657165,1155.12712138564,-87.2016790161232,255.693130503918,-11.8035418635339,1496.4931558778,-5.35760954411451,464.860624051556,-10.0522703516526,680.364921159327,0.482789378669255,212.321682490384,-4.51295377217186,604.681504869089,17.9762192178526,424.550289565834,-28.8198250807998,1381.87653372672,-185.016728511807
504.686088671053,-41.3296680261496,480.357927787909,12.2260459535993,1107.30059140776,-65.1753095206359,1548.79797792125,14.5421528099855,730.408723693457,4.25793542382826,407.14250375261,12.511008370615,1134.27416712438,-84.2736357346195,250.691485397879,-11.0544880741812,1473.98213170556,1.59140791264941,461.608138321936,-9.51540770630254,675.311283454513,0.927493594381256,211.533425504903,-5.30945431415789,603.18540431666,15.5052587036167,421.825723445255,-28.5122155150383,1373.5984003234,-183.999336360514
508.664502059714,-42.1188567474223,483.43768400903,11.48256469609,1109.37385404475,-63.0958612927138,1560.34167963912,13.0875795544581,740.333301413958,1.48954691449424,411.344806332343,11.9718364703502,1143.11132318014,-85.5658130317069,253.793863666222,-11.9941451204946,1483.20476277282,-1.32238908157544,466.296997146256,-10.4040660868854,683.353731339114,0.0800134515866998,212.146661021476,-5.33515013778086,605.739782783313,17.289909549265,423.465832023717,-29.1240813003034,1382.45228366703,-185.827687308922
516.433183239569,-43.6879744512602,487.406225305957,11.0777106781937,1120.90421824398,-64.1235138458986,1578.53755732912,11.3583864054856,752.548082574768,0.504267817647366,418.365330671112,11.1828854534621,1160.37509361354,-86.7096813725448,258.141197244625,-12.4794248989078,1504.41437389231,-4.17877566756834,472.568734170006,-11.0404770900117,695.917187950708,-2.25264869525729,217.583350954778,-6.2198509897489,614.021189283445,15.9467791690164,427.933897370785,-29.3708880203348,1400.51782340661,-189.634907549885
505.974464447493,-41.9262681768741,480.977027744705,11.6674068871131,1108.67158082976,-62.8259556792528,1549.30656339423,15.11148710567,733.400163873106,-0.394146117668715,407.018718414122,12.0829637970077,1133.49123495006,-84.2674971652525,250.190244026023,-11.081777031224,1473.61680302074,-0.404869982953806,458.172536826924,-8.5224453320645,671.915042786295,1.51674438466607,210.107151252893,-4.99947423932135,599.802701075393,16.9490275756578,421.828226439387,-28.3099167605077,1369.55899887694,-182.979468211522
